peaks
75051
75253
75443
75636
75823
76009
76192
76377
76562
76749
76933
77045
77247
77442
77631
77818
78005
78188
78296
78498
78637
78850
79043
79232
79421
79606
79792
79978
80090
80293
80489
80672
80864
81050
81234
81415
81601
81784
81969
82149
82260
82459
82652
82763
82965
83157
83343
83526
83710
83892
84073
84251
84433
84614
84796
84978
85158
85339
85524
85636
85836
86030
86219
86406
86591
86776
86887
87088
87281
87402
87611
87733
87938
88128
88318
88430
88614
88815
89006
89190
89380
89569
89755
89939
90125
90311
90495
90678
90864
91047
91233
91413
91601
91786
91973
92157
92341
92452
92661
92858
92968
93171
93369
93561
93750
93933
94117
94227
94434
94630
94821
95009
95196
95383
95567
95752
95938
96123
96304
96487
96596
96798
96926
97133
97323
97508
97694
97871
98054
98237
98420
98597
98780
98967
99151
99335
99520
99704
99891
100077
100257
100437
100624
100806
100985
101167
101350
101531
101713
101844
102047
102237
102422
102604
102788
102973
103155
103335
103522
103706
103890
104072
104255
104360
104571
104767
104953
105138
105324
105508
105690
105802
105998
106194
106380
106564
106749
106934
107114
107226
107424
107549
107756
107948
108137
108323
108509
108688
108875
109060
109244
109420
109605
109790
109974
110152
110338
110521
110706
110891
111073
111255
111441
111626
111807
111989
112101
112301
112495
112680
112869
112976
113180
113369
113558
113743
113928
114104
114253
114443
114633
114818
114999
115184
115366
115551
115730
115841
116047
116241
116427
116610
116800
116985
117166
117275
117479
117673
117859
118044
118151
118355
118491
118693
118890
119079
119263
119447
119632
119816
120000
120183
120367
120551
120730
120917
121101
121286
121471
121583
121765
121966
122153
122338
122526
122711
122895
123076
123262
123446
123632
123810
123995
124179
124363
124541
124699
124881
125073
125258
125442
125626
125811
125996
126178
126363
126549
126734
126916
127101
127284
127468
127649
127837
128020
128204
128387
128568
128750
128935
129116
129296
129479
129663
129846
130024
130209
130393
130578
130759
130943
131129
131314
131497
131684
131871
132055
132235
132349
132558
132754
132866
133073
133264
133452
133631
133815
133997
134177
134358
134539
134721
134904
135086
135266
135445
135628
135741
135936
136060
136267
136458
136568
136765
136962
137149
137335
137518
137703
137886
138072
138250
138435
138620
138803
138985
139167
139349
139534
139704
139894
140078
140264
140451
140638
140822
141007
141192
141379
141563
141670
141878
142011
142222
142413
142600
142787
142972
143154
143334
143521
143705
143891
144071
144254
144441
144621
144807
144993
145177
145359
145540
145727
145907
146089
146268
146380
146574
146768
146950
147131
147312
147488
147600
147792
147923
148121
148305
148484
148662
148838
149015
149190
149364
149539
149713
149870
150058
150232
150403
150578
150712
150902
151077
151252
151427
151600
151771
151944
152111
152281
152453
152624
152794
152958
153071
153253
153432
153599
153771
153939
154109
154272
154441
154601
154776
154944
155109
155282
155451
155614
155783
155955
156126
156298
156407
156597
156781
156958
157129
157301
157476
157657
157825
158002
158178
158354
158523
158660
158832
158971
159073
159248
159443
159628
159802
159981
160163
160337
160515
160651
160821
161012
161192
161370
161552
161732
161913
162089
162273
162393
162591
162783
162972
163149
163329
163511
163691
163866
164049
164230
164407
164589
164767
164952
165129
165308
165488
165625
165810
166001
166183
166371
166555
166739
166916
167095
167274
167458
167634
167817
167996
168176
168356
168537
168719
168895
169072
169251
169429
169608
169790
169969
170142
170319
170499
170612
170809
170996
171178
171358
171533
171714
171892
172036
172196
172386
172579
172763
172938
173117
173299
173474
173619
173800
173987
174168
174354
174535
174708
174887
175068
175251
175428
175541
175735
175926
176109
176285
176464
176645
176825
176956
177156
177342
177527
177708
177884
177999
178195
178388
178573
178756
178938
179116
179294
179406
179600
179785
179924
180130
180253
180455
180642
180830
181012
181188
181304
181501
181699
181883
182060
182239
182425
182607
182782
182960
183145
183326
183501
183635
183838
183966
184173
184369
184515
184720
184903
185035
185221
185412
185594
185774
185912
186113
186296
186447
186551
186712
186904
187087
187265
187447
187591
187782
187965
188143
188316
188490
188606
188801
188991
189167
189346
189523
189701
189882
190053
190228
190342
190539
190720
190896
191076
191254
191427
191604
191781
191960
192136
192308
192423
192619
192811
192969
193161
193342
193522
193697
193873
194050
194231
194410
194585
194761
194942
195122
195294
195471
195651
195833
196005
196185
196360
196541
196680
196885
197067
197206
197411
197532
197737
197930
198075
198178
198365
198554
198742
198921
199095
199272
199455
199631
199807
199983
200165
200341
200518
200694
200872
201049
201223
201400
201583
201759
201934
202114
202289
202469
202650
202822
203001
203178
203291
203489
203613
203819
204012
204191
204367
204483
204679
204868
205048
205226
205405
205587
205762
205877
206074
206268
206398
206604
206786
206969
207148
207321
207496
207674
207828
208022
208195
208373
208552
208730
208908
209085
209201
209392
209593
209771
209950
210105
210304
210486
210631
210826
211009
211190
211368
211546
211728
211908
212083
212257
212436
212620
212732
212928
213114
213296
213474
213652
213828
213967
214120
214310
214499
214680
214865
215040
215154
215344
215539
215692
215888
216069
216247
216429
216613
216786
216931
217131
217311
217489
217605
217800
217992
218178
218357
218503
218698
218885
219057
219232
219413
219591
219769
219944
220117
220298
220475
220651
220828
221005
221188
221364
221539
221717
221892
222070
222248
222425
222602
222784
222960
223133
223250
223448
223639
223824
223998
224174
224354
224531
224709
224823
225012
225192
225365
225539
225714
225894
226063
226238
226413
226590
226767
226941
227115
227290
227470
227644
227821
227964
228161
228342
228517
228633
228830
229020
229198
229376
229557
229737
229911
230025
230220
230413
230593
230765
230943
231118
231300
231480
231654
231831
232010
232193
232365
232481
232680
232871
233053
233232
233414
233589
233773
233945
234119
234297
234482
234656
234832
235009
235186
235302
235493
235681
235856
236039
236218
236393
236570
236749
236925
237095
237271
237450
237626
237797
237949
238134
238243
238435
238617
238795
238978
239156
239325
239506
239683
239860
240031
240207
240383
240560
240737
240911
241042
241227
241415
241593
241767
241944
242125
242303
242478
242657
242835
243013
243185
243301
243430
243637
243827
244007
244187
244364
244546
244719
244895
245073
245251
245424
245599
245774
245954
246124
246301
246478
246590
246782
246963
247140
247313
247494
247639
247829
248007
248189
248362
248536
248710
248890
249060
249234
249408
249546
249744
249920
250057
250252
250379
250578
250760
250937
251115
251295
251466
251643
251823
251996
252170
252346
252527
252705
252877
253052
253232
253413
253588
253768
253943
254123
254250
254434
254627
254806
254984
255114
255321
255506
255639
255806
255942
256151
256340
256521
256700
256834
257015
257200
257343
257546
257667
257843
258037
258226
258409
258588
258765
258944
259124
259308
259480
259619
259804
259988
260171
260349
260523
260701
260879
261053
261208
261403
261580
261691
261889
262075
262255
262431
262608
262783
262960
263134
263310
263489
263667
263841
264016
264132
264331
264526
264702
264880
264991
265152
265348
265529
265711
265885
266065
266243
266419
266595
266778
266952
267127
267307
267483
267656
267835
268009
268184
268365
268538
268717
268892
269073
269244
269424
269600
269778
269955
270129
270308
270480
270616
270779
270965
271103
271307
271494
271673
271857
272030
272205
272384
272562
272735
272912
273085
273200
273394
273581
273762
273940
274124
274304
274478
274656
274836
275016
275188
275366
275481
275675
275856
276037
276209
276391
276569
276739
276914
277092
277265
277439
277615
277790
277967
278143
278319
278495
278673
278818
279011
279197
279373
279547
279724
279904
280078
280252
280427
280603
280779
280954
281129
281303
281480
281657
281835
282006
282138
282309
282498
282684
282866
283045
283221
283395
283548
283739
283918
284092
284267
284399
284601
284776
284951
285129
285308
285478
285594
285790
285970
286150
286328
286466
286664
286841
287015
287188
287364
287537
287708
287881
287991
288178
288358
288534
288713
288882
289055
289170
289363
289540
289716
289829
289985
290171
290353
290527
290700
290874
291041
291208
291376
291547
291712
291880
292044
292216
292379
292545
292704
292877
293047
293215
293382
293552
293730
293895
294006
294198
294384
294558
294729
294903
295080
295246
295419
295592
295771
295948
296117
296290
296465
296642
296816
296989
297163
297345
297518
297691
297866
298039
298220
298395
298568
298741
298918
299095
299268
299443
299625
299802
299972
300147
300262
300457
300649
300827
301003
301181
301357
301533
301706
301820
302020
302203
302381
302558
302731
302909
303089
303258
303373
303568
303754
303932
304107
304281
304457
304634
304805
304977
305156
305330
305501
305674
305848
306029
306201
306377
306549
306663
306854
307037
307213
307388
307571
307743
307918
308092
308269
308446
308619
308735
308930
309050
309252
309436
309608
309785
309967
310142
310312
310425
310623
310817
310945
311142
311322
311502
311679
311857
312030
312146
312345
312536
312682
312879
313063
313243
313424
313595
313769
313946
314121
314302
314474
314649
314826
314999
315175
315348
315523
315705
315883
316056
316229
316405
316583
316715
316881
317070
317213
317427
317618
317800
317978
318162
318342
318492
318681
318861
318995
319194
319327
319528
319715
319892
320067
320199
320399
320587
320767
320938
321053
321246
321439
321619
321794
321966
322142
322321
322490
322664
322839
322950
323139
323320
323456
323658
323780
323976
324155
324267
324469
324659
324801
324999
325122
325325
325511
325687
325863
326044
326215
326327
326523
326714
326891
327060
327191
327346
327537
327726
327905
328045
328242
328430
328605
328780
328897
329097
329287
329463
329644
329815
329992
330169
330341
330473
330675
330859
331029
331203
331378
331556
331737
331909
332082
332257
332438
332611
332784
332900
333094
333282
333460
333637
333752
333920
334114
334290
334466
334645
334823
334936
335131
335259
335467
335649
335826
336000
336172
336287
336476
336608
336807
336994
337172
337342
337457
337655
337837
338012
338187
338362
338541
338711
338882
339019
339218
339400
339570
339745
339861
340057
340241
340414
340592
340766
340947
341120
341231
341420
341599
341770
341940
342114
342286
342457
342629
342804
342975
343146
343321
343492
343663
343839
344014
344185
344356
344490
344688
344877
345053
345229
345404
345583
345762
345934
346049
346246
346428
346607
346786
346957
347135
347311
347481
347656
347831
348009
348182
348358
348529
348709
348884
349053
349225
349400
349577
349750
349922
350096
350273
350450
350620
350796
350976
351149
351322
351438
351632
351824
352000
352174
352348
352524
352704
352874
353044
353213
353384
353562
353736
353904
354036
354229
354410
354585
354757
354889
355083
355269
355445
355616
355790
355964
356135
356310
356479
356659
356827
356998
357174
357347
357526
357696
357872
358049
358224
358403
358578
358701
358901
359091
359264
359440
359556
359753
359938
360110
360284
360462
360639
360810
360985
361161
361337
361506
361622
361817
362000
362109
362305
362495
362671
362841
362954
363151
363338
363515
363688
363862
364044
364221
364390
364565
364740
364920
365094
365202
365399
365584
365768
365942
366114
366292
366471
366647
366820
366991
367171
367347
367518
367695
367866
368047
368225
368335
368535
368726
368909
369094
369270
369450
369629
369810
369995
370173
370348
370529
370706
370890
371067
371241
371416
371592
371770
371909
372102
372222
372426
372611
372723
372919
373101
373283
373459
373633
373808
373922
374118
374306
374488
374666
374843
375024
375195
375369
375543
375719
375897
376073
376243
376418
376598
376775
376945
377060
377259
377450
377624
377799
377975
378157
378328
378502
378677
378857
379028
379202
379377
379559
379738
379908
380083
380261
380439
380611
380728
380921
381109
381289
381462
381638
381754
381954
382140
382318
382496
382672
382852
383024
383137
383332
383514
383695
383871
384038
384210
384383
384554
384669
384861
384986
385183
385365
385548
385725
385894
386067
386211
386377
386563
386707
386899
387084
387260
387433
387544
387742
387929
388108
388286
388462
388638
388748
388952
389137
389316
389494
389675
389845
389982
390150
390338
390523
390703
390877
390991
391186
391378
391554
391730
391843
392040
392231
392409
392584
392759
392935
393116
393290
393466
393641
393758
393954
394146
394328
394505
394682
394862
395034
395209
395376
395554
395729
395909
396079
396250
396424
396600
396778
396946
397119
397296
397469
397641
397812
397983
398162
398332
398503
398676
398852
399025
399196
399370
399541
399720
399891
400061
400233
400408
400588
400755
400870
401064
401257
401432
401612
401784
401964
402138
402314
402488
402604
402803
402995
403176
403354
403530
403710
403887
404064
404239
404416
404594
404775
404952
405127
405303
405415
405619
405803
405980
406156
406332
406508
406685
406855
406970
407160
407343
407477
407670
407848
408023
408200
408366
408538
408709
408882
409054
409226
409398
409574
409745
409915
410090
410261
410435
410605
410776
410950
411128
411298
411467
411582
411775
411962
412069
412267
412456
412631
412803
412977
413152
413329
413502
413675
413790
413987
414177
414317
414514
414700
414810
415003
415131
415335
415526
415705
415874
416052
416222
416403
416580
416750
416927
417102
417285
417456
417631
417806
417984
418160
418330
418504
418677
418858
419033
419201
419374
419549
419725
419897
420072
420185
420381
420573
420720
420911
421089
421271
421446
421614
421790
421965
422139
422306
422445
422635
422820
422997
423164
423276
423475
423658
423835
424008
424182
424357
424536
424706
424877
425052
425228
425403
425570
425743
425917
426092
426266
426440
426616
426790
426964
427136
427308
427482
427661
427836
428007
428179
428339
428516
428698
428870
429000
429201
429380
429525
429722
429896
430069
430242
430355
430549
430726
430857
431055
431239
431415
431585
431756
431926
432102
432276
432440
432610
432781
432958
433130
433296
433467
433638
433817
433993
434160
434331
434504
434679
434851
435024
435195
435365
435540
435675
435868
436040
436217
436391
436564
436731
436902
437071
437247
437416
437584
437725
437910
438089
438256
438425
438599
438771
438940
439110
439285
439450
439617
439788
439950
440122
440296
440459
440626
440795
440970
441140
441304
441474
441602
441799
441973
442145
442315
442488
442628
442787
442972
443150
443329
443498
443668
443840
444013
444191
444359
444530
444706
444882
445055
445225
445394
445555
445735
445904
446075
446248
446422
446590
446765
446932
447105
447283
447449
447560
447755
447943
448115
448288
448463
448632
448807
448947
449110
449294
449473
449652
449819
449990
450161
450273
450471
450595
450792
450972
451085
451281
451459
451568
451765
451954
452129
452302
452474
452647
452821
452988
453159
453325
453498
453671
453838
454006
454180
454352
454518
454688
454858
455034
455204
455352
455538
455711
455891
456057
456168
456364
456557
456737
456907
457078
457248
457425
457556
457746
457871
458070
458253
458379
458560
458742
458918
459027
459214
459389
459561
459735
459913
460078
460246
460419
460593
460766
460936
461106
461275
461447
461619
461788
461901
462094
462273
462444
462615
462730
462923
463101
463205
463398
463522
463720
463894
464064
464232
464404
464576
464743
464912
465084
465256
465423
465592
465707
465899
466021
466214
466392
466571
466741
466911
467079
467253
467427
467594
467761
467932
468104
468274
468443
468617
468789
468962
469128
469300
469468
469644
469812
469980
470150
470326
470499
470668
470835
471005
471118
471306
471481
471653
471827
472002
472174
472340
472475
472670
472844
473014
473126
473319
473505
473676
473850
474018
474189
474359
474528
474641
474805
474990
475164
475336
475510
475682
475851
475963
476155
476341
476514
476685
476860
477028
477205
477342
477516
477695
477870
478046
478154
478344
478524
478700
478875
479044
479211
479386
479557
479732
479840
480030
480158
480354
480534
480708
480879
481054
481225
481393
481567
481737
481913
482080
482249
482396
482588
482760
482935
483103
483275
483451
483621
483791
483961
484139
484307
484443
484612
484728
484926
485105
485281
485455
485598
485758
485937
486115
486293
486469
486641
486811
486981
487123
487286
487470
487646
487815
487988
488160
488336
488511
488686
488854
489023
489197
489371
489478
489672
489818
490011
490184
490358
490530
490700
490877
491050
491214
491384
491498
491693
491870
492042
492216
492387
492564
492734
492905
493073
493247
493420
493575
493748
493921
494091
494268
494438
494608
494737
494934
495114
495294
495463
495636
495807
495980
496121
496309
496484
496656
496833
497000
497168
497339
497515
497686
497856
498026
498136
498330
498521
498699
498869
499034
499208
499379
499552
499722
499853
500038
500218
500391
500498
500671
500855
501031
501204
501371
501485
501677
501857
502036
502203
502317
502513
502700
502875
503047
503159
503355
503534
503716
503884
504054
504226
504402
504577
504751
504918
505088
505263
505437
505619
505785
505955
506088
506280
506462
506636
506807
506977
507155
507327
507496
507631
507824
508000
508169
508339
508506
508679
508841
509009
509176
509332
509506
509674
509840
510010
510180
510310
510478
510658
510833
510996
511110
511292
511473
511646
511815
511983
512155
512327
512469
512637
512778
512971
513142
513309
513478
513646
513818
513981
514148
514320
514476
514652
514822
514982
515145
515311
515477
515647
515779
515970
516136
516308
516476
516649
516813
516982
517155
517327
517501
517666
517836
517991
518171
518346
518515
518682
518851
519021
519198
519337
519494
519673
519802
520003
520176
520347
520522
520694
520801
520997
521171
521346
521516
521685
521853
522026
522199
522364
522532
522683
522867
523012
523198
523371
523543
523715
523883
524051
524219
524393
524567
524737
524905
