peaks
75169
75386
75599
75807
76015
76226
76438
76647
76856
77064
77276
77490
77704
77918
78129
78346
78569
78792
79014
79235
79453
79672
79888
80102
80317
80530
80739
80946
81154
81364
81574
81780
81983
82186
82394
82603
82813
83023
83233
83441
83645
83849
84051
84258
84467
84671
84872
85077
85282
85494
85709
85923
86136
86352
86557
86754
86944
87134
87321
87504
87695
87891
88092
88304
88519
88736
88946
89159
89366
89570
89774
89975
90172
90368
90562
90756
90951
91146
91337
91528
91722
91916
92112
92311
92519
92730
92943
93157
93371
93582
93795
94006
94218
94428
94631
94839
95049
95256
95460
95665
95870
96077
96290
96497
96710
96926
97138
97350
97560
97774
97983
98190
98392
98595
98801
99006
99211
99417
99624
99830
100038
100249
100452
100662
100874
101085
101296
101500
101700
101901
102104
102308
102512
102720
102928
103135
103351
103569
103792
104010
104224
104434
104641
104844
105039
105232
105427
105623
105826
106037
106248
106461
106675
106891
107103
107317
107535
107759
107983
108205
108420
108637
108857
109081
109303
109523
109745
109964
110187
110408
110625
110847
111062
111272
111483
111694
111913
112131
112350
112569
112790
113008
113221
113430
113637
113840
114044
114248
114454
114660
114872
115087
115302
115521
115739
115956
116166
116371
116568
116768
116970
117171
117373
117576
117784
117992
118200
118405
118609
118821
119030
119243
119458
119674
119890
120109
120322
120536
120750
120963
121178
121393
121605
121817
122029
122239
122453
122670
122887
123105
123313
123515
123710
123906
124101
124291
124479
124663
124846
125029
125213
125395
125578
125765
125956
126144
126326
126507
126692
126881
127070
127260
127449
127640
127830
128025
128213
128405
128599
128793
128984
129174
129366
129558
129752
129951
130139
130343
130545
130750
130957
131165
131374
131586
131801
132013
132224
132438
132658
132879
133102
133324
133553
133782
134002
134218
134433
134648
134870
135088
135305
135530
135745
135965
136195
136434
136666
136892
137119
137353
137581
137813
138044
138268
138487
138703
138920
139147
139369
139588
139806
140024
140238
140452
140667
140886
141108
141331
141555
141785
142017
142244
142467
142690
142910
143130
143350
143568
143790
144016
144241
144470
144698
144921
145138
145347
145554
145765
145979
146197
146416
146638
146862
147086
147309
147520
147731
147945
148160
148375
148589
148803
149011
149213
149408
149602
149796
149991
150187
150384
150583
150784
150991
151201
151412
151620
151826
152028
152231
152421
152618
152816
153022
153226
153432
153636
153845
154061
154273
154486
154698
154912
155130
155347
155572
155791
156012
156236
156464
156691
156918
157144
157369
157586
157804
158020
158241
158463
158684
158902
159122
159348
159567
159782
159998
160213
160427
160641
160851
161066
161284
161495
161704
161913
162127
162340
162551
162758
162962
163171
163383
163598
163813
164027
164241
164455
164665
164873
165082
165293
165505
165723
165930
166144
166362
166580
166797
167011
167228
167455
167684
167910
168133
168357
168578
168796
169010
169225
169442
169657
169871
170081
170289
170500
170715
170934
171153
171376
171604
171831
172058
172275
172483
172683
172881
173080
173286
173497
173723
173949
174176
174399
174624
174851
175076
175298
175514
175728
175945
176150
176356
176559
176761
176967
177175
177389
177600
177808
178017
178231
178440
178658
178869
179074
179277
179475
179683
179894
180111
180321
180526
180723
180918
181107
181296
181480
181673
181868
182070
182274
182486
182705
182926
183150
183371
183592
183811
184033
184261
184491
184719
184947
185175
185403
185629
185857
186085
186316
186547
186785
187019
187251
187479
187707
187937
188161
188383
188602
188818
189032
189253
189477
189704
189934
190162
190392
190614
190836
191066
191301
191534
191761
191988
192217
192448
192681
192908
193134
193361
193592
193825
194059
194286
194515
194743
194958
195176
195391
195606
195819
196038
196250
196468
196687
196909
197129
197345
197560
197776
197990
198213
198427
198643
198863
199083
199299
199514
199723
199933
200139
200348
200565
200787
201009
201229
201449
201665
201885
202106
202326
202539
202754
202965
203178
203383
203592
203803
204015
204233
204453
204675
204904
205133
205356
205575
205797
206022
206254
206482
206706
206927
207151
207374
207594
207814
208030
208246
208453
208659
208864
209071
209276
209486
209705
209926
210148
210366
210572
210775
210973
211176
211380
211584
211785
211990
212192
212394
212606
212818
213030
213254
213470
213681
213891
214101
214309
214519
214723
214925
215122
215323
215518
215719
215921
216129
216339
216551
216769
216987
217207
217423
217637
217851
218066
218283
218502
218719
218931
219138
219339
219540
219744
219948
220156
220366
220582
220800
221022
221245
221471
221697
221919
222137
222355
222570
222788
223003
223209
223414
223608
223797
223984
224180
224367
224541
224713
224882
225050
225221
225392
225564
225733
225901
226067
226238
226413
226592
226772
226951
227136
227322
227509
227702
227898
228099
228302
228508
228726
228947
229170
229388
229603
229816
230032
230251
230470
230690
230909
231132
231351
231565
231780
232003
232233
232470
232699
232920
233137
233341
233538
233726
233910
234091
234268
234451
234641
234837
235044
235249
235455
235658
235861
236067
236277
236493
236710
236928
237144
237362
237579
237803
238023
238242
238462
238681
238905
239126
239348
239576
239810
240047
240280
240509
240738
240961
241179
241391
241596
241807
242024
242238
242450
242662
242876
243092
243309
243524
243741
243958
244173
244386
244595
244799
244996
245181
245360
245538
245721
245918
246134
246361
246597
246835
247068
247292
247512
247726
247936
248138
248343
248555
248770
248993
249212
249435
249662
249890
250121
250347
250573
250799
251022
251246
251467
251690
251913
252140
252371
252602
252838
253076
253312
253545
253784
254027
254267
254504
254739
254967
255197
255421
255649
255879
256107
256336
256564
256794
257028
257257
257487
257717
257953
258185
258416
258642
258868
259091
259309
259527
259746
259967
260184
260405
260639
260876
261115
261348
261571
261791
262015
262243
262470
262696
262924
263148
263371
263592
263815
264041
264265
264485
264708
264927
265151
265371
265584
265785
265976
266155
266334
266515
266693
266863
267042
267219
267398
267573
267746
267924
268091
268263
268436
268609
268789
268969
269151
269339
269529
269719
269907
270094
270290
270495
270700
270906
271125
271345
271569
271797
272025
272250
272464
272674
272879
273089
273299
273512
273729
273946
274157
274373
274593
274815
275038
275263
275492
275727
275955
276182
276404
276618
276831
277040
277247
277455
277664
277874
278080
278281
278478
278671
278863
279059
279265
279482
279706
279928
280155
280381
280603
280817
281027
281237
281443
281649
281849
282046
282242
282440
282638
282838
283036
283240
283450
283663
283879
284090
284315
284531
284743
284950
285153
285361
285566
285769
285972
286175
286380
286585
286787
286987
287187
287387
287586
287784
287982
288186
288390
288594
288792
288984
289166
289349
289536
289717
289892
290064
290235
290403
290578
290766
290979
291197
291412
291633
291846
292063
292279
292488
292695
292898
293100
293305
293501
293703
293904
294103
294305
294512
294724
294948
295178
295410
295638
295874
296109
296352
296592
296833
297071
297303
297534
297758
297990
298226
298458
298695
298933
299174
299417
299652
299881
300107
300332
300556
300779
301003
301229
301463
301697
301922
302146
302370
302586
302792
302985
303183
303379
303584
303788
303995
304209
304428
304646
304870
305093
305321
305547
305769
305982
306191
306394
306592
306790
306991
307197
307405
307614
307824
308031
308241
308448
308653
308857
309062
309271
309479
309687
309893
310100
310310
310518
310723
310924
311125
311328
311531
311736
311939
312147
312359
312566
312774
312979
313182
313382
313581
313778
313977
314173
314371
314559
314740
314916
315085
315272
315467
315658
315845
316023
316194
316366
316535
316707
316882
317063
317244
317433
317627
317819
318014
318201
318394
318586
318778
318967
319157
319348
319540
319737
319939
320137
320336
320540
320746
320957
321172
321395
321612
321828
322043
322261
322481
322703
322920
323133
323354
323579
323806
324033
324257
324482
324705
324927
325151
325372
325590
325804
326015
326228
326440
326649
326858
327067
327281
327498
327722
327950
328179
328404
328625
328846
329064
329277
329483
329685
329890
330096
330309
330525
330753
330982
331209
331432
331657
331877
332094
332303
332507
332709
332899
333086
333275
333472
333675
333884
334089
334298
334508
334721
334926
335141
335356
335577
335799
336031
336262
336493
336714
336938
337163
337388
337613
337836
338057
338279
338502
338725
338950
339175
339399
339621
339843
340070
340299
340529
340761
340995
341228
341462
341697
341929
342150
342367
342583
342804
343025
343247
343462
343681
343894
344110
344318
344527
344738
344949
345165
345381
345604
345827
346045
346256
346464
346665
346860
347060
347270
347486
347705
347921
348140
348363
348587
348810
349034
349259
349483
349705
349924
350145
350361
350576
350790
351007
351231
351447
351665
351887
352108
352330
352556
352787
353018
353248
353475
353701
353925
354144
354361
354577
354799
355014
355230
355444
355656
355864
356068
356274
356487
356702
356904
357103
357303
357499
357696
357894
358091
358292
358495
358694
358900
359108
359323
359540
359752
359961
360174
360388
360604
360818
361028
361239
361453
361664
361876
362089
362301
362507
362713
362918
363130
363351
363577
363803
364025
364246
364468
364689
364906
365120
365337
365547
365758
365971
366183
366393
366602
366804
367013
367228
367445
367660
367874
368088
368299
368503
368708
368913
369119
369328
369542
369760
369983
370206
370426
370644
370864
371088
371305
371523
371738
371944
372147
372348
372550
372759
372974
373192
373408
373628
373845
374066
374284
374503
374722
374942
375166
375388
375614
375838
376056
376274
376492
376717
376941
377167
377395
377621
377848
378077
378306
378540
378773
379006
379237
379471
379706
379938
380166
380393
380620
380848
381075
381302
381531
381756
381980
382206
382436
382668
382894
383119
383344
383570
383795
384019
384241
384464
384686
384911
385135
385358
385576
385789
385998
386208
386424
386646
386869
387098
387330
387561
387788
388007
388218
388423
388626
388822
389021
389220
389424
389631
389836
390045
390255
390466
390681
390900
391115
391325
391534
391749
391958
392174
392389
392606
392821
393040
393261
393485
393711
393937
394159
394380
394605
394833
395057
395278
395504
395732
395962
396187
396411
396637
396861
397087
397319
397555
397791
398024
398252
398477
398702
398917
399125
399333
399540
399751
399969
400188
400402
400621
400841
401061
401283
401508
401735
401957
402176
402397
402616
402836
403051
403262
403469
403678
403886
404096
404305
404515
404732
404948
405164
405385
405597
405827
406046
406262
406481
406700
406922
407148
407366
407585
407807
408031
408254
408474
408692
408909
409132
409355
409575
409797
410022
410242
410459
410677
410903
411132
411359
411584
411801
412020
412244
412463
412681
412894
413109
413327
413544
413764
413986
414213
414436
414658
414879
415095
415312
415527
415738
415949
416166
416384
416602
416816
417030
417236
417430
417624
417811
417983
418155
418322
418488
418654
418825
418999
419178
419361
419553
419745
419944
420146
420350
420553
420754
420954
421159
421373
421597
421828
422054
422282
422510
422734
422952
423162
423375
423597
423826
424059
424291
424532
424761
424988
425204
425419
425636
425852
426068
426289
426511
426733
426955
427174
427397
427614
427832
428050
428272
428497
428729
428958
429189
429427
429660
429887
430112
430336
430560
430780
430997
431210
431428
431651
431876
432097
432320
432545
432767
432986
433204
433429
433653
433859
434059
434259
434467
434675
434893
435122
435357
435586
435809
436030
436251
436467
436681
436889
437095
437301
437508
437718
437929
438144
438363
438583
438797
439016
439241
439467
439688
439909
440127
440348
440571
440793
441016
441243
441461
441676
441885
442093
442304
442517
442720
442918
443108
443293
443476
443646
443823
443998
444177
444364
444562
444757
444952
445143
445331
445522
445715
445907
446095
446281
446465
446653
446844
447036
447232
447441
447655
447871
448086
448307
448524
448739
448949
449153
449356
449556
449750
449945
450137
450333
450529
450726
450920
451112
451312
451519
451730
451943
452161
452384
452602
452816
453023
453226
453423
453604
453780
453953
454128
454296
454478
454652
454830
455001
455179
455358
455539
455720
455905
456091
456279
456470
456663
456860
457057
457257
457457
457658
457855
458051
458249
458449
458649
458849
459055
459272
459496
459725
459950
460173
460396
460612
460829
461042
461257
461477
461705
461932
462157
462377
462595
462811
463022
463229
463439
463645
463849
464052
464258
464471
464694
464913
465127
465329
465518
465701
465879
466060
466242
466433
466636
466843
467055
467264
467474
467678
467878
468074
468268
468464
468656
468848
469042
469235
469429
469626
469829
470037
470243
470443
470648
470850
471052
471254
471459
471659
471861
472066
472279
472493
472710
472932
473153
473382
473608
473836
474060
474280
474491
474699
474909
475114
475310
475502
475692
475883
476082
476292
476508
476725
476937
477152
477372
477596
477817
478034
478244
478450
478651
478851
479050
479250
479455
479661
479869
480078
480290
480503
480727
480966
481186
481392
481586
481770
481953
482137
482323
482509
482699
482893
483087
483285
483481
483680
483871
484067
484259
484455
484651
484845
485034
485218
485396
485568
485740
485910
486082
486259
486444
486633
486829
487043
487273
487518
487758
487997
488226
488477
488716
488948
489175
489400
489624
489841
490064
490289
490513
490738
490967
491196
491422
491652
491874
492092
492307
492517
492733
492949
493168
493380
493586
493793
494004
494222
494448
494673
494900
495124
495351
495580
495806
496032
496252
496470
496681
496891
497103
497316
497531
497746
497962
498182
498396
498606
498813
499021
499234
499454
499679
499904
500130
500356
500574
500786
500998
501214
501426
501638
501849
502058
502271
502482
502691
502896
503104
503314
503531
503753
503975
504201
504434
504661
504885
505103
505316
505525
505734
505938
506145
506349
506554
506756
506964
507169
507381
507605
507830
508059
508283
508505
508730
508956
509181
509402
509621
509842
510060
510278
510499
510718
510941
511162
511383
511605
511826
512043
512260
512472
512688
512911
513137
513353
513568
513786
514008
514234
514462
514685
514907
515127
515344
515561
515780
515999
516212
516422
516625
516816
517000
517180
517358
517540
517730
517931
518145
518363
518581
518804
519020
519232
519435
519634
519831
520023
520211
520390
520568
520752
520948
521148
521351
521559
521771
521987
522205
522427
522660
522896
523130
523360
523585
523813
524040
524263
524482
524698
524919
