peaks
75041
75265
75493
75720
75945
76168
76392
76616
76838
77059
77285
77507
77729
77951
78174
78400
78623
78844
79070
79296
79524
79747
79976
80205
80435
80665
80895
81129
81361
81589
81823
82053
82281
82512
82742
82973
83200
83424
83622
83863
84078
84296
84515
84735
84952
85170
85394
85610
85826
86041
86260
86477
86690
86906
87127
87346
87568
87791
88018
88243
88468
88694
88924
89152
89384
89613
89846
90081
90309
90539
90764
90991
91220
91445
91672
91897
92126
92354
92581
92810
93037
93262
93488
93714
93939
94163
94380
94601
94825
95041
95256
95475
95694
95911
96127
96348
96568
96789
97010
97237
97466
97692
97916
98144
98376
98613
98850
99088
99327
99567
99808
100046
100287
100529
100768
101009
101246
101488
101727
101966
102204
102442
102681
102914
103148
103385
103618
103850
104076
104303
104529
104749
104969
105184
105407
105630
105853
106084
106312
106549
106789
107027
107267
107506
107745
107982
108220
108462
108701
108944
109186
109429
109670
109911
110150
110388
110626
110859
111087
111319
111552
111790
112030
112272
112514
112753
112997
113241
113485
113727
113969
114212
114453
114693
114933
115172
115416
115653
115895
116139
116383
116624
116866
117110
117352
117594
117837
118080
118324
118567
118809
119050
119295
119538
119779
120022
120264
120508
120748
120991
121234
121473
121707
121940
122172
122401
122630
122858
123087
123318
123465
123739
123982
124226
124468
124714
124958
125204
125446
125692
125938
126184
126429
126672
126918
127161
127403
127648
127889
128135
128374
128618
128859
129098
129334
129567
129800
130028
130258
130487
130716
130942
131163
131387
131612
131839
132067
132295
132525
132755
132985
133216
133444
133678
133913
134149
134387
134625
134866
135107
135349
135590
135829
136071
136311
136547
136783
137014
137250
137484
137722
137959
138197
138435
138672
138910
139150
139390
139630
139869
140109
140347
140585
140823
141061
141302
141538
141778
142015
142251
142486
142724
142961
143196
143429
143664
143896
144131
144365
144598
144835
145069
145306
145541
145778
146012
146242
146476
146706
146936
147168
147401
147634
147868
148100
148336
148572
148808
149045
149282
149522
149760
150003
150243
150486
150727
150968
151206
151445
151686
151925
152162
152402
152641
152881
153120
153361
153601
153841
154081
154319
154560
154797
155032
155268
155504
155740
155975
156210
156448
156683
157371
157596
157819
158045
158267
158486
158705
158924
159142
159358
159573
159786
159998
160212
160430
160646
160866
161088
161310
161537
161762
161992
162221
162451
162683
162914
163146
163378
163607
163837
164067
164297
164528
164757
164991
165224
165456
165691
165924
166161
166391
166621
166848
167073
167298
167519
167744
167966
168187
168409
168627
168850
169073
169300
169531
169757
169985
170216
170447
170675
170908
171139
171372
171602
171833
172065
172297
172533
172765
173001
173240
173477
173714
173949
174187
174424
174660
174895
175129
175365
175598
175830
176063
176295
176529
176759
176990
177224
177457
177689
177915
178143
178371
178596
178824
179051
179280
179509
179740
179974
180208
180442
180677
180908
181141
181374
181609
181843
182075
182308
182542
182774
183007
183238
183474
183708
183942
184177
184413
184652
184888
185125
185363
185599
185835
186067
186303
186539
186775
187009
187245
187481
187715
187949
188186
188420
188655
188885
189119
189355
189590
189824
190059
190295
190531
190765
191000
191234
191469
191704
191940
192176
192409
192643
192876
193110
193347
193579
193815
194048
194284
194519
194754
194990
195224
195457
195694
195928
196164
196395
196632
196866
197102
197338
197572
197809
198044
198277
198512
198739
198965
199192
199422
199654
199884
200119
200355
200587
200824
201058
201298
201533
201768
202003
202236
202468
202688
202925
203155
203379
203607
203833
204058
204287
204516
204748
204980
205212
205448
205681
205917
206151
206388
206627
206864
207104
207341
207581
207820
208054
208291
208527
208765
209001
209235
209473
209708
209943
210178
210413
210650
210884
211119
211356
211592
211828
212062
212300
212538
212775
213008
213237
213470
213700
213927
214160
214393
214629
214861
215097
215336
215573
215812
216047
216284
216521
216757
216993
217231
217472
217710
217945
218184
218421
218614
218897
219133
219367
219600
219832
220064
220299
220534
220766
221000
221227
221457
221683
221908
222136
222363
222594
222827
223059
223291
223521
223754
223985
224216
224448
224676
224904
225132
225361
225590
225817
226044
226271
226494
226718
226940
227162
227387
227609
227835
228061
228288
228516
228745
228976
229208
229440
229675
229905
230138
230374
230610
230847
231080
231318
231554
231793
232028
232265
232504
232739
232976
233214
233451
233692
233928
234169
234409
234650
234894
235131
235373
235608
235844
236079
236316
236554
236790
237027
237267
237509
237753
237991
238234
238476
238716
238956
239194
239428
239655
239886
240119
240353
240589
240824
241061
241296
241533
241770
241999
242232
242463
242691
242919
243149
243383
243615
243848
244082
244312
244548
244782
245016
245252
245487
245725
245963
246202
246441
246679
246921
247160
247397
247637
247875
248117
248355
248595
248833
249071
249310
249545
249783
250019
250255
250490
250726
250961
251193
251419
251648
251873
252103
252330
252561
252792
253025
253260
253495
253730
253966
254201
254369
254512
254662
254823
255107
255359
255610
255856
256102
256349
256595
256841
257082
257329
257573
257819
258064
258308
258554
258798
259041
259282
259517
259750
259975
260199
260429
260658
260891
261126
261363
261602
261840
262078
262313
262554
262792
263030
263268
263507
263746
263982
264220
264457
264696
264935
265171
265414
265654
265895
266137
266376
266616
266856
267097
267335
267575
267813
268049
268282
268517
268747
268976
269202
269375
269633
269860
270088
270315
270543
270770
270996
271227
271456
271688
271920
272152
272391
272628
272869
273109
273350
273593
273834
274077
274317
274560
274801
275040
275279
275518
275755
275990
276226
276464
276699
276935
277169
277403
277638
277871
278105
278337
278571
278803
279035
279269
279502
279735
279969
280200
280433
280665
280898
281130
281365
281600
281833
282066
282302
282535
282769
283000
283236
283470
283704
283939
284173
284411
284646
284879
285113
285348
285580
285809
286036
286265
286487
286709
286928
287152
287374
287593
287812
288037
288259
288483
288706
288934
289162
289390
289620
289849
290078
290309
290539
290772
291005
291242
291478
291616
291889
292131
292373
292614
292853
293094
293333
293568
293804
294036
294268
294500
294733
294967
295197
295429
295659
295891
296123
296355
296589
296823
297057
297291
297522
297754
297982
298212
298442
298672
298900
299128
299355
299585
299811
300035
300260
300484
300719
300949
301182
301419
301658
301896
302131
302368
302602
302838
303071
303303
303539
303770
304003
304233
304466
304698
304928
305158
305389
305616
305843
306067
306294
306521
306744
306967
307191
307418
307645
307870
308097
308327
308559
308791
309021
309255
309488
309721
309955
310189
310426
310662
310899
311136
311374
311614
311849
312085
312323
312559
312797
313030
313268
313502
313733
313964
314194
314426
314655
314883
315114
315342
315573
315800
316025
316252
316477
316702
316929
317156
317384
317612
317842
318072
318302
318531
318759
318987
319217
319446
319679
319908
320138
320368
320596
320823
321042
321264
321490
321713
321941
322159
322395
322621
322846
323069
323290
323514
323739
323958
324178
324401
324619
324839
325057
325276
325494
325713
325931
326148
326362
326575
326785
326998
327216
327431
327649
327869
328090
328312
328534
328757
328981
329206
329433
329658
329884
330112
330339
330566
330793
331019
331248
331474
331702
331928
332155
332380
332603
332825
333049
333268
333487
333702
333916
334555
334767
334970
335173
335376
335572
335771
335969
336164
336359
336550
336742
336933
337122
337313
337503
337688
337880
338071
338260
338425
338638
338830
339017
339207
339398
339595
339780
339969
340161
340346
340546
340737
340928
341059
341296
341493
341668
341866
342047
342233
342421
342607
342792
342976
343163
343352
343542
343736
343926
344113
344300
344493
344679
344869
345063
345249
345436
345622
345811
345996
346182
346369
346557
346746
346935
347123
347310
347498
347687
347877
348064
348259
348376
348610
348795
348982
349168
349356
349543
349730
349914
350105
350293
350479
350668
350861
351047
351232
351425
351613
351801
351992
352184
352373
352569
352760
352953
353150
353341
353530
353729
353921
354113
354310
354505
354675
354909
355105
355303
355500
355701
355899
356101
356294
356492
356694
356890
357085
357285
357484
357681
357874
358071
358268
358468
358666
358866
359067
359264
359472
359672
359874
360077
360281
360485
360690
360894
361103
361308
361516
361723
361929
362136
362343
362545
362756
362963
363171
363381
363591
363800
364014
364227
364425
364650
364864
365079
365290
365492
365699
365910
366112
366316
366520
366733
366933
367143
367347
367553
367757
367962
368171
368375
368576
368783
368990
369195
369402
369616
370425
370625
370822
371020
371216
371411
371609
371804
371984
372184
372380
372569
372769
372959
373152
373343
373535
373727
373915
374104
374286
374486
374674
374862
375053
375241
375434
375620
375805
375986
376179
376366
376559
376741
376926
377109
377308
377494
377682
377868
378056
378247
378434
378627
378815
378977
379196
379389
379574
379766
379960
380143
380320
380510
380700
380881
381068
381252
381440
381627
381812
381999
382186
382374
382557
382752
382931
383118
383302
383489
383683
383859
384044
384228
384421
384610
384797
384989
385174
385365
385553
385748
385925
386128
386249
386465
386658
386847
387039
387232
387432
387622
387809
388010
388203
388404
388602
388799
388923
389175
389375
389573
389776
389973
390172
390367
390568
390770
390959
391160
391363
391727
391925
392116
392307
392504
392689
392888
393076
393267
393467
393653
393843
394031
394227
394418
394611
394806
395002
395197
395392
395593
395788
395973
396175
396364
396557
396746
396935
397124
397313
397504
397697
397894
398092
398293
398492
398694
398893
399090
399289
399489
399689
399889
400089
400291
400496
400696
400902
401107
401312
401519
401726
401931
402138
402345
402547
402753
402958
403164
403372
403577
403786
403997
404207
404419
404633
404842
405057
405270
405486
405705
405917
406136
406356
406575
406795
407016
407240
407466
407687
407914
408141
408369
408594
408819
409046
409275
409505
409733
409963
410195
410428
410653
410880
411105
411334
411561
411775
411998
412237
412457
412686
412911
413142
413372
413602
413834
414064
414284
414504
414732
414955
415179
415411
415652
415867
416099
416336
416576
416812
417043
417273
417503
417734
417964
418193
418419
418638
418862
419087
419313
419542
419770
420000
420230
420459
420692
420922
421151
421381
421611
421843
422072
422302
422534
422766
423001
423232
423466
423700
423932
424163
424394
424628
424862
425092
425327
425561
425797
426030
426263
426498
426732
426964
427196
427431
427666
427896
428126
428353
428580
428803
429021
429235
429457
429675
429897
430119
430342
430568
430794
431025
431253
431485
431717
431948
432177
432412
432643
432875
433103
433334
433565
433801
434036
434273
434514
434754
434992
435232
435472
435714
435949
436187
436427
436665
436903
437141
437381
437620
437855
438081
438314
438542
438768
438994
439223
439453
439665
439918
440149
440383
440613
440844
441075
441308
441543
441773
442007
442243
442480
442713
442946
443183
443421
443659
443898
444138
444380
444617
444856
445094
445333
445568
445802
446038
446276
446514
446749
446979
447210
447439
447664
447890
448116
448346
448574
448804
449034
449265
449498
449726
449957
450192
450425
450660
450892
451126
451364
451598
451836
452072
452309
452543
452774
453006
453232
453457
453683
453903
454121
454344
454566
454791
455015
455243
455471
455699
455931
456162
456396
456626
456859
457093
457325
457557
457789
458022
458259
458493
458730
458968
459205
459444
459678
459916
460154
460392
460629
460864
461102
461338
461575
461810
462044
462282
462519
462754
462987
463220
463459
463693
463927
464163
464401
464640
464874
465114
465354
465596
465834
466069
466308
466544
466779
467014
467249
467485
467719
467950
468183
468418
468656
468886
469122
469357
469592
469826
470058
470292
470527
470762
470996
471229
471466
471703
471938
472176
472412
472651
472887
473124
473363
473603
473841
474075
474314
474551
474787
475000
475257
475493
475726
475952
476182
476414
476650
476886
477124
477361
477597
477834
478068
478303
478537
478771
479007
479240
479476
479711
479947
480185
480418
480655
480891
481128
481363
481598
481833
482067
482300
482536
482769
483003
483236
483471
483707
483942
484178
484411
484645
484878
485112
485345
485577
485810
486042
486267
486495
486721
486948
487176
487404
487634
487862
488090
488320
488547
488778
489004
489234
489465
489694
489926
490157
490388
490620
490849
491081
491307
491535
491762
491988
492219
492451
492683
492917
493150
493387
493620
493854
494087
494320
494553
494787
495021
495256
495487
495721
495954
496187
496420
496652
496887
497121
497353
497591
497826
498062
498293
498532
498767
499003
499238
499473
499710
499945
500181
500420
500657
500894
501128
501363
501598
501835
502074
502312
502553
502793
503031
503267
503502
503740
503976
504211
504448
504686
504926
505162
505399
505637
505876
506112
506347
506584
506821
507056
507291
507526
507763
507998
508235
508474
508711
508949
509182
509420
509658
509893
510129
510365
510602
510838
511072
511309
511543
511777
512012
512247
512484
512720
512893
513076
513198
513306
513411
513674
513907
514125
514250
514357
514467
514584
514690
514795
515072
515212
515479
515714
515953
516190
516427
516667
516904
517141
517378
517617
517855
518090
518325
518562
518802
519039
519276
519515
519753
519992
520228
520467
520705
520943
521180
521415
521658
521879
522109
522339
522568
522798
523028
523258
523492
523724
523957
524186
524416
524646
524875
