peaks
75074
75273
75476
75677
75874
76076
76278
76483
76688
76889
77089
77287
77489
77687
77880
78077
78275
78476
78677
78876
79071
79267
79468
79671
79871
80073
80271
80466
80666
80865
81065
81265
81457
81653
81850
82053
82256
82458
82661
82865
83070
83271
83471
83672
83873
84074
84270
84464
84658
84859
85057
85256
85457
85660
85863
86058
86252
86451
86651
86850
87044
87244
87442
87639
87839
88034
88233
88432
88626
88823
89019
89213
89414
89614
89813
90010
90209
90411
90614
90810
91008
91206
91404
91592
91788
91981
92177
92372
92562
92757
92953
93149
93343
93540
93738
93936
94130
94326
94522
94721
94919
95112
95307
95508
95702
95893
96086
96277
96468
96658
96846
97034
97227
97424
97621
97811
98003
98200
98399
98592
98783
98982
99184
99380
99573
99771
99969
100165
100360
100562
100764
100967
101170
101371
101575
101778
101976
102174
102370
102569
102769
102968
103166
103364
103565
103767
103969
104163
104366
104569
104774
104972
105172
105378
105582
105783
105979
106179
106380
106578
106774
106972
107172
107367
107561
107758
107960
108163
108362
108562
108760
108963
109168
109368
109569
109768
109967
110160
110352
110546
110743
110938
111132
111328
111521
111716
111908
112102
112301
112499
112698
112892
113089
113289
113491
113691
113892
114095
114301
114506
114709
114908
115105
115312
115513
115710
115906
116108
116308
116508
116704
116900
117100
117298
117496
117690
117880
118074
118266
118462
118655
118850
119043
119242
119439
119633
119829
120024
120221
120419
120611
120800
120991
121186
121378
121568
121759
121950
122143
122338
122534
122728
122927
123124
123321
123522
123721
123917
124111
124308
124508
124710
124908
125104
125302
125499
125698
125898
126095
126287
126487
126684
126879
127074
127264
127457
127650
127845
128039
128232
128429
128622
128817
129011
129204
129400
129599
129796
129990
130182
130373
130565
130761
130957
131151
131345
131544
131736
131929
132120
132312
132507
132704
132908
133109
133308
133505
133705
133910
134110
134310
134507
134704
134903
135098
135293
135454
135677
135869
136061
136253
136441
136633
136825
137019
137209
137400
137596
137793
137994
138190
138386
138579
138770
138961
139150
139345
139549
139756
139959
140162
140369
140576
140781
140980
141182
141384
141584
141778
141972
142171
142369
142567
142765
142961
143160
143363
143567
143771
143970
144169
144366
144558
144746
144936
145127
145321
145511
145700
145889
146079
146270
146460
146650
146843
147036
147220
147400
147579
147768
147959
148154
148355
148560
148758
148957
149154
149352
149549
149746
149948
150157
150363
150569
150768
150972
151180
151382
151584
151783
151981
152182
152384
152581
152776
152975
153175
153373
153569
153761
153958
154157
154354
154552
154750
154948
155146
155343
155539
155735
155930
156132
156338
156547
156749
156943
157142
157351
157559
157768
157970
158160
158350
158531
158708
158891
159082
159281
159479
159679
159876
160075
160278
160480
160682
160879
161077
161273
161466
161655
161845
162040
162240
162447
162652
162856
163053
163247
163432
163616
163791
163961
164137
164310
164484
164654
164828
165000
165171
165354
165538
165730
165928
166129
166336
166543
166743
166947
167158
167368
167575
167776
167979
168186
168398
168613
168814
169020
169232
169443
169645
169846
170050
170255
170459
170652
170846
171037
171234
171436
171636
171838
172044
172250
172449
172648
172849
173049
173246
173446
173648
173850
174047
174250
174452
174653
174854
175058
175260
175458
175658
175861
176068
176272
176482
176685
176888
177093
177298
177503
177707
177904
178102
178300
178498
178693
178888
179079
179272
179469
179666
179868
180071
180267
180466
180667
180873
181082
181285
181485
181685
181886
182087
182283
182475
182668
182862
182971
183259
183447
183587
183832
184021
184208
184402
184599
184799
185007
185209
185414
185618
185820
186017
186212
186407
186591
186769
186954
187142
187334
187525
187715
187913
188113
188314
188511
188706
188906
189107
189308
189504
189699
189898
190098
190291
190486
190685
190883
191080
191283
191490
191695
191899
192097
192298
192501
192703
192899
193099
193301
193506
193709
193908
194103
194300
194502
194703
194900
195094
195299
195501
195706
195907
196106
196311
196517
196723
196925
197128
197328
197534
197739
197939
198140
198348
198553
198750
198953
199156
199363
199569
199769
199976
200184
200389
200593
200792
200992
201197
201406
201611
201806
202001
202203
202405
202603
202802
203003
203201
203399
203596
203796
203998
204201
204399
204598
204798
205002
205204
205410
205612
205816
206021
206229
206438
206642
206843
207046
207253
207458
207660
207861
208064
208268
208470
208667
208866
209067
209270
209473
209670
209864
210064
210264
210464
210663
210861
211062
211264
211465
211665
211862
212062
212263
212463
212666
212868
213069
213266
213464
213663
213863
214069
214268
214472
214672
214873
215074
215273
215473
215672
215873
216075
216272
216467
216666
216866
217063
217264
217468
217671
217877
218080
218282
218484
218687
218887
219087
219285
219485
219683
219882
220080
220275
220470
220663
220859
221054
221249
221444
221639
221840
222042
222241
222442
222643
222847
223047
223247
223445
223642
223844
224042
224239
224439
224642
224841
225041
225237
225435
225631
225827
226026
226222
226424
226629
226829
227032
227239
227445
227651
227852
228056
228262
228468
228672
228872
229075
229276
229477
229674
229869
230068
230270
230471
230670
230863
231059
231255
231452
231646
231842
232036
232230
232425
232621
232807
232986
233162
233353
233549
233744
233947
234153
234359
234563
234766
234969
235174
235375
235578
235776
235977
236170
236371
236569
236764
236958
237158
237358
237560
237760
237961
238163
238369
238572
238776
238977
239181
239383
239585
239789
239991
240191
240393
240597
240804
241005
241208
241413
241619
241824
242027
242232
242437
242643
242848
243053
243255
243459
243664
243867
244068
244269
244466
244663
244851
245040
245240
245461
245676
245891
246106
246318
246528
246736
246941
247146
247345
247544
247744
247944
248147
248351
248556
248756
248952
249154
249356
249560
249760
249955
250147
250341
250539
250739
250941
251146
251343
251533
251721
251913
252113
252303
252491
252680
252866
253060
253254
253445
253633
253816
253995
254168
254344
254521
254703
254887
255070
255251
255436
255617
255801
255986
256168
256344
256519
256693
256865
257035
257215
257394
257564
257734
257907
258080
258253
258424
258595
258764
258932
259106
259279
259448
259615
259787
259960
260134
260306
260473
260640
260806
260975
261137
261302
261467
261630
261794
261955
262115
262270
262423
262573
262726
262875
263025
263176
263329
263481
263632
263784
263936
264089
264242
264394
264548
264703
264857
265010
265160
265316
265470
265621
265771
265922
266076
266229
266384
266543
266705
266867
267029
267193
267357
267525
267691
267860
268038
268218
268399
268574
268763
268943
269121
269303
269489
269666
269839
270009
270181
270350
270518
270684
270857
271028
271200
271371
271541
271714
271887
272059
272233
272407
272581
272754
272926
273100
273275
273447
273616
273786
273956
274123
274294
274463
274637
274811
274985
275159
275326
275494
275663
275831
275998
276167
276341
276515
276685
276854
277027
277204
277379
277557
277738
277917
278095
278273
278452
278632
278808
278982
279161
279339
279517
279691
279868
280048
280233
280420
280606
280786
280973
281160
281350
281536
281722
281907
282092
282278
282459
282641
282823
283006
283187
283363
283537
283710
283877
284041
284200
284362
284531
284701
284872
285039
285211
285384
285562
285736
285905
286084
286259
286437
286609
286777
286945
287114
287293
287467
287643
287812
287988
288173
288353
288545
288732
288925
289116
289298
289473
289648
289815
289980
290150
290328
290504
290670
290840
291009
291180
291354
291526
291701
291883
292057
292237
292423
292613
292798
292983
293164
293348
293530
293711
293893
294076
294256
294435
294614
294792
294971
295147
295325
295501
295675
295850
296020
296192
296363
296532
296698
296862
297028
297194
297358
297521
297685
297851
298019
298188
298352
298518
298683
298846
299011
299175
299341
299508
299674
299839
300005
300172
300341
300506
300666
300829
300997
301163
301327
301491
301656
301822
301989
302155
302319
302486
302655
302822
302989
303154
303322
303492
303660
303827
303991
304162
304333
304502
304670
304836
305001
305167
305330
305490
305652
305817
305984
306149
306314
306478
306638
306797
306962
307124
307284
307440
307592
307749
307906
308060
308221
308389
308558
308728
308896
309077
309247
309414
309585
309759
309931
310100
310273
310447
310618
310791
310970
311146
311318
311487
311662
311831
312003
312170
312341
312516
312688
312859
313027
313197
313379
313565
313748
313928
314108
314285
314458
314628
314803
314975
315145
315314
315480
315648
315815
315978
316142
316308
316472
316634
316792
316950
317104
317259
317419
317577
317733
317890
318050
318211
318372
318534
318696
318861
319026
319187
319347
319510
319672
319833
319990
320149
320309
320465
320621
320776
320935
321094
321253
321410
321570
321729
321886
322045
322208
322373
322534
322699
322865
323029
323195
323359
323529
323696
323863
324033
324205
324369
324533
324693
324850
325009
325178
325347
325513
325677
325848
326015
326180
326355
326525
326696
326872
327048
327216
327395
327569
327734
327907
328075
328241
328409
328581
328751
328916
329089
329262
329436
329611
329784
329961
330139
330316
330495
330670
330850
331030
331209
331385
331560
331737
331911
332084
332258
332431
332603
332773
332942
333113
333280
333443
333607
333772
333939
334109
334282
334454
334630
334804
334975
335152
335334
335509
335678
335855
336032
336205
336376
336499
336731
336900
337075
337242
337412
337578
337751
337940
338129
338317
338505
338696
338884
339066
339249
339434
339625
339822
340014
340207
340402
340594
340789
340978
341168
341363
341552
341735
341919
342105
342289
342471
342657
342845
343033
343222
343413
343606
343798
343990
344181
344376
344572
344764
344959
345156
345361
345553
345744
345934
346124
346313
346501
346692
346883
347071
347264
347459
347650
347839
348037
348237
348437
348634
348827
349022
349217
349412
349597
349784
349970
350158
350343
350531
350719
350904
351088
351279
351470
351657
351844
352034
352228
352416
352602
352788
352977
353163
353347
353540
353730
353915
354106
354295
354488
354675
354866
355056
355246
355434
355626
355821
356014
356205
356398
356590
356778
356969
357160
357354
357546
357738
357932
358126
358316
358505
358702
358898
359091
359284
359479
359675
359866
360058
360251
360447
360638
360824
361021
361214
361403
361591
361784
361974
362161
362350
362544
362737
362927
363117
363309
363498
363685
363875
364067
364257
364444
364630
364812
364993
365174
365358
365542
365723
365904
366090
366276
366456
366641
366828
367010
367192
367378
367566
367754
367935
368117
368300
368484
368669
368852
369035
369222
369413
369601
369792
369979
370169
370359
370544
370730
370920
371112
371298
371485
371675
371858
372037
372216
372401
372538
372752
372920
373091
373260
373434
373613
373798
373982
374167
374363
374560
374759
374949
375148
375350
375551
375748
375949
376156
376365
376567
376760
376958
377155
377351
377545
377739
377939
378142
378283
378553
378742
378931
379121
379315
379504
379695
379892
380095
380294
380490
380690
380892
381038
381303
381495
381688
381879
382069
382262
382458
382657
382851
383048
383252
383458
383660
383856
384055
384256
384452
384648
384841
385031
385219
385400
385581
385762
385946
386131
386311
386493
386677
386861
387043
387224
387399
387569
387737
387908
388074
388231
388388
388549
388716
388880
389050
389227
389401
389581
389758
389937
390110
390282
390451
390617
390786
390956
391128
391298
391463
391630
391798
391973
392149
392326
392503
392680
392857
393029
393202
393383
393566
393748
393931
394112
394295
394472
394651
394829
395010
395189
395365
395540
395719
395899
396077
396250
396426
396602
396779
396954
397128
397304
397483
397661
397836
398008
398185
398359
398537
398711
398885
399061
399238
399415
399595
399774
399953
400134
400312
400488
400665
400846
401027
401206
401386
401568
401750
401934
402118
402300
402485
402669
402855
403040
403226
403410
403595
403780
403970
404163
404354
404547
404737
404929
405126
405319
405515
405711
405909
406103
406297
406487
406681
406878
407072
407266
407461
407652
407845
408039
408234
408428
408619
408810
409003
409193
409384
409574
409771
409964
410157
410350
410543
410734
410925
411118
411311
411505
411700
411889
412085
412275
412461
412648
412829
413008
413196
413378
413561
413750
413935
414121
414315
414524
414735
414954
415168
415380
415590
415799
416004
416215
416432
416643
416861
417082
417303
417523
417743
417964
418175
418389
418596
418794
418993
419201
419406
419612
419813
420003
420187
420382
420590
420803
421021
421237
421454
421665
421878
422101
422319
422533
422751
422965
423176
423394
423608
423823
424039
424255
424472
424681
424893
425097
425307
425514
425720
425925
426126
426328
426531
426741
426955
427173
427388
427600
427802
428008
428216
428423
428633
428842
429063
429285
429496
429701
429910
430120
430324
430536
430749
430960
431175
431382
431586
431785
431983
432184
432388
432593
432801
433004
433207
433407
433606
433798
433999
434202
434419
434643
434863
435088
435311
435531
435744
435957
436168
436393
436613
436831
437042
437252
437458
437662
437874
438091
438297
438480
438673
438858
439038
439217
439398
439576
439750
439926
440107
440288
440467
440660
440844
441024
441206
441391
441572
441754
441935
442111
442289
442475
442655
442834
443011
443214
443405
443578
443751
443927
444110
444297
444479
444671
444867
445060
445258
445455
445653
445851
446048
446245
446438
446631
446817
447004
447188
447368
447546
447722
447894
448068
448242
448413
448584
448754
448923
449091
449260
449430
449600
449770
449941
450111
450282
450456
450626
450796
450965
451134
451304
451471
451640
451810
451982
452157
452328
452501
452670
452841
453015
453187
453358
453533
453704
453875
454046
454216
454386
454553
454721
454883
455047
455209
455367
455526
455683
455841
455998
456164
456328
456492
456665
456837
457009
457179
457361
457537
457715
457891
458066
458242
458418
458589
458758
458926
459093
459264
459436
459606
459777
459951
460126
460294
460463
460627
460792
460961
461134
461306
461477
461651
461823
461994
462166
462335
462506
462677
462846
463019
463191
463361
463532
463702
463872
464046
464217
464384
464553
464718
464882
465047
465210
465374
465538
465705
465872
466038
466206
466376
466550
466722
466895
467069
467241
467416
467590
467767
467942
468117
468295
468472
468644
468817
468992
469165
469342
469518
469699
469881
470060
470243
470424
470600
470779
470961
471142
471327
471510
471697
471880
472060
472240
472423
472603
472786
472963
473134
473305
473476
473650
473823
473999
474174
474348
474520
474690
474864
475043
475224
475401
475574
475745
475918
476088
476259
476440
476619
476796
476977
477159
477346
477529
477712
477897
478075
478263
478446
478628
478812
478996
479181
479368
479549
479736
479919
480101
480278
480455
480631
480808
480984
481156
481329
481498
481671
481835
482011
482177
482347
482514
482684
482862
483037
483220
483406
483593
483775
483956
484134
484311
484491
484668
484844
485017
485186
485353
485524
485691
485859
486024
486197
486369
486543
486720
486888
487067
487234
487406
487573
487738
487908
488082
488264
488443
488623
488806
488994
489170
489355
489536
489716
489893
490071
490247
490423
490601
490776
490953
491134
491314
491490
491670
491851
492034
492213
492394
492575
492755
492931
493106
493283
493459
493633
493806
493984
494161
494339
494519
494700
494876
495056
495236
495414
495590
495769
495951
496129
496310
496490
496673
496857
497040
497225
497411
497596
497782
497971
498158
498346
498531
498716
498901
499086
499269
499450
499628
499805
499985
500164
500339
500518
500699
500877
501051
501230
501406
501584
501762
501948
502131
502310
502491
502664
502842
503016
503195
503378
503562
503749
503933
504122
504311
504497
504679
504860
505043
505222
505376
505587
505761
505931
506100
506264
506427
506595
506765
506936
507110
507288
507465
507639
507819
507999
508175
508349
508527
508702
508877
509051
509227
509400
509567
509691
509918
510088
510262
510429
510598
510771
510943
511111
511286
511445
511634
511806
511977
512152
512288
512499
512671
512808
513017
513186
513357
513518
513684
513848
514012
514172
514333
514496
514658
514821
514993
515164
515329
515499
515668
515838
516004
516176
516344
516510
516677
516848
517027
517204
517377
517553
517727
517895
518067
518242
518410
518577
518748
518916
519086
519256
519425
519591
519760
519929
520094
520261
520426
520590
520754
520922
521090
521256
521424
521587
521750
521913
522074
522238
522404
522565
522726
522896
523063
523227
523394
523562
523725
523895
524061
524191
524400
524563
524728
524861
