peaks
75072
75184
75301
75417
75533
75651
75766
75883
76006
76126
76244
76361
76477
76593
76709
76825
76944
77061
77182
77303
77425
77548
77668
77786
77907
78026
78144
78266
78387
78508
78630
78733
78871
78990
79107
79220
79343
79463
79565
79704
79826
79947
80069
80190
80310
80429
80547
80668
80788
80909
81029
81146
81271
81391
81512
81630
81752
81871
81991
82108
82231
82353
82474
82595
82706
82839
82961
83080
83206
83328
83445
83568
83692
83812
83931
84054
84174
84295
84417
84540
84662
84791
84918
85040
85167
85291
85414
85540
85666
85789
85917
86044
86172
86299
86426
86551
86676
86800
86923
87044
87170
87294
87414
87538
87666
87792
87918
88042
88173
88299
88432
88566
88697
88779
88953
89083
89208
89337
89471
89599
89727
89856
89982
90113
90239
90365
90494
90624
90755
90893
91031
91167
91309
91442
91583
91720
91853
91990
92124
92263
92401
92532
92667
92804
92935
93060
93189
93322
93452
93582
93713
93844
93973
94102
94230
94357
94484
94613
94742
94871
95000
95128
95257
95385
95512
95638
95764
95889
96014
96140
96264
96387
96514
96639
96758
96895
97028
97163
97301
97441
97584
97727
97868
98006
98148
98286
98423
98558
98689
98827
98959
99089
99219
99348
99476
99599
99731
99860
99990
100120
100249
100374
100502
100634
100761
100888
101017
101140
101269
101399
101532
101660
101784
101916
102044
102172
102296
102428
102556
102685
102814
102942
103077
103208
103341
103469
103604
103732
103865
103990
104122
104245
104375
104481
104635
104767
104899
105031
105155
105290
105416
105549
105679
105809
105939
106081
106214
106355
106489
106629
106764
106896
107028
107162
107295
107426
107564
107698
107830
107960
108088
108213
108339
108464
108591
108719
108849
108978
109062
109242
109371
109505
109635
109768
109897
110034
110169
110302
110440
110576
110708
110841
110975
111108
111241
111372
111507
111636
111760
111887
112020
112155
112289
112424
112559
112695
112825
112963
113097
113230
113359
113497
113632
113761
113899
113984
114157
114281
114412
114538
114665
114791
114924
115054
115192
115328
115467
115605
115748
115886
116022
116153
116293
116422
116555
116693
116822
116954
117084
117215
117343
117471
117608
117739
117869
117998
118124
118252
118379
118505
118631
118755
118882
119008
119129
119255
119383
119509
119636
119763
119890
120017
120138
120270
120392
120519
120638
120764
120887
121010
121135
121257
121386
121505
121634
121758
121880
122004
122096
122262
122387
122518
122649
122778
122907
123033
123156
123287
123411
123543
123672
123801
123928
124060
124190
124320
124450
124576
124710
124793
124970
125098
125227
125356
125485
125610
125747
125877
126004
126134
126268
126398
126529
126658
126786
126914
127037
127165
127296
127422
127554
127681
127803
127933
128063
128190
128316
128443
128572
128700
128830
128960
129086
129212
129337
129457
129586
129703
129834
129958
130083
130208
130332
130456
130581
130705
130826
130956
131082
131209
131335
131461
131588
131714
131838
131963
132086
132209
132329
132457
132581
132700
132829
132952
133077
133201
133327
133453
133584
133718
133853
133989
134122
134253
134380
134512
134640
134768
134892
135026
135151
135283
135412
135541
135666
135793
135924
136052
136184
136316
136450
136581
136712
136842
136970
137098
137227
137355
137481
137612
137745
137871
138003
138133
138260
138387
138515
138642
138769
138892
139021
139153
139283
139413
139545
139673
139815
139948
140088
140223
140363
140494
140627
140766
140900
141033
141166
141300
141432
141565
141697
141829
141957
142089
142226
142360
142492
142630
142764
142896
143027
143153
143284
143412
143536
143665
143798
143927
144057
144187
144313
144443
144575
144707
144844
144976
145117
145252
145390
145534
145671
145809
145940
146075
146213
146353
146485
146619
146753
146879
147020
147150
147278
147403
147540
147667
147796
147929
148014
148187
148315
148441
148561
148686
148813
148937
149056
149175
149302
149422
149538
149661
149779
149904
150022
150134
150270
150391
150511
150628
150751
150871
150991
151112
151234
151357
151479
151606
151736
151863
151990
152118
152245
152373
152501
152630
152760
152888
153015
153138
153265
153395
153523
153653
153783
153909
154044
154170
154298
154424
154559
154688
154817
154947
155078
155206
155340
155470
155596
155722
155852
155978
156104
156230
156355
156483
156604
156731
156850
156967
157095
157225
157350
157474
157601
157726
157854
157985
158113
158238
158365
158493
158620
158749
158879
159009
159135
159262
159388
159514
159634
159760
159889
160016
160145
160274
160404
160534
160664
160794
160923
161054
161185
161317
161445
161579
161710
161839
161965
162091
162222
162347
162472
162594
162721
162841
162965
163084
163206
163328
163449
163569
163689
163809
163935
164052
164176
164293
164412
164530
164648
164766
164888
165005
165127
165241
165361
165481
165598
165714
165828
165949
166063
166184
166298
166419
166537
166654
166775
166891
167004
167123
167234
167356
167473
167592
167706
167825
167943
168064
168179
168294
168409
168522
168637
168753
168866
168987
169100
169222
169336
169453
169568
169687
169804
169918
170035
170152
170267
170384
170501
170617
170733
170849
170966
171079
171205
171323
171441
171556
171679
171797
171909
172030
172142
172260
172382
172498
172616
172735
172854
172976
173089
173211
173325
173441
173562
173680
173795
173915
174030
174147
174262
174382
174495
174610
174731
174844
174961
175079
175198
175319
175432
175549
175666
175781
175896
176012
176126
176247
176363
176479
176595
176708
176824
176938
177058
177173
177283
177403
177518
177633
177750
177865
177977
178093
178210
178322
178442
178555
178676
178793
178909
179027
179144
179267
179386
179500
179623
179742
179864
179985
180106
180230
180349
180467
180592
180712
180832
180949
181039
181190
181313
181434
181557
181683
181800
181926
182045
182163
182279
182401
182520
182639
182760
182880
182999
183114
183231
183351
183468
183584
183703
183817
183936
184058
184176
184294
184412
184529
184646
184763
184880
184994
185112
185229
185351
185470
185588
185708
185827
185942
186065
186183
186307
186426
186551
186675
186793
186914
187036
187161
187279
187405
187529
187653
187775
187897
188018
188138
188257
188377
188497
188619
188741
188864
188988
189111
189225
189355
189473
189592
189717
189839
189960
190084
190215
190342
190469
190596
190720
190842
190962
191089
191212
191343
191471
191601
191731
191861
191992
192117
192251
192381
192508
192641
192768
192897
193030
193160
193289
193418
193547
193676
193805
193934
194059
194191
194315
194448
194576
194699
194829
194957
195087
195217
195349
195481
195613
195746
195879
196012
196144
196284
196422
196556
196697
196834
196969
197103
197234
197372
197507
197642
197783
197922
198060
198196
198331
198465
198598
198729
198865
199005
199137
199276
199412
199546
199680
199812
199945
200074
200209
200342
200474
200606
200738
200867
201002
201135
201269
201402
201532
201667
201796
201930
202057
202192
202325
202457
202590
202722
202849
202976
203104
203233
203353
203480
203604
203730
203856
203979
204109
204236
204356
204483
204608
204729
204855
204980
205106
205238
205364
205494
205619
205749
205875
205999
206123
206249
206373
206494
206622
206743
206869
206989
207111
207238
207360
207484
207611
207736
207863
207990
208117
208243
208369
208496
208623
208749
208875
209002
209127
209253
209377
209500
209625
209751
209879
210006
210135
210264
210388
210518
210644
210764
210888
211011
211138
211260
211386
211516
211644
211770
211899
212026
212154
212283
212413
212546
212678
212813
212948
213081
213210
213344
213473
213601
213727
213852
213984
214069
214241
214369
214503
214633
214762
214892
215022
215152
215284
215415
215545
215674
215755
215931
216061
216191
216321
216450
216580
216705
216837
216964
217091
217218
217347
217477
217611
217747
217885
218024
218163
218299
218435
218569
218681
218841
218978
219112
219254
219392
219529
219664
219799
219935
220071
220207
220344
220480
220617
220753
220888
221022
221156
221288
221425
221559
221694
221831
221967
222103
222242
222368
222457
222642
222780
222914
223043
223180
223305
223439
223569
223696
223829
223957
224086
224214
224336
224462
224590
224712
224832
224958
225082
225203
225332
225458
225581
225710
225837
225960
226090
226214
226342
226478
226610
226744
226872
227004
227133
227260
227387
227514
227641
227750
227896
228024
228152
228275
228407
228535
228661
228787
228915
229043
229167
229297
229420
229546
229678
229800
229930
230057
230181
230308
230440
230568
230696
230821
230953
231085
231214
231346
231476
231607
231733
231866
231995
232121
232246
232373
232501
232629
232760
232892
233019
233153
233279
233412
233539
233663
233793
233926
234052
234187
234321
234453
234579
234710
234839
234966
235095
235226
235357
235490
235620
235757
235892
236023
236157
236293
236396
236555
236689
236819
236949
237080
237210
237341
237471
237602
237733
237862
237992
238123
238251
238379
238504
238627
238760
238889
239020
239151
239283
239412
239541
239674
239804
239934
240065
240193
240330
240462
240595
240722
240854
240983
241109
241235
241368
241499
241629
241759
241893
242024
242152
242280
242409
242538
242667
242797
242930
243063
243193
243328
243460
243591
243721
243851
243984
244116
244248
244381
244512
244643
244770
244902
245031
245159
245286
245415
245543
245670
245798
245923
246048
246174
246300
246426
246554
246682
246811
246940
247069
247197
247323
247455
247583
247719
247848
247981
248115
248245
248372
248501
248632
248760
248887
249016
249145
249274
249403
249531
249656
249782
249907
250023
250155
250278
250398
250526
250652
250777
250900
251031
251160
251292
251426
251556
251689
251830
251964
252095
252229
252365
252496
252624
252758
252892
253026
253160
253290
253419
253549
253677
253805
253932
254059
254185
254311
254436
254563
254684
254813
254939
255063
255194
255320
255449
255579
255709
255841
255965
256097
256224
256346
256478
256603
256733
256862
256992
257121
257247
257379
257508
257636
257763
257891
258021
258151
258277
258406
258532
258654
258781
258904
259034
259161
259289
259418
259546
259672
259800
259927
260051
260176
260310
260438
260569
260698
260821
260954
261080
261204
261333
261460
261588
261715
261839
261970
262097
262224
262350
262434
262603
262729
262861
262988
263120
263243
263374
263500
263627
263751
263876
263997
264120
264252
264375
264506
264633
264756
264886
265009
265134
265267
265393
265518
265645
265776
266166
266296
266422
266555
266687
266814
266948
267078
267201
267336
267460
267585
267716
267840
267970
268098
268223
268350
268477
268601
268720
268843
268969
269091
269213
269332
269459
269583
269706
269826
269950
270074
270199
270329
270457
270577
270710
270838
270966
271091
271215
271339
271463
271588
271715
271845
271974
272104
272232
272360
272486
272611
272733
272861
272985
273111
273235
273366
273491
273612
273737
273861
273990
274116
274243
274370
274498
274617
274751
274877
275007
275133
275259
275383
275511
275637
275764
275890
276016
276142
276268
276394
276518
276648
276775
276904
277029
277163
277291
277420
277545
277677
277800
277933
278061
278190
278316
278442
278567
278692
278816
278941
279065
279187
279314
279440
279565
279683
279812
279933
280055
280177
280297
280422
280547
280672
280797
280922
281049
281173
281297
281421
281547
281671
281793
281918
282046
282170
282298
282428
282551
282678
282796
282923
283043
283169
283289
283415
283535
283658
283783
283906
284029
284151
284274
284394
284520
284644
284773
284895
285023
285146
285270
285395
285511
285640
285769
285894
286019
286142
286270
286395
286515
286645
286773
286896
287028
287151
287283
287405
287535
287657
287786
287908
288039
288165
288298
288424
288555
288678
288808
288933
289059
289183
289310
289437
289570
289699
289828
289954
290076
290205
290328
290452
290577
290703
290827
290954
291089
291218
291344
291472
291601
291732
291860
291993
292123
292260
292392
292525
292658
292792
292922
293058
293187
293321
293451
293582
293711
293838
293964
294091
294216
294344
294469
294604
294728
294853
294983
295105
295232
295358
295485
295614
295746
295876
296011
296140
296265
296392
296519
296647
296773
296905
297021
297162
297291
297421
297551
297675
297802
297933
298062
298190
298318
298448
298574
298704
298831
298953
299077
299199
299324
299446
299569
299693
299816
299945
300071
300197
300323
300445
300575
300699
300828
300955
301083
301211
301334
301461
301589
301713
301837
301961
302084
302207
302330
302453
302574
302695
302816
302936
303056
303177
303298
303426
303551
303673
303799
303922
304049
304168
304296
304420
304544
304670
304793
304920
305051
305173
305297
305423
305549
305675
305806
305930
306057
306188
306312
306441
306571
306700
306828
306957
307088
307223
307359
307494
307629
307764
307899
308033
308168
308301
308436
308518
308701
308833
308958
309084
309215
309342
309463
309591
309716
309847
309975
310100
310232
310356
310484
310615
310745
310874
311001
311135
311259
311390
311521
311648
311777
311902
312035
312164
312295
312423
312557
312686
312813
312934
313063
313187
313312
313433
313563
313690
313812
313939
314067
314194
314317
314447
314572
314697
314822
314950
315078
315204
315331
315458
315585
315712
315839
315969
316098
316187
316356
316483
316615
316733
316868
316995
317123
317250
317377
317505
317631
317754
317883
318008
318133
318258
318381
318512
318636
318764
318893
319020
319149
319271
319396
319522
319647
319777
319904
320033
320157
320287
320415
320538
320669
320795
320921
321048
321173
321302
321426
321552
321681
321802
321924
322051
322174
322298
322418
322543
322665
322794
322913
323037
323164
323284
323407
323535
323660
323786
323914
324043
324170
324300
324430
324561
324694
324826
324958
325089
325219
325349
325479
325603
325731
325864
325992
326128
326260
326389
326521
326650
326778
326908
327034
327155
327282
327413
327537
327671
327796
327926
328056
328184
328307
328435
328561
328684
328810
328941
329069
329195
329327
329454
329577
329696
329831
329953
330082
330209
330333
330463
330589
330711
330835
330962
331089
331215
331340
331470
331594
331724
331856
331983
332118
332247
332384
332517
332651
332784
332914
333046
333181
333313
333443
333576
333710
333841
333973
334103
334235
334358
334484
334615
334742
334865
334998
335125
335258
335390
335525
335653
335787
335917
336044
336178
336305
336439
336567
336702
336832
336956
337083
337211
337339
337461
337588
337717
337841
337973
338103
338230
338358
338486
338618
338747
338876
339005
339140
339268
339405
339538
339671
339803
339938
340071
340203
340335
340467
340597
340725
340852
340978
341105
341232
341354
341485
341606
341732
341859
341982
342100
342219
342344
342461
342583
342710
342833
342956
343079
343196
343321
343443
343560
343682
343808
343933
344060
344185
344317
344446
344572
344706
344836
344968
345102
345239
345376
345514
345651
345792
345930
346066
346203
346339
346475
346611
346746
346881
347018
347149
347288
347427
347567
347701
347841
347955
348125
348262
348396
348531
348665
348793
348928
349061
349187
349320
349448
349576
349704
349826
349955
350083
350217
350343
350472
350605
350732
350859
350985
351111
351238
351365
351494
351625
351755
351885
352013
352141
352268
352394
352521
352647
352774
352902
353032
353160
353290
353420
353548
353673
353805
353934
354063
354192
354280
354451
354581
354710
354832
354958
355083
355212
355337
355461
355596
355723
355854
355986
356117
356248
356378
356515
356647
356775
356911
357042
357168
357297
357426
357558
357687
357817
357947
358078
358207
358334
358463
358590
358717
358844
358966
359102
359234
359368
359501
359633
359763
359892
360016
360144
360273
360397
360523
360656
360781
360908
361037
361168
361292
361420
361545
361679
361800
361937
362065
362187
362321
362446
362577
362700
362830
362959
363087
363212
363343
363467
363597
363725
363854
363978
364108
364236
364360
364491
364616
364739
364867
364990
365113
365239
365364
365487
365618
365742
365874
365995
366125
366254
366379
366504
366629
366752
366879
367011
367134
367263
367387
367508
367635
367760
367882
368011
368140
368265
368396
368532
368660
368792
368921
369051
369178
369305
369438
369568
369698
369824
369953
370085
370209
370337
370463
370590
370718
370849
370976
371101
371234
371362
371490
371619
371749
371880
372007
372146
372273
372408
372538
372674
372805
372937
373065
373196
373331
373460
373590
373717
373842
373966
374088
374217
374343
374470
374597
374723
374851
374974
375097
375220
375338
375463
375587
375708
375831
375952
376077
376196
376318
376438
376553
376676
376791
376915
377035
377155
377274
377393
377512
377629
377746
377862
377979
378095
378209
378324
378440
378560
378676
378789
378908
379021
379142
379258
379374
379492
379609
379726
379839
379958
380072
380192
380309
380426
380544
380658
380780
380895
381014
381134
381250
381364
381482
381597
381714
381831
381945
382065
382183
382305
382418
382538
382654
382765
382882
382996
383111
383226
383341
383459
383575
383693
383808
383923
384036
384121
384262
384373
384487
384599
384711
384826
384939
385052
385160
385268
385380
385491
385604
385711
385821
385935
386045
386157
386268
386378
386488
386594
386707
386812
386925
387035
387140
387251
387339
387475
387581
387691
387800
387915
388025
388136
388246
388357
388468
388579
388692
388800
388913
389027
389136
389252
389365
389476
389593
389708
389822
389936
390046
390163
390273
390387
390499
390613
390731
390846
390961
391075
391191
391301
391414
391532
391645
391757
391872
391986
392103
392222
392344
392468
392594
392720
392846
392970
393096
393222
393348
393475
393603
393733
393857
393987
394113
394238
394357
394488
394613
394739
394862
394991
395117
395243
395368
395494
395619
395742
395872
395999
396123
396252
396385
396511
396642
396768
396891
397020
397146
397267
397395
397520
397645
397766
397893
398016
398138
398261
398386
398509
398640
398767
398895
399021
399147
399272
399393
399520
399650
399779
399909
400038
400167
400288
400418
400543
400667
400781
400915
401041
401167
401293
401419
401545
401670
401794
401919
402042
402166
402288
402413
402536
402661
402785
402904
403030
403150
403275
403397
403520
403643
403766
403848
404012
404135
404250
404378
404499
404619
404740
404862
404986
405110
405234
405360
405484
405609
405733
405858
405979
406103
406203
406357
406481
406606
406728
406853
406972
407098
407220
407343
407466
407588
407710
407831
407952
408039
408192
408312
408428
408548
408670
408785
408906
409028
409153
409274
409396
409517
409640
409767
409896
410021
410154
410281
410411
410541
410667
410792
410916
411040
411165
411292
411418
411542
411667
411790
411912
412031
412151
412271
412391
412511
412634
412757
412882
413005
413130
413252
413379
413504
413629
413755
413876
413999
414128
414254
414377
414498
414620
414740
414862
414986
415109
415231
415354
415475
415596
415713
415836
415952
416070
416195
416313
416439
416564
416685
416811
416937
417067
417195
417325
417453
417581
417708
417836
417963
418088
418214
418338
418462
418588
418713
418840
418967
419051
419214
419345
419469
419594
419718
419837
419959
420087
420211
420333
420453
420579
420702
420825
420949
421069
421194
421318
421443
421574
421701
421829
421958
422086
422215
422344
422472
422602
422727
422858
422981
423112
423238
423363
423488
423614
423739
423865
423989
424111
424234
424358
424482
424602
424722
424841
424961
425085
425210
425334
425456
425583
425702
425827
425947
426066
426185
426305
426421
426535
426666
426787
426910
427030
427150
427269
427383
427507
427626
427746
427869
427990
428113
428239
428364
428488
428613
428737
428860
428988
429112
429236
429360
429478
429603
429723
429848
429966
430088
430211
430339
430460
430589
430714
430834
430960
431088
431209
431339
431466
431600
431728
431854
431978
432106
432233
432359
432486
432614
432742
432871
432999
433126
433251
433373
433495
433615
433732
433853
433977
434096
434220
434349
434476
434559
434736
434861
434992
435116
435243
435375
435505
435632
435762
435891
436019
436145
436270
436395
436521
436644
436772
436899
437027
437155
437282
437406
437540
437668
437797
437926
438056
438184
438313
438441
438569
438698
438829
438940
439094
439226
439359
439491
439622
439752
439883
440015
440147
440281
440418
440555
440692
440778
440963
441098
441230
441362
441495
441623
441762
441898
442029
442166
442298
442429
442561
442694
442827
442963
443099
443233
443374
443512
443649
443782
443916
444050
444185
444319
444454
444590
444725
444861
444997
445133
445269
445404
445541
445678
445816
445954
446093
446233
446375
446517
446658
446798
446937
447075
447212
447347
447482
447617
447751
447887
448023
448153
448292
448425
448559
448692
448824
448962
449098
449233
449377
449517
449657
449796
449935
450073
450213
450352
450491
450629
450767
450907
451048
451187
451324
451460
451596
451735
451876
452016
452159
452305
452455
452607
452759
452913
453070
453226
453380
453530
453676
453821
453965
454108
454249
454390
454532
454671
454809
454946
455083
455220
455358
455497
455635
455774
455912
456046
456183
456319
456452
456590
456727
456865
457004
457141
457276
457406
457544
457677
457812
457946
458080
458216
458354
458490
458624
458760
458894
459024
459162
459296
459431
459566
459702
459837
459973
460108
460245
460381
460518
460656
460794
460933
461071
461209
461348
461485
461621
461756
461845
462023
462158
462292
462426
462560
462695
462831
462967
463106
463247
463387
463528
463672
463815
463957
464098
464238
464376
464521
464657
464799
464933
465067
465199
465326
465459
465589
465719
465850
465981
466112
466240
466368
466493
466619
466741
466872
467001
467131
467257
467392
467524
467655
467787
467921
468053
468193
468330
468468
468607
468745
468883
469019
469154
469289
469423
469558
469693
469827
469960
470092
470224
470357
470491
470627
470762
470899
471036
471172
471307
471440
471573
471679
471841
471977
472113
472250
472388
472525
472662
472799
472935
473073
473211
473350
473491
473632
473772
473913
474053
474194
474335
474475
474616
474759
474900
475041
475180
475318
475454
475589
475724
475859
475994
476129
476265
476402
476538
476672
476807
476942
477076
477211
477346
477482
477617
477754
477889
478025
478161
478298
478436
478573
478712
478849
478986
479123
479261
479398
479537
479676
479815
479954
480092
480230
480365
480495
480633
480769
480907
481043
481182
481321
481411
481593
481728
481861
481993
482125
482259
482394
482530
482667
482803
482939
483073
483213
483351
483489
483630
483772
483910
484053
484191
484328
484465
484601
484733
484868
485008
485145
485282
485419
485556
485692
485828
485965
486103
486241
486378
486516
486650
486789
486926
487062
487199
487336
487473
487611
487749
487888
488026
488166
488305
488444
488583
488722
488861
488999
489136
489273
489410
489546
489681
489818
489956
490094
490231
490369
490506
490643
490779
490918
491057
491198
491339
491482
491624
491766
491871
492043
492182
492319
492455
492591
492726
492864
493004
493143
493283
493422
493561
493702
493842
493982
494121
494260
494397
494535
494672
494812
494950
495090
495233
495375
495517
495659
495802
495943
496084
496225
496366
496506
496644
496781
496917
497053
497187
497322
497458
497595
497731
497869
498005
498097
498278
498415
498551
498687
498824
498961
499097
499233
499367
499501
499637
499771
499906
500043
500182
500320
500459
500597
500733
500867
500998
501131
501269
501400
501539
501675
501813
501948
502081
502214
502346
502477
502609
502743
502878
503013
503148
503282
503417
503551
503685
503816
503949
504084
504217
504352
504487
504622
504759
504897
505030
505172
505310
505449
505588
505726
505863
505999
506134
506269
506404
506541
506676
506809
506943
507077
507210
507342
507475
507610
507746
507884
508021
508158
508294
508428
508562
508697
508832
508968
509106
509245
509381
509516
509649
509781
509911
510042
510174
510306
510439
510572
510706
510838
510970
511100
511230
511360
511491
511623
511756
511889
512021
512155
512287
512421
512553
512686
512820
512952
513085
513218
513349
513480
513611
513697
513870
514001
514130
514260
514390
514520
514650
514780
514909
515038
515168
515299
515431
515563
515695
515828
515961
516093
516225
516355
516485
516615
516747
516879
517011
517144
517277
517409
517540
517672
517805
517937
518072
518208
518345
518481
518615
518748
518881
519012
519145
519278
519413
519547
519682
519815
519947
520078
520209
520340
520471
520603
520737
520872
521007
521143
521279
521416
521553
521691
521830
521923
522108
522247
522385
522521
522657
522794
522930
523066
523203
523338
523473
523608
523742
523876
524008
524142
524276
524411
524546
524680
524813
524945
