peaks
75167
75432
75573
75940
76195
76474
76724
76989
77291
77540
77836
78085
78391
78640
78907
79174
79432
79561
79936
80207
80467
80725
80989
81246
81519
81780
82144
82488
82818
83084
83350
83617
83872
84133
84382
84641
84902
85166
85432
85671
85951
86196
86458
86601
86963
87231
87483
87739
87993
88238
88521
88767
89097
89361
89687
89951
90223
90514
90758
91057
91304
91572
91942
92293
92634
92934
93190
93448
93717
93971
94258
94508
94795
95066
95332
95648
95900
96208
96468
96730
97035
97280
97567
97817
98085
98427
98688
99019
99270
99565
99810
100076
100341
100587
100852
101112
101393
101653
101907
102198
102445
102767
103028
103331
103596
103865
104183
104436
104560
104942
105260
105627
105980
106326
106608
106899
107148
107421
107686
107957
108257
108508
108783
109049
109321
109594
109859
110136
110393
110653
110906
111163
111426
111674
111951
112214
112483
112793
113042
113337
113597
113880
114152
114415
114688
114950
115211
115486
115743
116014
116277
116558
116845
117093
117467
117829
118163
118433
118723
118973
119231
119499
119752
120020
120281
120561
120853
121098
121367
121626
121886
122144
122387
122649
122905
123167
123440
123693
123966
124226
124492
124766
125019
125303
125545
125824
126083
126336
126643
126885
127213
127479
127615
128007
128257
128578
128863
129242
129612
129959
130296
130623
130896
131191
131459
131753
132075
132341
132675
132955
133296
133581
133853
134166
134420
134718
134969
135352
135711
136053
136369
136637
136948
137198
137499
137761
138022
138298
138562
138833
139112
139370
139662
139917
140188
140461
140701
140960
141203
141458
141721
141971
142272
142527
142814
143095
143351
143627
143782
144143
144420
144672
144943
145196
145461
145746
145998
146363
146719
147046
147317
147615
147863
148132
148393
148634
148894
149139
149394
149658
149903
150204
150447
150715
150987
151245
151524
151773
152031
152286
152533
152818
153065
153327
153627
153870
154183
154434
154794
155151
155495
155801
156070
156398
156651
156965
157224
157587
157950
158295
158617
158917
159183
159449
159721
159978
160281
160535
160843
161124
161391
161678
161940
162232
162487
162750
163031
163280
163548
163806
164062
164324
164466
164832
165099
165353
165643
165901
166163
166474
166722
167064
167349
167666
167940
168254
168517
168798
169071
169329
169604
169868
170150
170412
170671
170936
171184
171441
171702
171949
172216
172473
172732
172998
173251
173525
173789
174054
174340
174586
174864
175115
175390
175652
175904
176175
176442
176718
177022
177262
177560
177814
178073
178362
178610
178978
179339
179681
179943
180238
180488
180752
181023
181274
181601
181865
182010
182406
182659
182955
183205
183575
183942
184289
184642
184986
185301
185597
185863
186141
186412
186665
186927
187188
187446
187704
187946
188189
188438
188680
188938
189196
189447
189713
189963
190224
190378
190722
190979
191229
191480
191734
191980
192238
192502
192751
193034
193290
193570
193830
194074
194205
194568
194825
195080
195324
195595
195851
196117
196416
196668
197001
197266
197589
197838
197985
198350
198604
198868
199114
199375
199681
199933
200220
200472
200753
201012
201275
201545
201795
202059
202321
202454
202829
203079
203344
203593
203850
204107
204358
204642
204884
205164
205417
205682
205958
206214
206491
206745
207004
207262
207507
207766
208016
208295
208547
208802
209061
209208
209557
209807
210064
210330
210580
210833
210968
211327
211592
211853
212096
212335
212568
212823
213071
213300
213529
213760
214009
214244
214493
214719
214947
215178
215413
215538
215911
216172
216426
216685
216930
217176
217413
217648
217888
218127
218369
218612
218846
219105
219347
219594
219845
220086
220361
220599
220841
221079
221336
221711
222063
222415
222756
223082
223420
223684
223975
224210
224364
224717
225033
225285
225627
225895
226240
226524
226884
227246
227606
227948
228302
228647
228979
229280
229595
229841
230144
230385
230706
230959
231321
231669
232023
232363
232692
232991
233241
233514
233780
234045
234364
234751
235105
235456
235801
236087
236432
236693
236979
237229
237546
237794
238110
238361
238722
239073
239421
239726
239989
240272
240531
240813
241077
241365
241657
241797
242174
242432
242728
242983
243292
243431
243799
244053
244331
244600
244865
245122
245366
245510
245853
246094
246217
246581
246837
247106
247353
247632
247875
248166
248415
248699
248957
249223
249512
249759
250068
250315
250609
250855
251141
251398
251656
251913
252163
252424
252672
252934
253175
253435
253675
253929
254169
254422
254667
254916
255160
255408
255651
255886
256128
256375
256655
256912
257228
257495
257776
258106
258360
258666
258918
259186
259423
259696
259946
260197
260456
260704
260836
261194
261488
261727
262056
262304
262440
262839
263200
263565
263913
264281
264635
264981
265331
265652
265913
266277
266638
266987
267341
267680
267974
268277
268527
268824
269072
269337
269603
269870
270153
270411
270719
270968
271284
271544
271692
272059
272324
272620
272875
273175
273305
273685
273940
274229
274484
274786
274922
275304
275598
275853
276175
276430
276562
276945
277249
277505
277832
278108
278235
278629
278923
279190
279461
279756
279891
280270
280526
280812
281068
281326
281614
281858
282216
282482
282837
283095
283219
283605
283880
284150
284407
284657
284892
285152
285402
285715
285976
286296
286556
286881
287140
287455
287703
287988
288152
288497
288746
288979
289215
289453
289845
290197
290550
290892
291183
291488
291742
292010
292314
292562
292881
293138
293507
293855
294204
294549
294847
295154
295404
295711
295953
296260
296521
296884
297235
297572
297838
298137
298389
298652
298943
299184
299536
299909
300266
300611
300960
301292
301619
301876
302188
302442
302703
303070
303425
303760
304042
304346
304598
304867
305117
305378
305628
305888
306148
306402
306672
306922
307194
307445
307711
307972
308234
308502
308756
309046
309291
309634
309917
310291
310649
311004
311330
311610
311877
312156
312425
312671
312913
313152
313310
313651
313911
314156
314423
314673
314967
315219
315505
315755
316119
316436
316763
317036
317311
317441
317803
318087
318386
318638
318959
319223
319512
319767
320030
320293
320559
320849
321124
321261
321658
321940
322235
322513
322775
322918
323302
323623
323931
324242
324599
324959
325312
325628
325897
326170
326469
326713
326990
327251
327542
327800
328087
328363
328635
328934
329183
329460
329711
329972
330221
330491
330759
331024
331289
331546
331810
332064
332323
332567
332832
333087
333378
333624
333903
334147
334277
334655
334909
335185
335434
335706
335959
336224
336376
336748
337037
337287
337553
337820
338064
338304
338558
338800
339181
339543
339893
340201
340461
340741
341003
341250
341547
341790
342130
342390
342755
343116
343467
343742
344053
344304
344619
344865
345169
345425
345714
346089
346445
346798
347131
347474
347820
348166
348517
348877
349227
349572
349923
350287
350636
350964
351242
351510
351782
352041
352285
352524
352766
352910
353239
353474
353601
353940
354182
354416
354655
354880
355111
355343
355579
355828
356061
356290
356524
356748
356994
357223
357462
357695
357931
358168
358410
358663
358915
359176
359441
359700
359959
360226
360494
360755
361012
361260
361519
361777
362015
362256
362506
362811
363051
363314
363594
363842
364148
364403
364570
364920
365165
365433
365688
365962
366230
366532
366811
367118
367389
367652
367903
368154
368403
368642
368880
369133
369389
369639
369901
370168
370422
370658
370900
371147
371403
371775
372117
372401
372658
372898
373135
373376
373616
373873
374132
374380
374623
374876
375110
375235
375586
375859
376122
376273
376619
376862
377114
377348
377595
377829
378084
378341
378594
378838
379083
379335
379582
379839
380091
380350
380597
380856
381116
381374
381645
381904
382187
382437
382699
382971
383225
383487
383742
384026
384293
384580
384869
385113
385371
385629
385879
386144
386396
386663
386923
387192
387458
387725
387993
388245
388514
388761
389022
389274
389522
389776
390016
390273
390521
390779
391037
391284
391544
391788
392088
392408
392663
393032
393395
393742
394079
394415
394685
394955
395208
395478
395741
396043
396286
396646
397013
397359
397700
398041
398377
398683
398933
399199
399449
399709
399983
400255
400412
400772
401033
401284
401526
401780
402024
402274
402410
402766
403024
403270
403516
403774
404018
404278
404409
404783
405055
405310
405570
405829
406077
406340
406486
406846
407132
407382
407683
407930
408056
408433
408694
408977
409228
409485
409766
410014
410301
410562
410710
411073
411347
411596
411862
412112
412273
412632
412890
413162
413423
413722
413969
414343
414695
415040
415166
415559
415826
416097
416353
416657
416904
417189
417316
417706
418000
418257
418541
418802
418964
419318
419568
419826
420076
420350
420605
420965
421332
421679
422008
422308
422574
422844
423095
423354
423603
423861
424135
424411
424707
424966
425264
425515
425777
426037
426283
426547
426806
427108
427358
427614
427897
428148
428415
428688
428944
429212
429469
429728
429967
430219
430469
430718
430977
431226
431496
431767
431910
432285
432562
432876
433130
433402
433536
433926
434202
434492
434751
435048
435302
435624
435907
436227
436595
436955
437302
437627
437943
438208
438508
438764
439028
439369
439656
440016
440373
440709
440991
441292
441551
441809
442080
442337
442628
442936
443196
443521
443788
444118
444380
444650
444913
445167
445428
445674
445807
446167
446417
446679
446929
447179
447427
447667
447921
448175
448424
448692
448953
449205
449453
449691
449924
450163
450410
450649
450910
451189
451443
451721
451865
452229
452500
452754
453008
453268
453527
453795
454044
454339
454584
454852
455145
455393
455694
455939
456206
456531
456778
457081
457324
457640
457902
458254
458606
458964
459307
459606
459897
460163
460449
460776
461055
461418
461773
462116
462476
462823
463168
463513
463858
464173
464513
464807
465099
465368
465725
466083
466423
466754
467030
467328
467596
467959
468318
468658
468978
469278
469575
469841
470142
470444
470714
471071
471431
471779
472131
472460
472748
473014
473282
473537
473792
474045
474295
474557
474815
475068
475204
475563
475829
476098
476353
476641
476781
477144
477442
477699
477996
478252
478534
478837
479103
479242
479635
479936
480217
480512
480803
481066
481361
481619
481927
482191
482463
482756
482891
483266
483537
483838
484099
484364
484639
484895
485176
485431
485695
485969
486229
486499
486759
487032
487296
487579
487844
488096
488361
488615
488874
489149
489403
489683
489939
490196
490475
490736
491014
491302
491559
491889
492155
492458
492722
492983
493255
493516
493807
494074
494236
494601
494861
495122
495394
495658
496018
496387
496743
497083
497416
497707
497974
498231
498376
498736
498994
499263
499524
499815
500203
500558
500910
501242
501516
501823
502077
502339
502651
502903
503235
503524
503812
504085
504363
504657
504911
505200
505464
505726
506020
506270
506544
506769
507158
507510
507851
508170
508428
508698
508951
509204
509452
509689
509951
510217
510586
510942
511269
511574
511859
512113
512377
512649
512903
513171
513423
513693
513955
514221
514489
514741
515005
515252
515511
515772
516022
516158
516524
516778
517042
517292
517558
517824
518082
518356
518609
518896
519147
519401
519669
519929
520187
520438
520688
520941
521181
521424
521659
521900
522146
522385
522637
522878
523124
523372
523612
523872
524157
524457
524723
