peaks
75122
75262
75400
75539
75680
75823
75963
76106
76248
76387
76528
76671
76814
76956
77097
77238
77380
77518
77665
77806
77947
78087
78229
78373
78512
78659
78800
78941
79082
79224
79366
79510
79650
79792
79935
80078
80219
80362
80504
80645
80787
80932
81073
81213
81353
81494
81635
81776
81918
82054
82200
82343
82486
82622
82770
82909
83049
83192
83334
83476
83619
83760
83902
84045
84189
84310
84472
84613
84723
84898
85035
85184
85326
85466
85607
85760
85905
86049
86177
86331
86472
86590
86753
86890
87002
87172
87311
87417
87591
87728
87836
88002
88146
88252
88431
88572
88680
88848
88973
89090
89268
89409
89512
89693
89834
89936
90102
90248
90349
90528
90670
90772
90949
91090
91197
91372
91512
91614
91790
91932
92040
92214
92353
92493
92629
92776
92892
93062
93203
93305
93487
93630
93773
93914
94053
94182
94339
94480
94589
94762
94902
95003
95184
95325
95425
95602
95744
95847
96027
96167
96269
96445
96584
96686
96866
97002
97109
97284
97419
97526
97704
97844
97946
98126
98268
98408
98548
98686
98801
98968
99108
99211
99388
99528
99637
99810
99951
100090
100230
100372
100486
100654
100793
100903
101073
101213
101316
101498
101640
101781
101924
102070
102213
102356
102498
102640
102784
102929
103073
103215
103357
103503
103646
103790
103934
104076
104219
104362
104504
104646
104788
104927
105067
105210
105353
105493
105632
105773
105914
106054
106198
106341
106482
106623
106765
106909
107053
107195
107336
107479
107619
107768
107911
108055
108197
108337
108480
108619
108763
108903
109045
109188
109330
109472
109613
109757
109895
110036
110179
110322
110464
110605
110747
110890
111033
111177
111321
111463
111602
111739
111886
111998
112170
112311
112424
112596
112739
112842
113026
113167
113269
113448
113591
113693
113874
114015
114114
114294
114435
114543
114716
114857
114959
115138
115283
115394
115565
115704
115806
115981
116122
116230
116404
116543
116644
116819
116961
117104
117245
117382
117509
117663
117806
117920
118081
118231
118332
118510
118645
118753
118931
119070
119172
119352
119484
119632
119771
119909
120031
120192
120333
120432
120613
120753
120861
121035
121177
121281
121457
121595
121704
121872
122015
122153
122288
122430
122550
122713
122854
122960
123134
123275
123376
123558
123698
123837
123975
124115
124238
124393
124536
124639
124814
124955
125056
125238
125381
125483
125660
125803
125947
126087
126228
126350
126503
126650
126759
126934
127076
127216
127357
127503
127622
127790
127931
128041
128217
128359
128495
128646
128787
128931
129069
129222
129367
129509
129649
129791
129935
130077
130221
130364
130506
130648
130791
130935
131077
131219
131361
131504
131648
131790
131932
132072
132214
132356
132501
132645
132788
132930
133072
133213
133355
133497
133639
133780
133920
134063
134208
134351
134495
134637
134779
134925
135068
135212
135352
135495
135638
135783
135928
136069
136213
136356
136507
136653
136799
136944
137086
137228
137370
137514
137659
137802
137943
138086
138228
138371
138515
138656
138798
138938
139082
139227
139371
139513
139653
139794
139935
140078
140223
140367
140509
140649
140793
140936
141078
141216
141358
141504
141647
141789
141932
142072
142214
142355
142499
142641
142781
142921
143061
143197
143347
143488
143629
143771
143913
144056
144201
144343
144483
144624
144764
144905
145046
145187
145328
145468
145604
145750
145893
146034
146176
146317
146460
146603
146747
146887
147027
147169
147315
147459
147601
147743
147885
148024
148165
148307
148449
148588
148727
148867
149010
149153
149295
149437
149574
149719
149862
150003
150146
150286
150425
150566
150707
150847
150986
151126
151265
151406
151547
151687
151827
151968
152110
152249
152398
152541
152683
152823
152965
153109
153254
153397
153539
153683
153823
153964
154106
154250
154394
154535
154677
154821
154964
155111
155254
155398
155539
155682
155826
155971
156111
156253
156396
156540
156682
156821
156962
157108
157250
157399
157542
157684
157824
157964
158107
158251
158391
158532
158672
158814
158954
159096
159238
159380
159520
159663
159811
159955
160098
160242
160386
160531
160672
160814
160956
161099
161241
161383
161525
161665
161804
161946
162090
162234
162376
162517
162659
162803
162946
163089
163231
163373
163514
163662
163804
163944
164087
164228
164370
164510
164651
164792
164933
165070
165217
165358
165498
165613
165778
165919
166023
166199
166340
166450
166618
166759
166863
167042
167183
167288
167459
167607
167710
167886
168026
168129
168306
168444
168549
168726
168867
168970
169150
169291
169401
169570
169708
169812
169987
170126
170236
170403
170541
170644
170824
170965
171067
171244
171384
171487
171668
171809
171911
172085
172221
172326
172507
172646
172747
172923
173064
173166
173345
173484
173585
173763
173905
174009
174189
174329
174437
174609
174750
174854
175020
175166
175269
175449
175590
175699
175869
176011
176155
176296
176438
176563
176709
176857
176965
177151
177293
177432
177573
177715
177832
177997
178136
178241
178416
178550
178658
178837
178976
179078
179254
179395
179496
179676
179816
179954
180093
180236
180348
180520
180661
180770
180940
181081
181184
181368
181508
181649
181789
181934
182046
182215
182355
182465
182633
182756
182876
183056
183197
183335
183477
183619
183740
183895
184040
184150
184317
184458
184561
184744
184886
185026
185166
185312
185456
185598
185739
185878
186016
186162
186300
186449
186592
186732
186872
187017
187161
187302
187444
187585
187728
187870
188010
188150
188294
188434
188578
188722
188867
189008
189149
189291
189436
189579
189722
189864
190005
190146
190284
190432
190572
190712
190852
190991
191136
191280
191422
191563
191703
191842
191987
192131
192274
192418
192559
192697
192848
192990
193132
193275
193417
193555
193704
193846
193987
194128
194269
194413
194558
194702
194844
194987
195131
195277
195416
195561
195711
195852
195992
196134
196276
196419
196559
196700
196841
196984
197126
197268
197408
197549
197698
197843
197988
198130
198266
198411
198548
198689
198826
198962
199101
199238
199375
199511
199646
199781
199914
200049
200181
200316
200447
200586
200720
200854
200988
201123
201256
201395
201531
201664
201799
201935
202069
202206
202341
202478
202615
202753
202889
203024
203161
203300
203439
203577
203711
203851
203988
204126
204258
204402
204539
204679
204818
204956
205094
205233
205373
205512
205651
205785
205925
206063
206199
206342
206480
206618
206758
206898
207036
207176
207314
207454
207596
207737
207877
208015
208156
208298
208440
208579
208719
208858
209000
209141
209280
209420
209557
209699
209839
209946
210115
210254
210366
210536
210676
210786
210953
211092
211203
211376
211515
211631
211791
211928
212038
212215
212356
212461
212639
212780
212885
213064
213204
213307
213486
213627
213737
213909
214048
214151
214330
214472
214576
214751
214889
214990
215171
215312
215415
215591
215726
215833
216009
216149
216244
216426
216566
216668
216846
216985
217088
217262
217402
217506
217686
217825
217927
218097
218240
218342
218522
218663
218765
218940
219081
219189
219369
219511
219613
219791
219931
220071
220210
220349
220477
220633
220773
220884
221051
221193
221305
221476
221617
221718
221893
222033
222136
222314
222453
222564
222730
222870
222971
223148
223287
223389
223567
223707
223814
223985
224124
224226
224403
224544
224646
224822
224960
225061
225238
225381
225483
225658
225803
225949
226090
226232
226355
226513
226655
226759
226942
227082
227221
227358
227506
227618
227790
227923
228031
228213
228352
228498
228638
228778
228894
229062
229203
229306
229489
229630
229770
229913
230055
230174
230335
230469
230579
230750
230897
231000
231177
231315
231417
231596
231737
231874
232013
232153
232270
232440
232583
232686
232867
233007
233149
233290
233432
233571
233710
233849
233986
234130
234272
234411
234549
234688
234828
234971
235111
235253
235395
235535
235677
235815
235953
236091
236228
236364
236503
236643
236783
236919
237054
237191
237330
237471
237609
237749
237885
238023
238165
238305
238441
238584
238722
238862
239003
239145
239285
239424
239564
239706
239848
239989
240128
240264
240408
240546
240692
240833
240970
241106
241247
241391
241529
241666
241803
241941
242081
242224
242366
242506
242644
242783
242924
243067
243209
243350
243490
243630
243773
243911
244055
244195
244335
244470
244615
244755
244895
245033
245170
245310
245454
245595
245730
245876
246015
246154
246294
246438
246579
246719
246858
246998
247140
247288
247430
247571
247712
247855
247999
248141
248283
248424
248565
248710
248816
248996
249137
249242
249419
249560
249672
249843
249983
250087
250258
250393
250503
250683
250823
250924
251102
251243
251345
251530
251670
251781
251949
252088
252192
252377
252519
252621
252798
252938
253038
253220
253362
253464
253640
253779
253881
254062
254201
254304
254479
254620
254723
254906
255046
255156
255314
255462
255563
255741
255881
255983
256155
256299
256402
256586
256726
256828
257006
257148
257256
257433
257573
257674
257849
257988
258096
258252
258410
258512
258688
258821
258927
259106
259245
259355
259521
259660
259767
259938
260073
260213
260355
260501
260601
260786
260925
261029
261206
261350
261456
261632
261771
261871
262049
262190
262292
262466
262605
262699
262886
263025
263128
263303
263442
263543
263714
263858
263962
264132
264271
264372
264553
264691
264793
264966
265100
265208
265387
265526
265631
265805
265944
266086
266225
266364
266482
266643
266785
266889
267063
267203
267307
267488
267628
267768
267907
268046
268168
268328
268467
268571
268743
268882
268991
269164
269304
269406
269577
269718
269825
270001
270139
270235
270420
270561
270701
270840
270977
271091
271264
271406
271509
271683
271822
271924
272102
272238
272345
272519
272652
272761
272928
273073
273174
273349
273491
273596
273774
273913
274050
274191
274334
274453
274615
274753
274855
275031
275170
275273
275449
275586
275687
275861
275998
276099
276271
276409
276511
276686
276819
276960
277097
277237
277356
277514
277655
277763
277934
278074
278185
278361
278501
278639
278780
278923
279062
279201
279338
279479
279618
279757
279894
280033
280174
280319
280462
280604
280745
280885
281028
281172
281315
281460
281601
281741
281877
282023
282164
282305
282446
282579
282728
282867
283012
283152
283291
283437
283581
283722
283862
284001
284145
284274
284430
284574
284716
284855
284996
285141
285282
285422
285562
285705
285849
285990
286129
286270
286410
286553
286696
286838
286977
287116
287258
287401
287541
287682
287820
287957
288095
288236
288378
288520
288659
288798
288937
289070
289215
289341
289495
289635
289774
289915
290053
290191
290330
290472
290612
290752
290888
291029
291176
291319
291463
291604
291742
291878
292015
292150
292290
292411
292569
292707
292845
292981
293116
293249
293386
293524
293659
293794
293925
294068
294206
294344
294481
294617
294752
294895
295035
295173
295311
295450
295589
295728
295865
296002
296140
296280
296418
296555
296692
296830
296965
297107
297245
297383
297520
297660
297798
297936
298072
298210
298351
298489
298628
298765
298873
299044
299186
299301
299462
299594
299722
299881
300021
300140
300297
300436
300578
300718
300856
300994
301133
301272
301414
301552
301689
301831
301972
302110
302228
302388
302527
302647
302808
302946
303076
303223
303363
303502
303645
303785
303922
304062
304203
304344
304482
304621
304760
304903
305042
305188
305331
305471
305610
305751
305892
306031
306171
306311
306452
306591
306730
306871
307008
307146
307287
307429
307568
307706
307843
307978
308120
308259
308400
308538
308673
308787
308960
309100
309208
309379
309516
309629
309799
309937
310046
310212
310350
310468
310631
310745
310879
311045
311186
311328
311469
311608
311747
311890
312033
312174
312315
312456
312598
312739
312879
313019
313153
313296
313403
313580
313719
313831
313996
314139
314244
314423
314564
314676
314842
314981
315087
315261
315400
315504
315677
315815
315925
316093
316231
316333
316512
316654
316763
316934
317075
317177
317356
317498
317602
317774
317908
318016
318195
318335
318438
318605
318732
318842
319006
319138
319250
319407
319543
319663
319806
319940
320055
320205
320338
320471
320601
320737
320868
320999
321132
321265
321398
321530
321662
321793
321925
322058
322190
322322
322449
322585
322716
322847
322974
323106
323229
323369
323499
323628
323757
323887
324015
324145
324274
324404
324535
324665
324791
324923
325048
325184
325319
325454
325586
325718
325849
325977
326112
326244
326376
326507
326635
326772
326895
327035
327167
327300
327433
327565
327695
327826
327957
328088
328219
328348
328479
328610
328740
328869
329000
329133
329264
329397
329538
329682
329825
329963
330100
330238
330376
330511
330646
330780
330918
331053
331188
331315
331459
331593
331729
331864
331998
332134
332264
332402
332536
332671
332803
332929
333069
333204
333338
333470
333604
333736
333868
334000
334132
334264
334376
334530
334658
334796
334911
335060
335194
335328
335460
335592
335726
335858
335991
336125
336259
336368
336525
336658
336790
336922
337056
337186
337322
337455
337588
337720
337838
337986
338121
338251
338390
338522
338655
338786
338915
339052
339166
339316
339444
339580
339712
339844
339976
340109
340241
340374
340504
340639
340771
340904
341036
341170
341300
341435
341567
341700
341832
341965
342097
342231
342367
342501
342635
342768
342904
343040
343175
343311
343449
343585
343720
343856
343991
344126
344259
344394
344527
344661
344796
344930
345064
345199
345334
345466
345599
345736
345870
346004
346142
346277
346415
346554
346690
346826
346961
347099
347234
347368
347504
347638
347771
347903
348040
348174
348310
348443
348579
348713
348844
348980
349108
349246
349378
349511
349643
349776
349907
350038
350170
350299
350433
350564
350694
350824
350954
351085
351214
351344
351475
351605
351735
351865
351994
352124
352255
352384
352513
352635
352770
352896
353028
353157
353280
353414
353542
353670
353799
353926
354054
354181
354309
354437
354564
354691
354817
354930
355068
355195
355321
355447
355572
355698
355826
355951
356077
356204
356332
356457
356583
356709
356834
356960
357087
357212
357338
357465
357591
357716
357841
357966
358091
358217
358327
358465
358591
358715
358839
358963
359087
359212
359335
359460
359584
359707
359821
359954
360079
360203
360331
360458
360584
360703
360835
360961
361086
361211
361337
361464
361566
361704
361838
361963
362090
362216
362343
362458
362594
362721
362842
362971
363098
363224
363341
363473
363599
363724
363849
363974
364096
364223
364343
364473
364597
364720
364844
364968
365089
365210
365337
365454
365578
365705
365828
365950
366072
366192
366315
366420
366557
366671
366797
366917
367037
367157
367279
367398
367519
367638
367757
367877
367996
368113
368237
368356
368476
368595
368714
368834
368955
369070
369194
369309
369442
369567
369689
369811
369933
370056
370181
370296
370425
370548
370670
370793
370916
371039
371156
371284
371407
371529
371651
371772
371896
372017
372139
372262
372379
372507
372629
372751
372874
372994
373117
373240
373362
373484
373607
373721
373849
373972
374099
374224
374348
374472
374597
374722
374845
374969
375094
375220
375348
375474
375601
375727
375853
375980
376107
376232
376358
376485
376611
376737
376861
376981
377112
377237
377363
377490
377616
377739
377858
377991
378113
378243
378368
378495
378620
378746
378873
378999
379125
379251
379378
379502
379628
379753
379877
380002
380127
380251
380377
380485
380626
380751
380875
380989
381125
381247
381375
381501
381626
381752
381869
382000
382125
382250
382370
382499
382614
382746
382871
382995
383119
383243
383359
383492
383615
383737
383861
383985
384106
384229
384352
384474
384596
384719
384841
384961
385082
385201
385309
385446
385562
385687
385808
385927
386037
386168
386290
386408
386533
386655
386776
386897
387017
387140
387262
387374
387506
387624
387747
387867
387984
388109
388218
388344
388471
388592
388711
388831
388943
389073
389191
389315
389436
389557
389676
389798
389918
390038
390157
390277
390399
390518
390632
390758
390878
390997
391118
391238
391358
391478
391598
391717
391831
391955
392077
392194
392315
392435
392550
392668
392792
392910
393029
393146
393269
393387
393505
393623
393741
393860
393977
394095
394213
394329
394451
394568
394685
394802
394921
395038
395158
395276
395394
395513
395631
395748
395855
395983
396102
396220
396339
396457
396576
396693
396812
396931
397049
397165
397287
397406
397525
397640
397762
397882
397999
398118
398238
398358
398481
398613
398743
398869
398994
399116
399242
399363
399486
399607
399729
399851
399973
400093
400216
400338
400459
400580
400702
400822
400940
401062
401184
401298
401421
401544
401665
401785
401906
402025
402139
402268
402388
402509
402629
402749
402869
402990
403111
403231
403351
403471
403591
403713
403832
403948
404072
404192
404312
404432
404549
404673
404793
404912
405033
405146
405273
405395
405514
405634
405753
405873
405994
406114
406234
406355
406473
406594
406715
406814
406955
407077
407199
407318
407436
407564
407686
407806
407927
408049
408170
408292
408414
408536
408657
408778
408899
409019
409139
409261
409384
409505
409627
409746
409870
409992
410114
410234
410358
410480
410603
410724
410845
410968
411091
411213
411337
411459
411582
411702
411823
411944
412066
412186
412309
412429
412550
412667
412791
412911
413031
413138
413277
413397
413519
413641
413762
413879
414004
414125
414243
414364
414488
414610
414728
414848
414968
415088
415209
415329
415450
415571
415692
415813
415935
416057
416176
416300
416422
416545
416667
416788
416911
417032
417154
417276
417399
417523
417646
417776
417904
418030
418161
418293
418423
418552
418682
418810
418937
419064
419191
419317
419443
419556
419690
419814
419938
420059
420183
420306
420429
420552
420674
420797
420911
421041
421164
421286
421409
421531
421653
421774
421896
422018
422142
422265
422386
422509
422631
422752
422874
422996
423118
423242
423365
423490
423612
423734
423858
423980
424103
424227
424349
424473
424596
424719
424819
424964
425086
425209
425332
425454
425578
425700
425823
425947
426069
426193
426317
426441
426567
426691
426816
426941
427065
427190
427310
427439
427563
427688
427802
427936
428060
428184
428308
428431
428555
428679
428802
428927
429054
429181
429306
429432
429558
429683
429809
429933
430059
430186
430312
430438
430564
430689
430815
430941
431067
431194
431320
431445
431572
431697
431822
431948
432075
432200
432328
432454
432580
432705
432831
432957
433083
433208
433335
433464
433591
433718
433845
433972
434099
434227
434354
434483
434611
434737
434867
434994
435124
435253
435383
435512
435644
435774
435903
436033
436159
436288
436424
436555
436684
436814
436945
437075
437205
437336
437466
437598
437729
437860
437990
438126
438260
438391
438523
438655
438786
438919
439051
439180
439316
439450
439583
439714
439843
439981
440115
440248
440377
440513
440647
440779
440911
441042
441180
441313
441444
441574
441706
441843
441974
442106
442237
442376
442511
442644
442777
442911
443045
443178
443312
443435
443576
443707
443843
443977
444111
444244
444374
444514
444649
444783
444918
445053
445189
445324
445456
445590
445723
445857
445989
446124
446260
446395
446529
446658
446793
446932
447066
447200
447333
447469
447599
447736
447869
448003
448137
448270
448404
448540
448682
448817
448952
449090
449202
449371
449509
449623
449780
449915
450041
450185
450320
450457
450593
450729
450867
451005
451144
451285
451427
451569
451710
451850
451991
452130
452270
452409
452546
452683
452821
452958
453096
453234
453369
453511
453647
453783
453922
454059
454195
454332
454469
454605
454740
454875
455013
455147
455285
455421
455557
455692
455828
455967
456105
456243
456377
456519
456656
456795
456932
457072
457211
457350
457482
457626
457765
457904
458041
458176
458321
458462
458602
458743
458887
459028
459170
459311
459453
459596
459738
459880
460022
460163
460307
460449
460590
460731
460873
461018
461160
461303
461445
461587
461728
461869
462011
462153
462294
462434
462575
462714
462853
462992
463131
463270
463408
463546
463684
463822
463963
464103
464242
464382
464525
464666
464809
464950
465091
465234
465376
465516
465656
465796
465937
466078
466219
466361
466505
466649
466792
466933
467076
467221
467365
467507
467648
467793
467937
468080
468224
468362
468512
468654
468798
468944
469090
469237
469381
469526
469670
469816
469959
470105
470251
470396
470540
470684
470830
470972
471120
471260
471409
471549
471702
471848
471991
472133
472284
472425
472575
472720
472865
473011
473155
473299
473443
473587
473715
473873
474018
474163
474307
474450
474593
474738
474880
475024
475168
475312
475456
475599
475746
475894
476011
476184
476329
476473
476616
476761
476908
477053
477198
477335
477488
477633
477778
477920
478035
478212
478357
478503
478647
478795
478915
479086
479230
479374
479518
479665
479782
479954
480098
480241
480386
480530
480672
480815
480960
481105
481251
481395
481540
481687
481833
481977
482116
482268
482413
482557
482699
482848
482991
483136
483279
483425
483571
483716
483860
484006
484153
484298
484444
484588
484737
484883
485028
485173
485318
485466
485611
485756
485898
486048
486198
486342
486489
486635
486782
486926
487071
487215
487361
487503
487646
487792
487938
488079
488225
488367
488509
488652
488793
488935
489077
489218
489363
489504
489650
489793
489939
490082
490225
490366
490511
490654
490797
490939
491083
491227
491370
491513
491659
491804
491924
492096
492240
492389
492538
492688
492837
492986
493137
493287
493436
493586
493736
493886
494037
494189
494339
494491
494640
494791
494940
495089
495238
495385
495528
495679
495829
495974
496121
496265
496411
496556
496700
496845
496988
497136
497283
497429
497573
497716
497860
498004
498148
498291
498437
498582
498728
498872
499017
499163
499309
499456
499601
499750
499899
500048
500194
500341
500492
500643
500792
500942
501049
501238
501386
501534
501682
501829
501962
502127
502277
502426
502576
502727
502846
503026
503176
503324
503473
503623
503772
503919
504068
504216
504365
504512
504661
504810
504958
505077
505257
505405
505552
505704
505852
506002
506152
506303
506453
506601
506750
506900
507048
507196
507344
507492
507640
507787
507933
508083
508230
508378
508527
508674
508822
508968
509114
509258
509406
509554
509702
509852
510000
510147
510295
510445
510590
510739
510890
511038
511185
511331
511481
511628
511776
511923
512073
512221
512370
512517
512666
512815
512961
513106
513252
513400
513548
513695
513843
513992
514143
514293
514444
514594
514744
514895
515044
515193
515341
515491
515641
515791
515938
516085
516233
516379
516524
516674
516810
516967
517113
517258
517405
517549
517686
517840
517985
518129
518274
518420
518565
518708
518852
518997
519142
519285
519430
519578
519727
519874
520021
520169
520320
520469
520618
520768
520919
521066
521218
521369
521518
521667
521818
521968
522118
522266
522416
522564
522713
522860
523006
523145
523302
523449
523594
523740
523887
524033
524180
524327
524473
524619
524765
524911
