peaks
75009
75203
75360
75501
75673
75830
75987
76142
76298
76452
76611
76765
76921
77078
77237
77394
77548
77706
77862
78020
78179
78337
78493
78649
78808
78969
79124
79278
79437
79595
79756
79913
80072
80228
80360
80545
80704
80859
81014
81133
81330
81487
81644
81802
81930
82114
82272
82430
82586
82741
82896
83019
83212
83368
83526
83682
83839
83995
84154
84310
84465
84624
84750
84941
85098
85257
85417
85550
85729
85887
86044
86201
86358
86516
86671
86828
86989
87147
87302
87423
87619
87778
87935
88092
88248
88403
88559
88718
88874
88997
89186
89344
89502
89657
89814
89970
90096
90284
90442
90599
90754
90872
91071
91227
91381
91538
91694
91853
92008
92165
92322
92475
92634
92767
92949
93107
93264
93424
93546
93736
93894
94053
94209
94367
94526
94682
94838
94997
95158
95313
95435
95633
95792
95950
96107
96264
96421
96581
96739
96897
97025
97213
97372
97531
97686
97843
98002
98122
98318
98474
98632
98789
98911
99107
99262
99416
99573
99730
99887
100007
100202
100359
100514
100670
100829
100983
101109
101295
101455
101614
101768
101894
102083
102239
102396
102554
102709
102864
103019
103181
103336
103489
103646
103776
103966
104120
104278
104432
104555
104748
104907
105063
105218
105339
105533
105689
105843
106002
106158
106313
106433
106626
106785
106939
107097
107255
107411
107565
107725
107883
108041
108197
108354
108512
108667
108826
108984
109105
109298
109457
109616
109771
109925
110083
110240
110397
110553
110681
110867
111024
111183
111341
111496
111650
111809
111967
112123
112278
112434
112572
112747
112907
113065
113220
113372
113504
113688
113845
113999
114156
114297
114468
114623
114781
114937
115091
115251
115406
115561
115717
115876
116035
116160
116350
116509
116664
116822
116946
117135
117291
117445
117605
117761
117914
118072
118229
118386
118542
118698
118855
119013
119167
119328
119484
119638
119795
119955
120111
120268
120425
120582
120743
120898
121057
121214
121369
121525
121686
121843
121998
122154
122311
122468
122623
122781
122938
123094
123251
123398
123564
123720
123876
124035
124189
124346
124501
124626
124818
124974
125130
125287
125441
125599
125757
125878
126067
126224
126381
126537
126691
126847
126987
127158
127316
127471
127625
127750
127938
128098
128252
128408
128565
128720
128842
129034
129191
129346
129501
129659
129788
129969
130126
130282
130440
130571
130749
130906
131061
131216
131373
131529
131683
131839
131996
132154
132309
132442
132621
132779
132934
133089
133216
133400
133556
133716
133872
134024
134180
134339
134495
134651
134808
134966
135085
135281
135439
135596
135751
135884
136068
136222
136375
136532
136689
136845
137001
137159
137316
137470
137624
137787
137941
138096
138252
138412
138568
138723
138880
139039
139195
139351
139507
139665
139818
139976
140136
140291
140444
140601
140757
140915
141070
141226
141385
141537
141695
141854
142008
142161
142320
142477
142635
142761
142948
143104
143261
143418
143576
143733
143886
144043
144176
144357
144514
144669
144826
144983
145138
145293
145451
145605
145762
145920
146076
146230
146388
146547
146699
146821
147017
147173
147331
147485
147642
147799
147951
148111
148268
148422
148579
148736
148899
149054
149209
149367
149487
149685
149842
149999
150155
150308
150467
150624
150779
150935
151093
151249
151407
151561
151719
151874
152002
152190
152346
152503
152659
152786
152979
153133
153288
153446
153603
153759
153915
154052
154226
154383
154540
154696
154850
155007
155166
155321
155438
155633
155791
155946
156104
156261
156415
156570
156727
156886
157043
157198
157354
157489
157670
157829
157986
158143
158298
158419
158617
158774
158929
159087
159245
159402
159556
159683
159875
160031
160188
160347
160502
160658
160819
160942
161134
161291
161449
161607
161764
161923
162080
162202
162396
162555
162710
162868
163022
163147
163344
163496
163651
163810
163965
164123
164280
164403
164591
164748
164909
165063
165218
165375
165531
165654
165848
166006
166160
166317
166472
166616
166786
166941
167098
167258
167383
167572
167729
167885
168045
168200
168356
168512
168639
168826
168987
169141
169298
169426
169614
169772
169895
170089
170245
170398
170556
170697
170866
171020
171176
171335
171461
171646
171805
171962
172115
172236
172429
172587
172742
172899
173022
173214
173369
173528
173686
173842
173970
174158
174315
174472
174630
174754
174946
175102
175243
175420
175575
175730
175887
176044
176201
176357
176488
176673
176829
176989
177145
177298
177454
177613
177772
177927
178084
178241
178396
178552
178711
178868
179022
179177
179338
179494
179638
179805
179964
180122
180277
180433
180590
180727
180905
181063
181219
181373
181502
181693
181848
182004
182162
182320
182475
182595
182789
182945
183100
183258
183397
183570
183724
183882
184040
184194
184347
184507
184661
184818
184977
185135
185291
185447
185606
185767
185923
186079
186203
186398
186557
186713
186872
186998
187184
187344
187501
187656
187809
187968
188126
188282
188436
188595
188751
188875
189067
189225
189379
189533
189692
189850
190004
190160
190319
190440
190632
190790
190948
191104
191259
191418
191557
191730
191887
192046
192205
192324
192518
192677
192833
192992
193148
193306
193408
193619
193782
193938
194092
194249
194406
194565
194719
194875
195005
195189
195350
195509
195664
195788
195978
196137
196293
196447
196603
196761
196900
197072
197232
197387
197543
197666
197858
198017
198172
198330
198451
198644
198801
198960
199118
199240
199429
199587
199743
199899
200058
200214
200369
200525
200684
200844
200998
201119
201314
201473
201630
201788
201907
202102
202259
202418
202575
202696
202886
203045
203202
203357
203513
203651
203827
203984
204143
204299
204453
204609
204769
204928
205083
205239
205398
205555
205713
205872
206029
206154
206345
206505
206660
206816
206975
207132
207291
207446
207606
207765
207922
208047
208243
208398
208554
208713
208873
209028
209183
209342
209501
209658
209815
209974
210129
210285
210428
210603
210758
210914
211073
211232
211388
211544
211700
211861
212000
212179
212335
212489
212644
212806
212963
213119
213276
213432
213589
213746
213903
214062
214217
214339
214538
214694
214850
215009
215155
215325
215482
215640
215800
215956
216115
216276
216430
216568
216745
216909
217064
217219
217377
217536
217695
217851
218010
218134
218324
218490
218646
218802
218956
219119
219278
219434
219591
219751
219907
220036
220226
220386
220541
220697
220857
220992
221175
221332
221490
221646
221771
221961
222120
222274
222428
222556
222746
222902
223060
223220
223358
223532
223688
223849
224005
224162
224320
224477
224632
224790
224952
225107
225231
225426
225583
225743
225900
226059
226217
226373
226540
226696
226853
227008
227173
227332
227489
227647
227772
227968
228125
228283
228440
228596
228752
228914
229071
229230
229386
229508
229707
229862
229985
230179
230336
230492
230649
230806
230961
231118
231279
231434
231590
231750
231908
232066
232223
232380
232538
232694
232854
233015
233171
233327
233486
233644
233805
233942
234118
234277
234433
234593
234752
234908
235064
235223
235382
235539
235696
235855
235990
236174
236330
236489
236646
236790
236966
237122
237279
237435
237579
237753
237910
238066
238225
238381
238540
238665
238857
239015
239170
239329
239451
239643
239801
239958
240115
240272
240427
240584
240741
240899
241060
241216
241342
241531
241690
241851
242007
242165
242326
242481
242640
242799
242957
243114
243240
243436
243593
243749
243908
244040
244226
244381
244540
244697
244830
245013
245171
245327
245484
245642
245802
245925
246115
246273
246430
246589
246745
246903
247059
247216
247374
247532
247652
247845
248005
248161
248319
248454
248630
248786
248944
249102
249258
249412
249549
249726
249887
250042
250197
250326
250512
250672
250829
250987
251108
251303
251461
251618
251776
251933
252091
252219
252408
252566
252723
252879
253037
253194
253350
253508
253664
253824
253981
254136
254295
254452
254610
254741
254923
255083
255238
255399
255558
255713
255839
256033
256192
256349
256506
256662
256822
256977
257137
257295
257450
257605
257765
257924
258081
258238
258395
258517
258713
258872
259030
259187
259340
259502
259656
259811
259968
260127
260286
260407
260602
260762
260919
261077
261236
261391
261548
261704
261866
262022
262175
262299
262493
262649
262806
262964
263089
263279
263435
263595
263751
263904
264063
264221
264379
264535
264693
264850
264973
265170
265330
265487
265643
265802
265966
266121
266278
266436
266593
266749
266908
267064
267222
267376
267535
267693
267834
268006
268164
268323
268478
268609
268796
268953
269110
269268
269386
269583
269740
269901
270058
270211
270366
270525
270683
270838
270995
271150
271274
271463
271622
271778
271933
272087
272246
272405
272560
272717
272874
272997
273190
273348
273505
273660
273815
273977
274133
274290
274447
274605
274764
274884
275078
275238
275392
275549
275670
275863
276018
276175
276333
276462
276641
276799
276956
277113
277231
277425
277581
277737
277896
278052
278207
278361
278518
278676
278832
278985
279143
279300
279455
279615
279773
279928
280048
280243
280401
280556
280712
280868
281026
281182
281337
281494
281649
281805
281965
282120
282276
282431
282589
282724
282904
283060
283219
283376
283532
283688
283846
284004
284160
284322
284478
284604
284797
284956
285115
285271
285398
285591
285744
285903
286061
286217
286371
286491
286689
286845
287000
287155
287275
287468
287625
287782
287938
288060
288252
288411
288566
288722
288878
289040
289193
289334
289506
289664
289819
289979
290136
290292
290448
290606
290765
290883
291080
291240
291396
291554
291673
291873
292028
292185
292345
292501
292658
292813
292941
293136
293293
293447
293606
293762
293919
294079
294236
294389
294509
294707
294864
295021
295177
295310
295494
295648
295804
295963
296118
296273
296402
296590
296746
296900
297058
297215
297370
297526
297685
297842
298001
298158
298283
298474
298631
298792
298947
299101
299258
299415
299571
299728
299885
300024
300199
300356
300517
300674
300801
300992
301149
301305
301461
301619
301777
301934
302092
302251
302407
302563
302722
302884
303039
303197
303356
303516
303676
303835
303960
304154
304309
304469
304628
304785
304939
305063
305258
305415
305570
305728
305850
306044
306201
306356
306511
306654
306826
306983
307139
307296
307453
307610
307767
307923
308081
308238
308396
308544
308715
308870
309028
309188
309344
309500
309658
309817
309974
310132
310268
310449
310604
310762
310923
311078
311237
311392
311554
311712
311869
312028
312189
312342
312464
312667
312820
312938
313137
313296
313424
313610
313766
313885
314083
314241
314367
314554
314709
314827
315025
315181
315335
315491
315613
315804
315961
316116
316270
316425
316582
316739
316894
317050
317208
317366
317495
317680
317839
317996
318154
318310
318468
318623
318780
318940
319061
319252
319410
319566
319725
319880
320037
320194
320351
320510
320639
320828
320984
321142
321301
321455
321611
321770
321928
322087
322242
322399
322559
322716
322876
323036
323161
323351
323507
323667
323824
323979
324137
324294
324450
324609
324766
324921
325081
325238
325398
325554
325710
325838
326030
326188
326344
326501
326656
326815
326973
327131
327288
327443
327603
327761
327916
328073
328197
328388
328545
328702
328860
329015
329171
329330
329487
329641
329798
329956
330114
330271
330428
330586
330743
330900
331061
331221
331375
331534
331692
331851
332010
332166
332325
332483
332642
332801
332959
333117
333276
333436
333592
333749
333907
334066
334225
334380
334501
334700
334857
335017
335173
335328
335487
335644
335805
335961
336117
336275
336433
336589
336746
336904
337060
337216
337375
337532
337687
337843
338003
338162
338319
338477
338597
338791
338949
339109
339268
339423
339580
339706
339901
340056
340214
340371
340492
340688
340846
341003
341158
341315
341473
341595
341787
341945
342103
342261
342415
342573
342730
342887
343044
343204
343361
343517
343676
343838
343996
344152
344312
344471
344629
344791
344951
345069
345268
345427
345588
345744
345899
346060
346218
346342
346538
346697
346852
347012
347171
347331
347486
347644
347804
347965
348121
348279
348439
348561
348755
348916
349074
349231
349388
349547
349671
349866
350026
350187
350342
350498
350658
350813
350969
351127
351287
351443
351562
351758
351920
352077
352232
352390
352547
352702
352862
353021
353176
353333
353491
353652
353808
353963
354088
354282
354440
354598
354757
354902
355069
355230
355388
355543
355700
355858
356020
356174
356305
356492
356650
356808
356967
357124
357280
357437
357598
357753
357873
358071
358230
358390
358547
358665
358864
359020
359180
359338
359493
359649
359749
359971
360128
360282
360440
360559
360752
360911
361066
361222
361375
361530
361690
361845
362000
362156
362281
362471
362628
362786
362942
363097
363258
363416
363573
363731
363890
364050
364205
364361
364520
364649
364836
364994
365118
365308
365465
365624
365781
365905
366091
366251
366408
366566
366706
366880
367037
367195
367355
367512
367667
367824
367986
368147
368302
368461
368625
368781
368908
369108
369264
369418
369576
369737
369893
370049
370206
370363
370522
370676
370835
370993
371147
371306
371466
371621
371778
371937
372097
372252
372406
372567
372725
372884
373003
373202
373359
373500
373677
373836
373990
374134
374304
374462
374618
374773
374930
375060
375240
375401
375558
375714
375833
376031
376189
376344
376501
376660
376817
376974
377132
377292
377449
377607
377730
377928
378084
378243
378403
378558
378715
378874
379033
379191
379348
379505
379625
379821
379980
380140
380296
380428
380610
380768
380927
381084
381242
381398
381525
381717
381876
382032
382187
382307
382505
382662
382817
382975
383113
383289
383444
383601
383758
383913
384073
384230
384383
384539
384699
384856
384983
385173
385331
385487
385646
385803
385960
386116
386272
386430
386589
386744
386901
387061
387182
387380
387537
387682
387849
388006
388166
388321
388476
388618
388790
388948
389106
389264
389421
389577
389737
389896
390053
390210
390366
390496
390688
390843
391005
391163
391320
391477
391636
391794
391952
392074
392269
392427
392582
392742
392900
393057
393180
393374
393532
393690
393849
394006
394162
394319
394476
394637
394793
394949
395107
395264
395424
395581
395740
395887
396054
396217
396374
396532
396690
396849
397009
397166
397323
397483
397641
397798
397958
398116
398272
398429
398590
398746
398885
399058
399219
399376
399530
399653
399846
400003
400163
400320
400440
400632
400790
400951
401109
401264
401421
401547
401739
401897
402055
402212
402368
402529
402688
402844
403002
403162
403319
403477
403633
403793
403951
404107
404267
404426
404582
404740
404900
405023
405219
405376
405536
405696
405820
406014
406173
406329
406487
406619
406805
406961
407118
407275
407415
407588
407747
407904
408060
408220
408378
408534
408670
408847
409010
409165
409322
409481
409639
409757
409954
410113
410269
410424
410582
410741
410897
411054
411212
411371
411500
411686
411844
412002
412159
412316
412474
412630
412787
412948
413107
413263
413385
413584
413743
413903
414062
414200
414376
414534
414697
414855
415011
415168
415330
415488
415644
415803
415961
416117
416277
416437
416595
416752
416910
417071
417228
417385
417545
417705
417862
418020
418181
418338
418460
418661
418817
418939
419132
419291
419450
419604
419725
419920
420077
420235
420394
420550
420707
420862
421023
421181
421337
421494
421654
421813
421970
422128
422286
422442
422599
422761
422919
423076
423235
423394
423521
423710
423869
424027
424187
424343
424502
424660
424818
424976
425138
425293
425450
425609
425768
425929
426085
426210
426405
426562
426725
426884
427041
427198
427357
427518
427677
427834
427994
428152
428311
428469
428628
428788
428947
429079
429267
429424
429582
429742
429902
430058
430217
430376
430533
430692
430851
431010
431166
431325
431488
431644
431767
431963
432122
432280
432437
432596
432753
432911
433070
433231
433357
433545
433706
433867
434025
434181
434340
434460
434658
434816
434976
435132
435271
435449
435606
435761
435919
436078
436237
436392
436553
436712
436869
437027
437186
437344
437500
437661
437824
437981
438102
438300
438459
438617
438776
438936
439093
439212
439413
439571
439727
439884
440012
440202
440358
440514
440673
440831
440987
441108
441309
441466
441624
441784
441909
442103
442262
442421
442579
442739
442898
443042
443215
443373
443536
443696
443852
444011
444132
444331
444489
444649
444807
444927
445127
445284
445441
445599
445757
445917
446041
446235
446394
446554
446714
446837
447036
447196
447352
447515
447673
447829
447953
448146
448306
448461
448618
448777
448936
449094
449219
449413
449572
449730
449891
450011
450211
450370
450531
450693
450849
450979
451170
451327
451488
451648
451770
451962
452122
452283
452441
452597
452719
452923
453079
453238
453398
453554
453716
453875
453997
454198
454354
454513
454672
454830
454989
455149
455305
455430
455627
455786
455943
456101
456263
456421
456578
456739
456899
457060
457219
457380
457540
457699
457819
458024
458181
458300
458499
458655
458779
458971
459131
459276
459444
459604
459762
459919
460076
460235
460367
460552
460711
460870
461028
461154
461344
461503
461661
461819
461981
462139
462265
462454
462617
462776
462935
463065
463251
463408
463566
463726
463882
464038
464195
464355
464514
464669
464827
464951
465145
465305
465464
465621
465743
465936
466098
466253
466410
466566
466726
466885
467043
467203
467324
467519
467683
467842
467999
468121
468313
468474
468630
468786
468946
469102
469227
469419
469579
469736
469892
470014
470212
470368
470524
470685
470843
471001
471159
471320
471477
471606
471796
471954
472111
472269
472434
472591
472747
472909
473069
473230
473388
473548
473667
473864
474026
474187
474344
474470
474661
474824
474980
475138
475297
475455
475576
475773
475932
476089
476246
476404
476564
476720
476878
477037
477195
477354
477513
477672
477800
477989
478152
478309
478467
478625
478786
478947
479103
479264
479424
479585
479743
479904
480061
480220
480381
480540
480699
480855
481016
481178
481336
481494
481654
481812
481973
482133
482292
482450
482606
482733
482930
483087
483245
483404
483524
483721
483880
484039
484197
484335
484516
484674
484831
484991
485151
485311
485468
485628
485789
485945
486107
486266
486425
486583
486744
486906
487063
487185
487384
487544
487704
487862
487990
488180
488335
488497
488655
488772
488967
489128
489288
489444
489560
489759
489917
490075
490236
490393
490548
490705
490866
491026
491181
491339
491461
491660
491817
491977
492135
492256
492448
492610
492768
492926
493049
493242
493401
493556
493716
493873
494028
494164
494346
494505
494661
494821
494944
495138
495295
495453
495611
495737
495925
496084
496241
496398
496561
496718
496842
497036
497198
497358
497516
497673
497833
497993
498153
498314
498435
498631
498791
498952
499113
499270
499428
499549
499751
499912
500071
500231
500364
500544
500707
500864
501022
501181
501340
501461
501653
501814
501973
502132
502287
502446
502603
502759
502920
503051
503238
503396
503555
503716
503874
504030
504160
504349
504507
504667
504825
504980
505138
505297
505458
505613
505756
505930
506087
506245
506407
506566
506723
506881
507046
507205
507363
507522
507643
507846
508006
508167
508325
508462
508642
508803
508960
509117
509276
509434
509591
509747
509909
510067
510225
510385
510547
510670
510864
511027
511186
511341
511500
511659
511820
511977
512135
512293
512450
512608
512769
512927
513083
513207
513403
513562
513718
513877
514034
514192
514350
514510
514667
514824
514985
515146
515304
515462
515621
515781
515941
516098
516258
516417
516538
516737
516896
517054
517212
517371
517531
517654
517845
518007
518163
518320
518449
518637
518795
518951
519113
519233
519424
519579
519738
519897
520050
520206
520364
520520
520679
520838
520997
521154
521313
521477
521636
521793
521953
522114
522274
522433
522595
522752
522909
523068
523230
523387
523543
523702
523865
524022
524179
524340
524498
524657
524818
524980
