peaks
75076
75265
75452
75640
75821
76012
76160
76388
76566
76753
76929
77111
77291
77468
77585
77838
78016
78188
78315
78542
78719
79062
79228
79402
79574
79717
79920
80096
80270
80389
80629
80807
80987
81102
81345
81523
81699
81812
82059
82232
82384
82589
82765
82940
83120
83293
83477
83662
83847
84033
84219
84359
84595
84779
84959
85147
85331
85517
85702
85891
86092
86289
86492
86705
86911
87116
87317
87518
87714
87915
88108
88306
88508
88707
88910
89114
89312
89517
89723
89926
90129
90326
90523
90719
90911
91103
91293
91481
91672
91856
92044
92235
92372
92614
92798
92984
93120
93348
93535
93723
93859
94106
94292
94478
94615
94855
95036
95220
95359
95592
95772
95961
96147
96336
96527
96719
96853
97113
97304
97495
97628
97878
98062
98253
98438
98566
98813
98996
99179
99360
99487
99724
99906
100086
100211
100447
100627
100811
100994
101177
101359
101549
101664
101934
102125
102286
102509
102694
102886
102997
103268
103464
103655
103848
104046
104238
104435
104640
104840
105038
105241
105446
105653
105855
106061
106268
106474
106675
106883
107088
107291
107503
107705
107907
108120
108328
108529
108737
108940
109145
109343
109545
109746
109954
110158
110361
110564
110765
110971
111168
111370
111571
111772
111973
112172
112370
112568
112771
112970
113168
113361
113556
113749
113948
114140
114333
114522
114717
114850
115096
115278
115463
115636
115813
115993
116172
116350
116531
116719
116913
117044
117305
117500
117696
117892
118086
118286
118485
118688
118888
119092
119290
119432
119700
119898
120093
120227
120478
120666
120850
121036
121218
121396
121581
121717
121954
122139
122330
122517
122704
122897
123086
123207
123475
123668
123866
123996
124256
124444
124633
124831
125021
125222
125419
125612
125813
126012
126210
126411
126608
126809
127005
127201
127324
127591
127780
127965
128150
128339
128517
128707
128835
129081
129266
129454
129642
129835
129954
130220
130406
130601
130720
130979
131168
131364
131490
131758
131952
132149
132353
132555
132683
132949
133149
133342
133534
133725
133913
134109
134309
134504
134709
134910
135119
135323
135529
135730
135928
136124
136319
136519
136712
136847
137099
137286
137474
137658
137838
138023
138210
138401
138583
138768
138955
139149
139339
139530
139725
139924
140121
140249
140519
140713
140910
141042
141306
141499
141685
141877
142076
142272
142467
142671
142881
143083
143287
143488
143686
143885
144082
144277
144472
144608
144862
145054
145246
145380
145633
145825
146015
146208
146399
146590
146791
146987
147179
147373
147572
147765
147971
148172
148373
148576
148768
148963
149161
149298
149556
149748
149932
150126
150313
150497
150687
150884
151075
151268
151459
151654
151851
152044
152242
152434
152558
152823
153009
153204
153331
153585
153771
153956
154143
154328
154513
154697
154894
155092
155285
155478
155683
155884
156096
156302
156504
156706
156903
157100
157291
157484
157612
157877
158067
158256
158437
158628
158810
159001
159183
159378
159509
159763
159962
160156
160292
160537
160729
160922
161112
161302
161497
161688
161820
162086
162276
162474
162668
162861
163057
163171
163445
163635
163829
164012
164206
164403
164597
164791
164989
165185
165379
165571
165758
165945
166126
166256
166495
166680
166861
166991
167224
167410
167589
167775
167966
168093
168363
168555
168753
168880
169153
169348
169504
169740
169935
170126
170318
170518
170717
170916
171122
171325
171529
171735
171939
172146
172356
172557
172766
172970
173167
173365
173564
173754
173943
174069
174321
174507
174690
174814
175056
175233
175415
175543
175774
175949
176128
176310
176494
176672
176858
177045
177239
177434
177625
177823
178019
178209
178403
178595
178786
178975
179161
179349
179543
179733
179920
180053
180303
180489
180672
180792
181053
181240
181431
181560
181818
182005
182200
182394
182594
182797
183012
183229
183449
183671
183891
184114
184240
184541
184747
184873
185153
185348
185540
185732
185925
186112
186244
186504
186700
186896
187089
187287
187483
187675
187876
188004
188265
188452
188645
188770
189017
189200
189380
189563
189738
189917
190101
190290
190491
190693
190899
191112
191324
191534
191744
191954
192158
192364
192570
192766
192972
193173
193370
193566
193763
193955
194099
194352
194552
194747
194944
195141
195342
195548
195756
195960
196173
196322
196595
196805
196939
197212
197408
197607
197739
197996
198183
198377
198513
198758
198946
199133
199265
199510
199690
199871
200059
200247
200438
200639
200841
201044
201251
201455
201660
201867
202071
202280
202482
202680
202886
203083
203281
203481
203612
203887
204086
204280
204468
204663
204860
205062
205263
205395
205668
205867
206065
206193
206464
206658
206853
206979
207241
207436
207629
207824
208022
208230
208435
208638
208852
209060
209272
209480
209686
209893
210100
210301
210501
210700
210896
211015
211282
211472
211660
211787
212030
212214
212396
212529
212759
212944
213124
213247
213502
213687
213868
214055
214241
214429
214619
214733
215009
215204
215394
215583
215781
215976
216102
216367
216559
216752
216943
217133
217324
217519
217706
217903
218105
218297
218500
218701
218904
219108
219317
219524
219736
219940
220143
220346
220552
220764
220971
221173
221379
221588
221793
222004
222205
222410
222619
222828
223026
223228
223430
223631
223833
224028
224225
224425
224620
224816
224953
225204
225395
225584
225717
225958
226138
226316
226463
226676
226852
227031
227159
227401
227581
227771
227954
228139
228331
228524
228652
228918
229114
229310
229437
229702
229894
230083
230268
230451
230640
230831
231025
231224
231434
231651
231866
232077
232284
232489
232695
232904
233117
233322
233532
233738
233952
234156
234363
234568
234773
234974
235175
235379
235584
235791
235997
236205
236410
236616
236750
237019
237218
237408
237546
237795
237987
238179
238323
238567
238758
238950
239082
239336
239524
239720
239866
240107
240302
240488
240636
240874
241068
241256
241397
241637
241825
242014
242132
242387
242567
242745
242871
243114
243300
243478
243668
243853
244041
244226
244423
244620
244741
245007
245195
245379
245562
245743
245924
246098
246282
246459
246645
246828
247014
247197
247384
247570
247757
247945
248135
248317
248501
248684
248866
249047
249229
249408
249584
249758
249941
250120
250299
250475
250657
250834
251021
251197
251386
251573
251760
251946
252138
252326
252517
252708
252899
253080
253270
253457
253636
253826
254012
254196
254381
254563
254754
254937
255126
255304
255491
255671
255860
256045
256232
256417
256597
256785
256978
257168
257356
257546
257734
257924
258110
258298
258484
258679
258869
259056
259250
259442
259633
259826
260010
260197
260387
260571
260752
260940
261124
261309
261495
261678
261865
262047
262237
262422
262605
262790
262980
263167
263351
263539
263732
263921
264105
264299
264487
264671
264858
265046
265234
265418
265604
265787
265969
266152
266324
266504
266688
266862
267041
267223
267403
267585
267763
267947
268130
268316
268499
268685
268869
269054
269242
269426
269608
269795
269981
270165
270344
270522
270707
270886
271062
271242
271423
271602
271780
271958
272132
272308
272486
272662
272840
273017
273200
273383
273570
273757
273945
274135
274323
274507
274700
274887
275071
275253
275440
275616
275796
275980
276156
276331
276509
276691
276868
277046
277217
277395
277570
277748
277924
278097
278275
278450
278629
278810
278985
279155
279334
279509
279681
279850
280028
280198
280371
280545
280714
280893
281068
281241
281415
281588
281771
281947
282122
282297
282472
282648
282825
283001
283171
283348
283521
283693
283866
284041
284216
284386
284568
284748
284926
285107
285288
285468
285649
285830
286003
286179
286360
286479
286709
286885
287053
287228
287400
287571
287740
287906
288085
288262
288442
288625
288807
288994
289179
289361
289544
289725
289905
290083
290261
290437
290607
290729
290966
291141
291313
291484
291654
291773
291990
292166
292328
292498
292667
292837
293008
293177
293356
293532
293708
293889
294070
294243
294427
294603
294789
294967
295150
295336
295519
295696
295880
296061
296239
296417
296600
296781
296960
297138
297317
297496
297668
297853
298032
298210
298393
298575
298753
298938
299122
299302
299492
299678
299860
300043
300233
300415
300591
300774
300949
301130
301307
301477
301655
301832
302011
302190
302368
302547
302723
302902
303086
303260
303435
303615
303793
303970
304147
304270
304502
304683
304857
305029
305200
305371
305541
305706
305876
306054
306225
306400
306576
306749
306926
307042
307285
307456
307635
307806
307975
308098
308325
308497
308666
308837
309006
309179
309360
309535
309719
309901
310081
310261
310439
310615
310796
310974
311153
311266
311508
311685
311864
312036
312210
312381
312559
312734
312910
313082
313228
313449
313627
313804
313984
314162
314337
314516
314699
314875
315054
315231
315411
315589
315769
315947
316127
316313
316493
316668
316853
317043
317228
317413
317599
317784
317969
318153
318334
318518
318693
318878
319053
319231
319406
319579
319754
319931
320105
320279
320461
320639
320817
320995
321169
321346
321531
321712
321891
322072
322245
322425
322595
322770
322942
323118
323294
323469
323641
323818
323997
324172
324344
324522
324703
324881
325061
325240
325416
325591
325768
325943
326118
326292
326473
326650
326833
327017
327201
327386
327566
327750
327941
328127
328309
328489
328673
328859
329050
329235
329418
329601
329785
329967
330152
330331
330518
330699
330882
331062
331240
331422
331606
331788
331969
332150
332329
332511
332693
332875
333056
333233
333414
333588
333775
333954
334129
334308
334487
334663
334842
335020
335199
335379
335570
335750
335941
336127
336311
336494
336677
336854
337038
337219
337398
337574
337750
337927
338104
338283
338462
338578
338819
338997
339175
339342
339520
339637
339864
340036
340202
340365
340530
340656
340872
341041
341208
341376
341542
341662
341882
342045
342212
342384
342552
342674
342890
343061
343227
343401
343573
343748
343921
344096
344272
344443
344626
344740
344987
345164
345338
345513
345682
345855
346027
346194
346360
346534
346710
346877
347053
347224
347390
347567
347738
347917
348087
348269
348447
348621
348804
348982
349157
349336
349513
349692
349869
350045
350220
350392
350572
350740
350918
351040
351270
351445
351617
351790
351962
352135
352304
352479
352650
352824
352995
353110
353343
353519
353690
353860
354030
354143
354371
354546
354715
354879
355045
355211
355379
355548
355720
355894
356061
356232
356405
356578
356756
356932
357108
357285
357462
357641
357817
357994
358171
358343
358519
358697
358874
359048
359228
359405
359580
359756
359927
360101
360281
360474
360663
360850
361039
361225
361409
361592
361773
361954
362130
362312
362485
362668
362847
363024
363198
363383
363560
363740
363919
364096
364274
364452
364629
364804
364923
365159
365332
365502
365664
365828
365996
366161
366322
366492
366607
366837
367004
367179
367346
367516
367640
367867
368041
368213
368382
368555
368671
368907
369082
369254
369427
369603
369717
369958
370127
370307
370481
370651
370773
371004
371181
371350
371523
371696
371810
372050
372225
372398
372574
372751
372933
373109
373287
373469
373655
373836
373949
374195
374379
374554
374727
374903
375073
375249
375421
375598
375779
375957
376078
376315
376489
376668
376840
377014
377186
377358
377531
377706
377882
378056
378167
378411
378586
378757
378934
379106
379273
379449
379620
379790
379964
380141
380318
380500
380677
380860
381039
381221
381401
381580
381754
381935
382103
382281
382456
382626
382804
382981
383158
383337
383515
383694
383870
384048
384224
384398
384575
384751
384925
385099
385275
385451
385622
385803
385977
386151
386326
386502
386674
386848
387022
387195
387364
387531
387707
387878
388048
388222
388395
388573
388748
388920
389091
389266
389384
389619
389793
389962
390127
390290
390415
390629
390795
390961
391130
391297
391421
391639
391810
391976
392147
392317
392430
392657
392826
392995
393161
393329
393455
393669
393838
394002
394166
394335
394461
394682
394854
395017
395192
395364
395484
395709
395882
396056
396227
396399
396518
396737
396910
397077
397244
397413
397580
397749
397921
398091
398266
398439
398555
398794
398971
399147
399318
399497
399671
399855
400032
400212
400393
400572
400747
400927
401109
401281
401461
401639
401817
401997
402176
402350
402532
402710
402884
403064
403243
403421
403591
403769
403950
404124
404299
404472
404641
404818
404994
405175
405350
405527
405700
405876
406051
406225
406394
406568
406747
406921
407089
407267
407440
407612
407781
407952
408128
408300
408474
408643
408820
408997
409172
409341
409522
409699
409874
410047
410228
410400
410576
410762
410941
411119
411307
411490
411676
411858
412039
412225
412406
412589
412770
412951
413139
413317
413496
413678
413858
414043
414224
414394
414575
414752
414931
415106
415289
415470
415646
415833
416019
416200
416384
416579
416769
416960
417144
417333
417522
417720
417911
418095
418279
418459
418645
418831
419018
419207
419396
419593
419792
419988
420183
420377
420570
420761
420954
421148
421340
421535
421728
421918
422105
422299
422486
422679
422869
423053
423230
423409
423591
423775
423885
424134
424316
424494
424670
424844
424955
425194
425372
425543
425721
425890
426013
426240
426419
426594
426776
426954
427068
427314
427496
427675
427853
428026
428206
428390
428569
428758
428943
429126
429315
429501
429692
429888
430075
430265
430461
430647
430839
431029
431216
431411
431607
431810
432009
432213
432413
432614
432818
433018
433219
433422
433621
433813
434011
434201
434389
434574
434762
434947
435131
435307
435489
435674
435847
436030
436216
436401
436582
436773
436964
437152
437336
437519
437703
437889
438076
438263
438450
438634
438824
439013
439199
439391
439579
439767
439957
440148
440338
440528
440718
440914
441099
441288
441480
441661
441854
442041
442229
442415
442601
442782
442963
443094
443328
443510
443688
443870
444047
444160
444396
444570
444743
444912
445085
445210
445422
445593
445763
445929
446106
446225
446454
446624
446804
446934
447157
447332
447507
447683
447859
447987
448223
448401
448582
448762
448951
449136
449323
449508
449702
449883
450072
450260
450447
450630
450818
451007
451195
451380
451565
451754
451946
452132
452328
452518
452712
452910
453105
453298
453494
453684
453878
454074
454274
454468
454661
454855
455048
455237
455428
455620
455812
456010
456200
456388
456578
456713
456956
457139
457321
457502
457683
457859
458037
458216
458396
458575
458760
458941
459130
459314
459503
459701
459893
460083
460271
460464
460645
460833
461010
461191
461369
461547
461732
461909
462092
462280
462470
462657
462851
463046
463235
463432
463620
463812
464006
464204
464392
464588
464777
464967
465158
465348
465539
465727
465916
466107
466291
466472
466662
466846
467026
467206
467379
467557
467733
467903
468023
468264
468442
468631
468821
469014
469209
469404
469606
469803
469993
470190
470388
470576
470767
470965
471158
471349
471540
471737
471927
472120
472308
472500
472696
472887
473078
473270
473468
473655
473852
474050
474243
474438
474623
474817
475011
475203
475396
475586
475777
475970
476162
476353
476545
476739
476934
477132
477336
477533
477727
477928
478126
478327
478526
478725
478927
479120
479316
479514
479706
479894
480080
480258
480438
480620
480797
480974
481148
481333
481521
481704
481900
482097
482299
482496
482700
482898
483105
483299
483495
483684
483869
484052
484234
484413
484584
484766
484945
485125
485310
485501
485695
485897
486095
486288
486478
486672
486863
487058
487250
487445
487641
487837
488034
488225
488423
488621
488817
489017
489207
489408
489595
489788
489985
490180
490377
490569
490768
490968
491173
491383
491590
491792
491993
492193
492394
492593
492786
492976
493167
493363
493552
493744
493932
494114
494304
494498
494685
494877
495071
495263
495448
495640
495825
496014
496203
496395
496590
496777
496967
497157
497347
497538
497729
497925
498112
498305
498495
498691
498879
499060
499246
499431
499616
499805
499991
500175
500360
500542
500724
500908
501095
501279
501470
501657
501852
502043
502239
502428
502629
502825
503019
503209
503403
503597
503780
503973
504157
504350
504541
504727
504915
505110
505296
505479
505665
505857
506042
506231
506414
506605
506790
506972
507159
507356
507549
507742
507933
508133
508323
508519
508714
508907
509104
509290
509471
509659
509852
510034
510226
510406
510595
510781
510969
511158
511350
511543
511730
511925
512118
512307
512504
512703
512902
513094
513292
513488
513691
513885
514087
514281
514481
514678
514877
515075
515273
515472
515672
515873
516068
516268
516456
516651
516845
517043
517236
517425
517622
517815
518012
518204
518401
518590
518785
518975
519174
519366
519561
519758
519952
520149
520349
520546
520739
520936
521134
521328
521524
521721
521926
522122
522322
522527
522726
522921
523125
523324
523517
523713
523910
524100
524298
524492
524688
524881
