peaks
75076
75222
75364
75508
75652
75796
75938
76082
76225
76371
76514
76660
76809
76958
77107
77258
77405
77551
77697
77846
77993
78139
78285
78428
78575
78718
78860
79005
79150
79294
79442
79590
79739
79882
80024
80164
80308
80451
80593
80741
80888
81036
81178
81324
81470
81612
81755
81897
82042
82186
82331
82479
82625
82773
82917
83067
83214
83360
83507
83653
83805
83950
84096
84242
84389
84528
84676
84822
84970
85118
85266
85416
85561
85705
85854
86002
86153
86301
86454
86605
86756
86907
87061
87217
87372
87527
87684
87840
87996
88148
88302
88457
88611
88765
88921
89077
89233
89386
89538
89686
89835
89984
90132
90281
90430
90581
90728
90874
91017
91167
91316
91464
91614
91764
91913
92060
92208
92356
92504
92651
92798
92944
93093
93243
93393
93543
93692
93841
93995
94147
94300
94451
94604
94755
94901
95050
95197
95344
95491
95643
95796
95951
96104
96256
96409
96561
96712
96865
97020
97177
97333
97492
97650
97808
97966
98125
98280
98435
98590
98745
98896
99047
99195
99343
99491
99636
99787
99933
100084
100231
100382
100529
100675
100820
100966
101114
101259
101406
101554
101702
101846
101993
102138
102287
102433
102583
102732
102880
103029
103179
103329
103480
103632
103786
103941
104094
104248
104401
104554
104704
104858
105012
105165
105319
105474
105626
105777
105927
106077
106223
106369
106516
106662
106809
106953
107097
107239
107386
107528
107670
107812
107955
108095
108235
108372
108513
108653
108791
108935
109079
109226
109373
109524
109673
109823
109972
110126
110273
110421
110570
110721
110872
111020
111172
111321
111472
111619
111764
111913
112064
112215
112370
112524
112679
112832
112989
113149
113308
113467
113623
113782
113874
114090
114241
114392
114541
114691
114841
114987
115134
115280
115432
115577
115728
115877
116029
116182
116332
116483
116633
116786
116939
117092
117248
117402
117553
117706
117855
118000
118149
118296
118442
118587
118733
118880
119026
119170
119319
119469
119623
119777
119935
120094
120254
120407
120559
120710
120855
121001
121146
121295
121443
121595
121746
121899
122049
122205
122360
122514
122666
122821
122974
123122
123270
123419
123569
123722
123872
124027
124180
124332
124479
124629
124778
124925
125074
125228
125385
125545
125706
125867
126027
126189
126354
126459
126676
126835
126991
127144
127294
127448
127599
127751
127903
128060
128215
128368
128522
128680
128838
128995
129156
129242
129466
129620
129773
129924
130070
130220
130368
130520
130669
130819
130971
131122
131271
131418
131568
131717
131866
132016
132171
132328
132480
132634
132785
132933
133082
133233
133387
133543
133693
133852
134002
134155
134306
134457
134610
134760
134912
135067
135223
135374
135531
135682
135834
135986
136141
136295
136444
136594
136744
136849
137042
137189
137340
137489
137638
137791
137946
138104
138262
138420
138576
138733
138888
139047
139202
139352
139501
139592
139804
139951
140097
140248
140399
140550
140703
140857
141011
141164
141317
141470
141625
141775
141930
142081
142168
142384
142537
142686
142836
142992
143144
143296
143446
143598
143752
143907
144064
144225
144386
144545
144701
144859
144952
145165
145318
145468
145618
145767
145916
146068
146222
146377
146533
146623
146846
147000
147151
147302
147449
147597
147748
147900
148048
148200
148351
148498
148644
148795
148948
149101
149258
149417
149574
149734
149894
150055
150212
150365
150517
150668
150818
150967
151118
151270
151418
151564
151714
151863
152012
152166
152321
152476
152630
152780
152932
153085
153235
153384
153534
153682
153830
153980
154132
154287
154439
154588
154742
154894
155048
155204
155361
155513
155664
155813
155960
156110
156257
156407
156558
156712
156865
157016
157172
157323
157478
157633
157790
157946
158105
158260
158409
158565
158714
158865
159018
159174
159334
159491
159649
159807
159967
160123
160282
160439
160596
160748
160898
161052
161205
161356
161511
161668
161829
161990
162153
162315
162475
162634
162792
162950
163106
163260
163411
163555
163699
163849
163996
164144
164293
164445
164595
164746
164897
165051
165201
165351
165504
165653
165801
165947
166095
166246
166398
166552
166707
166865
167024
167182
167342
167498
167653
167808
167967
168125
168283
168437
168595
168751
168903
169056
169206
169356
169508
169660
169813
169966
170121
170278
170437
170599
170761
170922
171085
171243
171401
171563
171721
171887
172048
172213
172374
172538
172700
172858
173023
173185
173274
173513
173679
173845
174010
174173
174328
174488
174646
174810
174972
175138
175304
175472
175637
175793
175952
176112
176271
176432
176597
176764
176927
177091
177248
177409
177564
177722
177882
178046
178215
178383
178549
178641
178869
179028
179184
179339
179498
179597
179813
179966
180122
180275
180428
180583
180731
180884
181034
181189
181346
181512
181682
181853
182024
182197
182369
182538
182703
182871
183032
183189
183345
183499
183652
183805
183961
184123
184287
184450
184612
184775
184934
185088
185240
185395
185547
185705
185862
186023
186185
186347
186508
186668
186828
186988
187150
187309
187469
187628
187780
187934
188092
188246
188398
188546
188701
188853
189005
189155
189310
189407
189614
189767
189918
190069
190218
190372
190519
190666
190813
190962
191110
191260
191411
191564
191718
191872
192029
192190
192346
192503
192662
192819
192975
193126
193281
193429
193579
193727
193878
194029
194182
194334
194484
194638
194788
194938
195085
195234
195377
195524
195668
195808
195950
196095
196240
196388
196535
196684
196838
196991
197146
197304
197464
197626
197783
197945
198104
198256
198411
198564
198714
198864
199017
199112
199315
199439
199592
199739
199882
200030
200180
200331
200484
200638
200798
200958
201116
201274
201426
201572
201723
201869
202020
202168
202312
202414
202602
202740
202879
203013
203155
203293
203428
203564
203701
203834
203965
204096
204226
204356
204488
204616
204749
204882
205015
205146
205275
205412
205546
205678
205813
205946
206084
206215
206351
206486
206621
206754
206887
207025
207160
207299
207434
207526
207712
207849
207984
208118
208253
208390
208526
208662
208802
208941
209081
209218
209354
209490
209626
209764
209904
210048
210194
210339
210486
210632
210779
210922
211066
211211
211357
211501
211645
211788
211931
212018
212213
212357
212495
212636
212779
212922
213064
213205
213345
213489
213629
213773
213915
214063
214211
214360
214510
214657
214805
214952
215101
215252
215404
215557
215711
215864
216017
216172
216325
216480
216635
216791
216878
217101
217252
217400
217545
217693
217837
217985
218137
218286
218440
218587
218736
218882
219025
219173
219319
219465
219609
219758
219909
220060
220207
220359
220508
220656
220807
220959
221109
221199
221410
221560
221707
221855
222004
222154
222308
222462
222619
222778
222935
223091
223249
223405
223560
223715
223873
224031
224184
224339
224492
224601
224794
224945
225092
225238
225381
225524
225668
225813
225960
226111
226265
226420
226580
226740
226899
227057
227217
227375
227533
227691
227845
228002
228155
228309
228463
228617
228771
228925
229084
229241
229395
229551
229708
229865
230019
230175
230330
230486
230641
230798
230952
231108
231263
231417
231571
231724
231881
232036
232191
232346
232505
232658
232815
232970
233130
233285
233442
233596
233750
233902
234055
234207
234361
234516
234670
234828
234984
235141
235299
235458
235614
235769
235928
236087
236173
236392
236543
236694
236844
236995
237148
237302
237454
237611
237770
237928
238086
238246
238407
238565
238718
238874
239026
239180
239335
239489
239645
239803
239960
240118
240274
240430
240588
240748
240906
241063
241223
241381
241540
241695
241851
242007
242161
242316
242473
242630
242789
242947
243104
243261
243422
243584
243743
243902
244062
244221
244377
244530
244682
244832
244982
245137
245290
245445
245598
245755
245912
246066
246222
246377
246533
246688
246841
246997
247151
247305
247459
247617
247775
247934
248092
248249
248408
248568
248729
248889
249045
249206
249365
249517
249671
249823
249977
250129
250280
250436
250592
250750
250906
251062
251217
251372
251529
251682
251835
251990
252147
252305
252456
252609
252765
252921
253074
253230
253384
253539
253688
253838
253988
254138
254291
254443
254595
254744
254892
255038
255183
255286
255470
255617
255758
255900
256038
256180
256318
256459
256604
256752
256901
257050
257202
257356
257507
257655
257801
257946
258087
258230
258373
258515
258659
258800
258944
259085
259228
259365
259507
259646
259787
259931
260077
260224
260371
260515
260657
260800
260938
261075
261212
261353
261493
261634
261779
261928
262073
262218
262363
262511
262660
262812
262962
263112
263262
263410
263560
263709
263855
264004
264155
264303
264450
264597
264743
264889
265035
265181
265266
265477
265623
265766
265906
266047
266188
266329
266475
266629
266784
266940
267100
267265
267423
267582
267737
267896
268050
268204
268356
268505
268648
268794
268938
269085
269232
269383
269533
269685
269836
269988
270143
270294
270443
270546
270743
270891
271032
271176
271318
271456
271600
271745
271889
272036
272173
272329
272474
272616
272758
272899
273037
273176
273314
273454
273597
273741
273891
274043
274195
274347
274499
274648
274796
274941
275086
275232
275379
275525
275608
275816
275963
276105
276249
276394
276537
276677
276814
276903
277098
277239
277380
277524
277667
277810
277955
278105
278257
278406
278556
278704
278855
279007
279164
279322
279478
279573
279798
279956
280110
280264
280420
280570
280724
280877
281034
281189
281344
281502
281661
281818
281977
282132
282287
282441
282597
282755
282911
283065
283220
283376
283462
283685
283835
283987
284138
284291
284442
284596
284747
284901
285062
285218
285372
285530
285689
285843
285999
286158
286315
286472
286627
286767
286940
287055
287257
287409
287557
287706
287857
288002
288104
288300
288447
288588
288730
288873
289019
289167
289318
289469
289624
289785
289947
290111
290273
290434
290597
290759
290923
291081
291240
291402
291561
291718
291879
292040
292202
292364
292525
292688
292849
293006
293165
293322
293479
293638
293795
293951
294107
294267
294423
294578
294736
294895
295054
295214
295371
295530
295687
295843
295999
296158
296316
296473
296630
296785
296942
297099
297255
297409
297564
297722
297882
298037
298196
298353
298510
298665
298821
298980
299138
299297
299455
299613
299768
299927
300086
300245
300402
300561
300722
300878
301035
301195
301354
301510
301669
301828
301987
302144
302303
302461
302622
302780
302938
303099
303259
303417
303574
303726
303881
304037
304193
304349
304505
304662
304816
304972
305126
305281
305435
305590
305745
305901
306056
306209
306364
306518
306671
306824
306979
307135
307290
307444
307600
307755
307907
308059
308214
308367
308521
308678
308832
308987
309141
309298
309451
309538
309761
309914
310065
310212
310367
310519
310673
310827
310986
311147
311307
311466
311625
311780
311935
312093
312249
312404
312561
312719
312875
313030
313185
313343
313498
313651
313807
313963
314121
314274
314428
314581
314737
314891
315045
315203
315361
315515
315673
315829
315983
316139
316296
316452
316606
316766
316921
317074
317227
317384
317541
317693
317850
318007
318160
318315
318471
318623
318780
318935
319096
319252
319412
319570
319729
319885
320041
320198
320353
320510
320667
320822
320978
321135
321292
321448
321605
321761
321919
322077
322233
322389
322545
322702
322855
323012
323165
323322
323476
323628
323783
323938
324095
324249
324405
324558
324711
324802
325018
325167
325315
325462
325611
325760
325913
326065
326219
326374
326529
326681
326818
326977
327128
327274
327421
327570
327662
327865
328007
328148
328288
328427
328565
328707
328850
328996
329145
329296
329447
329599
329746
329899
330055
330207
330357
330453
330650
330798
330937
331081
331222
331367
331509
331652
331794
331936
332077
332222
332367
332511
332654
332802
332948
333095
333242
333390
333542
333690
333839
333989
334070
334294
334440
334587
334730
334872
335011
335154
335294
335436
335577
335722
335864
336006
336149
336297
336446
336596
336750
336907
337062
337216
337368
337523
337675
337828
337982
338139
338293
338442
338593
338738
338885
339030
339177
339329
339482
339636
339791
339949
340104
340257
340414
340568
340720
340873
341030
341185
341336
341485
341638
341789
341943
342096
342252
342405
342558
342711
342861
343013
343164
343313
343462
343612
343762
343915
344063
344211
344360
344510
344661
344813
344965
345115
345265
345414
345567
345661
345869
346019
346166
346315
346463
346611
346760
346908
347057
347145
347360
347512
347658
347807
347956
348107
348257
348408
348558
348713
348867
349023
349179
349337
349490
349641
349795
349944
350092
350241
350386
350531
350678
350826
350978
351128
351281
351436
351590
351745
351900
352056
352208
352360
352513
352668
352820
352974
353128
353285
353440
353592
353750
353904
354060
354219
354377
354535
354691
354845
355000
355157
355313
355470
355625
355778
355931
356023
356239
356387
356539
356689
356843
356996
357149
357305
357458
357612
357768
357923
358078
358236
358393
358551
358708
358867
359025
359180
359336
359490
359642
359791
359941
360089
360236
360378
360519
360660
360802
360946
361090
361180
361389
361537
361685
361834
361983
362132
362285
362441
362596
362746
362902
363061
363219
363377
363538
363697
363856
364014
364173
364329
364486
364642
364798
364954
365109
365270
365429
365586
365742
365899
366051
366204
366359
366512
366665
366818
366974
367132
367287
367380
367597
367748
367900
368052
368204
368352
368502
368654
368809
368962
369117
369271
369425
369575
369727
369879
370028
370179
370334
370492
370646
370799
370952
371103
371252
371401
371553
371704
371855
372008
372158
372310
372456
372603
372750
372897
373043
373193
373342
373490
373634
373779
373923
374070
374221
374374
374532
374694
374851
375015
375178
375340
375499
375660
375824
375983
376142
376302
376457
376613
376768
376925
377082
377238
377397
377552
377707
377798
378018
378169
378321
378475
378584
378784
378933
379081
379231
379382
379532
379687
379843
380000
380157
380312
380468
380624
380782
380942
381100
381259
381419
381579
381740
381899
382058
382214
382369
382529
382685
382838
382993
383150
383306
383459
383617
383775
383931
384086
384240
384334
384538
384687
384832
384978
385118
385263
385407
385549
385694
385840
385986
386131
386276
386421
386567
386714
386860
387005
387151
387294
387435
387576
387720
387866
388013
388161
388308
388455
388599
388746
388897
389047
389199
389354
389508
389662
389812
389963
390115
390264
390413
390561
390708
390854
391001
391153
391301
391447
391596
391749
391898
392045
392193
392291
392492
392638
392783
392934
393084
393237
393396
393553
393709
393869
393957
394187
394342
394496
394649
394802
394952
395098
395252
395403
395556
395713
395869
396028
396185
396340
396494
396644
396795
396948
397100
397256
397413
397569
397722
397871
398020
398172
398322
398473
398625
398776
398926
399073
399222
399371
399518
399669
399817
399967
400116
400264
400413
400562
400709
400860
401015
401171
401331
401493
401652
401813
401974
402134
402294
402452
402613
402777
402938
403098
403258
403415
403558
403723
403879
404035
404192
404348
404504
404656
404810
404962
405111
405262
405411
405562
405714
405867
406022
406181
406345
406506
406670
406836
406997
407159
407247
407477
407631
407783
407939
408095
408248
408407
408564
408651
408880
409037
409194
409349
409438
409665
409819
409971
410125
410280
410437
410595
410754
410919
411078
411239
411401
411560
411724
411887
412048
412214
412376
412541
412704
412792
413030
413192
413352
413511
413673
413835
413993
414151
414309
414463
414621
414778
414937
415095
415250
415411
415570
415731
415889
416051
416210
416365
416519
416670
416821
416908
417127
417276
417426
417577
417731
417886
418042
418201
418361
418517
418673
418829
418986
419140
419292
419445
419597
419749
419905
420061
420224
420382
420538
420696
420855
421013
421174
421330
421486
421644
421803
421958
422113
422265
422421
422573
422730
422888
423044
423196
423350
423502
423650
423798
423943
424097
424251
424406
424561
424720
424877
425032
425194
425357
425516
425672
425828
425924
426137
426287
426438
426585
426734
426885
427037
427125
427343
427492
427641
427791
427942
428084
428251
428404
428557
428712
428802
429017
429165
429314
429461
429610
429761
429913
430066
430213
430358
430507
430651
430797
430948
431099
431249
431398
431549
431700
431851
432002
432154
432308
432461
432614
432768
432927
433083
433243
433402
433557
433712
433869
434024
434180
434336
434493
434651
434807
434964
435121
435275
435431
435582
435673
435882
436033
436183
436331
436477
436625
436773
436924
437071
437219
437365
437512
437658
437807
437959
438111
438260
438411
438562
438711
438858
439011
439164
439316
439469
439621
439774
439928
440081
440237
440397
440552
440706
440858
441004
441149
441293
441439
441589
441737
441886
442038
442187
442343
442503
442664
442825
442986
443147
443304
443460
443619
443771
443930
444086
444238
444400
444554
444707
444861
445016
445170
445326
445482
445639
445793
445952
446108
446261
446416
446567
446721
446876
447033
447188
447343
447495
447647
447803
447960
448114
448271
448431
448593
448755
448912
449069
449224
449384
449542
449700
449856
450013
450166
450318
450472
450626
450783
450936
451086
451242
451394
451547
451700
451849
452001
452154
452310
452466
452621
452777
452936
453096
453254
453412
453569
453727
453883
454039
454193
454345
454496
454650
454802
454954
455108
455265
455420
455571
455725
455880
456033
456185
456337
456489
456642
456800
456958
457114
457266
457422
457576
457729
457883
458036
458187
458338
458488
458638
458786
458931
459080
459233
459387
459539
459692
459842
459993
460142
460291
460438
460588
460733
460826
461026
461173
461318
461465
461615
461764
461918
462070
462227
462382
462533
462688
462845
463004
463165
463325
463482
463635
463793
463951
464107
464263
464420
464580
464735
464889
465044
465199
465352
465510
465669
465829
465992
466154
466314
466471
466629
466788
466945
467101
467259
467420
467580
467736
467892
468046
468202
468358
468518
468684
468844
469005
469167
469325
469486
469647
469807
469965
470127
470287
470449
470606
470763
470921
471080
471242
471406
471568
471729
471891
472055
472215
472375
472535
472698
472859
473021
473185
473343
473502
473662
473819
473979
474139
474297
474456
474615
474775
474932
475089
475248
475406
475567
475725
475887
476048
476206
476364
476520
476679
476837
476992
477148
477304
477461
477621
477778
477934
478091
478252
478411
478564
478721
478878
479033
479184
479333
479484
479634
479786
479942
480098
480254
480407
480569
480726
480887
481046
481206
481364
481517
481675
481831
481990
482148
482305
482461
482621
482780
482938
483094
483250
483408
483567
483724
483879
484035
484189
484342
484495
484650
484754
484965
485117
485270
485424
485577
485731
485889
486046
486205
486364
486522
486675
486831
486988
487150
487308
487469
487631
487790
487948
488106
488265
488422
488577
488738
488898
489059
489219
489378
489540
489698
489861
490018
490178
490335
490497
490651
490809
490965
491119
491277
491435
491595
491757
491917
492076
492238
492401
492561
492722
492881
493034
493185
493336
493488
493636
493785
493936
494028
494236
494384
494532
494676
494820
494966
495115
495266
495418
495584
495755
495926
496098
496273
496445
496614
496785
496944
497097
497249
497402
497552
497705
497860
498016
498170
498325
498483
498634
498788
498948
499105
499260
499416
499577
499737
499898
500055
500214
500369
500523
500675
500834
500989
501141
501294
501447
501600
501750
501901
502054
502205
502353
502505
502652
502795
502941
503088
503235
503385
503540
503696
503852
504004
504157
504314
504471
504624
504785
504942
505106
505276
505442
505606
505763
505920
506079
506238
506400
506562
506721
506880
507041
507203
507365
507522
507680
507836
507994
508148
508305
508469
508630
508789
508947
509107
509264
509422
509581
509737
509892
510053
510213
510372
510534
510695
510858
511019
511181
511342
511502
511661
511823
511982
512141
512305
512466
512625
512783
512943
513033
513265
513421
513575
513728
513885
514048
514210
514370
514527
514685
514839
514993
515096
515306
515459
515609
515762
515916
516068
516224
516379
516539
516699
516867
517031
517199
517358
517516
517669
517822
517974
518129
518283
518437
518593
518750
518906
519056
519211
519364
519515
519669
519830
519991
520146
520306
520462
520617
520770
520925
521078
521227
521377
521526
521673
521818
521963
522113
522261
522410
522559
522708
522856
523004
523155
523304
523454
523602
523750
523900
524050
524200
524351
524503
524655
524747
524966
