peaks
75204
75442
75639
75859
76067
76320
76559
76755
77013
77241
77507
77765
77952
78232
78511
78760
79008
79273
79446
79692
79918
80218
80484
80683
80883
81144
81342
81570
81829
82040
82275
82537
82779
83099
83380
83618
83798
84093
84346
84587
84816
85020
85236
85500
85714
85969
86222
86490
86743
86997
87203
87391
87587
87763
87996
88223
88478
88691
88913
89153
89345
89574
89803
90038
90263
90465
90683
90890
91150
91399
91646
91872
92054
92244
92423
92641
92891
93121
93290
93572
93782
93940
94106
94331
94601
94903
95116
95363
95608
95867
96118
96382
96634
96888
97110
97344
97589
97841
98098
98332
98547
98736
98969
99185
99432
99668
99936
100184
100398
100625
100849
101044
101255
101469
101697
101886
102111
102344
102537
102757
102995
103199
103402
103598
103862
104134
104350
104626
104876
105087
105340
105593
105795
106002
106217
106488
106751
107009
107276
107559
107799
108067
108287
108488
108705
108909
109134
109403
109599
109796
110037
110293
110541
110791
111031
111242
111435
111666
111859
112107
112371
112606
112804
113045
113280
113494
113678
113893
114085
114276
114509
114719
114978
115228
115489
115700
115937
116168
116411
116664
116910
117170
117404
117616
117812
118053
118268
118479
118675
118928
119192
119449
119686
119953
120220
120454
120627
120852
121065
121329
121534
121773
122002
122266
122542
122800
123058
123323
123564
123808
124065
124270
124461
124628
124848
125028
125276
125533
125756
125999
126227
126400
126600
126831
127105
127335
127559
127831
128047
128324
128576
128754
129043
129263
129454
129642
129933
130194
130430
130653
130923
131142
131387
131612
131867
132110
132396
132662
132897
133120
133378
133609
133787
134037
134279
134534
134801
134996
135237
135472
135679
135879
136109
136358
136610
136817
137079
137298
137537
137792
138006
138207
138379
138556
138747
138989
139227
139461
139717
139973
140203
140414
140626
140860
141107
141303
141538
141787
142039
142268
142515
142791
143000
143184
143372
143605
143887
144167
144446
144710
144885
145137
145371
145584
145795
145989
146196
146462
146693
146928
147119
147306
147544
147764
148009
148222
148423
148654
148882
149123
149349
149570
149827
150073
150264
150481
150693
150921
151181
151428
151663
151914
152158
152416
152667
152905
153156
153340
153599
153810
154036
154232
154481
154730
154998
155232
155435
155690
155947
156167
156371
156553
156797
157059
157239
157568
157831
158041
158243
158419
158623
158906
159136
159349
159590
159792
159989
160230
160454
160600
160866
161100
161328
161574
161811
162053
162258
162492
162679
162914
163173
163394
163577
163750
163935
164157
164417
164678
164932
165145
165346
165605
165820
166022
166278
166544
166820
167101
167307
167562
167812
168052
168331
168619
168857
169089
169331
169587
169856
170121
170337
170545
170837
171093
171297
171520
171750
171995
172278
172477
172723
172945
173202
173437
173682
173916
174111
174330
174523
174762
174962
175154
175390
175588
175780
176005
176193
176419
176629
176872
177115
177344
177549
177750
177994
178187
178364
178608
178815
179040
179248
179453
179665
179958
180206
180450
180697
180929
181171
181420
181621
181865
182094
182368
182584
182803
183064
183314
183582
183796
184047
184276
184525
184774
185016
185259
185519
185780
186020
186276
186498
186685
186875
187072
187325
187575
187781
188009
188204
188426
188655
188900
189142
189411
189611
189846
190045
190250
190448
190626
190821
191036
191294
191540
191728
191942
192199
192440
192680
192912
193094
193339
193584
193806
193996
194209
194403
194673
194895
195097
195347
195610
195816
196032
196245
196445
196656
196912
197135
197340
197615
197902
198155
198441
198734
199014
199213
199467
199667
199933
200171
200410
200645
200906
201157
201378
201563
201784
202007
202261
202467
202664
202847
203029
203282
203486
203696
203949
204208
204465
204661
204907
205126
205367
205598
205864
206099
206322
206520
206735
206965
207215
207396
207605
207839
208112
208357
208569
208766
209008
209267
209501
209753
210001
210174
210472
210711
210960
211234
211481
211714
211964
212218
212450
212646
212837
213032
213300
213575
213815
214041
214328
214544
214790
215061
215270
215518
215741
215991
216234
216471
216706
216912
217107
217344
217570
217802
218014
218283
218556
218825
219020
219227
219489
219682
219877
220115
220350
220629
220853
221172
221449
221666
221921
222167
222385
222640
222881
223122
223326
223547
223817
224040
224280
224527
224789
224997
225188
225469
225695
225928
226203
226437
226643
226895
227155
227418
227633
227881
228133
228341
228559
228806
229040
229244
229459
229672
229926
230117
230317
230545
230786
231020
231234
231466
231705
231909
232137
232342
232586
232830
233086
233338
233601
233816
234079
234339
234656
234881
235195
235460
235687
235947
236232
236469
236730
236953
237219
237542
237819
238062
238273
238533
238795
239046
239344
239605
239792
240082
240334
240576
240799
241063
241326
241563
241776
242031
242292
242502
242720
242873
243130
243352
243587
243781
243995
244249
244465
244679
244908
245106
245327
245532
245737
245916
246079
246248
246452
246674
246924
247180
247437
247643
247886
248111
248330
248591
248855
249112
249360
249529
249758
249976
250171
250458
250688
250939
251196
251400
251613
251819
252053
252279
252525
252801
253078
253323
253583
253838
254088
254344
254557
254761
255022
255228
255423
255611
255788
255993
256195
256426
256681
256907
257158
257361
257604
257796
258020
258211
258395
258649
258876
259100
259287
259529
259722
259969
260168
260362
260626
260895
261128
261346
261562
261784
261995
262235
262519
262770
262973
263170
263387
263630
263880
264112
264404
264690
264936
265139
265353
265621
265865
266092
266340
266610
266888
267144
267407
267673
267853
268127
268334
268554
268806
269054
269291
269508
269765
269954
270139
270354
270550
270748
270938
271181
271371
271565
271813
272024
272243
272430
272697
272897
273095
273371
273589
273818
274053
274298
274510
274682
274942
275152
275462
275725
276003
276342
276561
276884
277124
277335
277648
277858
278137
278356
278687
278959
279180
279446
279680
279869
280143
280383
280641
280869
281114
281391
281624
281825
282041
282228
282442
282714
282982
283241
283441
283672
283926
284174
284363
284592
284825
285089
285310
285573
285827
286067
286313
286546
286763
286965
287154
287422
287697
287895
288188
288429
288642
288870
289100
289313
289600
289885
290138
290332
290615
290868
291125
291312
291594
291882
292171
292439
292697
292869
293154
293384
293579
293789
294072
294289
294508
294677
294893
295108
295327
295528
295745
295985
296235
296487
296695
296904
297110
297365
297585
297768
297994
298239
298467
298678
298898
299085
299334
299550
299782
299971
300173
300329
300553
300781
301014
301242
301442
301631
301861
302110
302327
302562
302751
302948
303146
303351
303562
303838
304117
304327
304512
304758
305048
305338
305556
305828
306039
306271
306521
306732
306951
307161
307379
307573
307788
308015
308216
308450
308674
308903
309179
309444
309649
309836
310058
310298
310550
310801
311030
311240
311420
311604
311860
312092
312328
312523
312749
312969
313203
313416
313666
313927
314142
314374
314603
314835
315067
315326
315520
315739
315963
316249
316470
316674
316967
317185
317394
317685
317964
318185
318458
318671
318909
319140
319348
319527
319728
319934
320156
320358
320562
320753
321003
321221
321471
321705
321897
322080
322315
322560
322784
323050
323269
323541
323805
324060
324296
324544
324824
325069
325296
325558
325818
326015
326206
326459
326706
326974
327254
327530
327771
328010
328299
328559
328771
328975
329177
329405
329650
329827
330057
330299
330508
330770
331001
331258
331525
331794
332072
332341
332605
332804
333029
333241
333466
333726
333938
334176
334443
334704
334930
335105
335380
335637
335834
336043
336300
336563
336799
337003
337187
337382
337582
337847
338108
338346
338543
338754
338990
339221
339459
339692
339944
340191
340434
340663
340952
341247
341489
341712
341991
342194
342367
342661
342947
343203
343397
343614
343888
344144
344436
344673
344959
345178
345399
345647
345863
346093
346346
346579
346814
347062
347263
347503
347749
348002
348218
348490
348744
348959
349217
349482
349700
349932
350135
350314
350528
350768
351002
351237
351465
351666
351858
352051
352245
352491
352736
352924
353188
353389
353609
353870
354117
354365
354642
354927
355129
355410
355616
355846
356072
356376
356635
356847
357068
357279
357517
357775
358009
358213
358398
358635
358882
359080
359269
359479
359687
359923
360151
360416
360630
360851
361067
361278
361505
361669
361883
362086
362287
362478
362736
362989
363263
363460
363691
363903
364131
364384
364640
364893
365145
365368
365573
365811
366031
366260
366448
366678
366893
367151
367412
367677
367922
368220
368434
368677
368929
369162
369426
369657
369948
370204
370385
370551
370763
370978
371260
371532
371783
372049
372312
372533
372741
372970
373187
373407
373651
373839
374025
374256
374499
374689
374888
375097
375338
375538
375753
375966
376143
376342
376534
376710
376905
377151
377381
377610
377803
377995
378202
378401
378635
378841
379084
379273
379481
379740
379984
380226
380483
380746
381018
381292
381578
381833
382071
382314
382522
382693
382930
383184
383453
383684
383929
384184
384425
384694
384916
385160
385376
385635
385836
386074
386323
386508
386756
386972
387167
387351
387547
387788
388036
388292
388569
388764
388944
389128
389352
389537
389719
389937
390123
390333
390580
390825
391063
391246
391438
391693
391927
392170
392416
392661
392867
393099
393370
393599
393796
393982
394260
394485
394686
394898
395110
395369
395610
395817
396062
396281
396556
396825
397024
397317
397532
397803
398033
398266
398507
398710
398956
399213
399434
399621
399891
400125
400296
400516
400699
400919
401185
401428
401671
401953
402218
402453
402684
402919
403123
403334
403547
403747
403949
404187
404385
404599
404847
405062
405283
405465
405699
405925
406182
406433
406676
406920
407116
407309
407565
407837
408061
408281
408523
408760
408957
409186
409421
409702
409911
410132
410349
410597
410759
410991
411240
411489
411741
411990
412270
412496
412731
412998
413244
413507
413724
413971
414157
414404
414652
414887
415079
415284
415503
415735
415990
416248
416485
416716
416908
417123
417380
417600
417829
418085
418304
418522
418729
418911
419117
419284
419492
419723
419965
420231
420441
420684
420934
421121
421424
421661
421906
422174
422465
422756
422961
423250
423503
423770
423994
424276
424493
424711
424931
425164
425410
425662
425917
426179
426442
426692
426949
427205
427402
427597
427842
428043
428283
428538
428760
428950
429191
429444
429678
429932
430145
430328
430559
430792
430975
431151
431360
431539
431751
431971
432144
432363
432553
432803
433049
433248
433437
433597
433797
433983
434159
434362
434611
434812
435005
435242
435438
435628
435851
436122
436336
436597
436842
437085
437290
437537
437762
437945
438162
438369
438591
438882
439148
439345
439536
439773
440011
440228
440459
440679
440865
441096
441328
441573
441789
442003
442263
442514
442741
442979
443242
443501
443714
443957
444135
444376
444586
444767
444932
445114
445319
445529
445743
445941
446127
446380
446653
446880
447138
447355
447621
447856
448144
448390
448583
448858
449123
449329
449579
449822
450024
450257
450513
450700
451041
451310
451563
451777
452039
452322
452548
452809
453073
453315
453582
453823
454011
454222
454431
454632
454860
455118
455335
455521
455744
455967
456171
456346
456519
456702
456931
457187
457416
457641
457820
458051
458274
458457
458674
458873
459051
459271
459482
459688
459890
460105
460385
460621
460806
461061
461293
461514
461777
462006
462247
462482
462714
463007
463253
463435
463605
463837
464090
464356
464532
464788
465011
465252
465472
465675
465870
466067
466270
466509
466752
467002
467210
467430
467656
467842
468054
468313
468507
468756
468975
469232
469450
469689
469916
470137
470367
470605
470839
471118
471335
471565
471831
472045
472289
472492
472703
473009
473269
473530
473765
473947
474280
474591
474813
475062
475301
475504
475714
475968
476187
476415
476677
476931
477214
477424
477683
477919
478188
478388
478570
478804
479027
479274
479468
479690
479927
480156
480367
480572
480755
480920
481172
481376
481607
481829
482046
482229
482457
482659
482871
483077
483309
483515
483698
483876
484096
484359
484574
484772
485037
485235
485431
485687
485909
486139
486370
486593
486842
487104
487345
487519
487720
487918
488160
488397
488654
488865
489124
489365
489600
489805
490087
490287
490521
490759
491011
491222
491416
491629
491825
491988
492238
492457
492643
492836
493049
493290
493531
493784
494019
494237
494476
494725
494972
495181
495407
495619
495884
496104
496314
496546
496780
497005
497196
497438
497596
497785
498023
498239
498480
498768
498976
499262
499473
499731
499926
500177
500429
500671
500989
501234
501460
501666
501853
502113
502422
502700
502925
503175
503382
503655
503929
504171
504438
504660
504886
505098
505314
505565
505782
506027
506246
506417
506583
506833
507075
507268
507513
507711
507894
508095
508294
508485
508728
508972
509204
509392
509619
509809
510015
510250
510500
510722
510929
511112
511290
511488
511659
511867
512043
512295
512502
512751
513018
513297
513483
513680
513884
514126
514361
514631
514877
515137
515409
515595
515871
516084
516263
516539
516751
516940
517243
517440
517672
517890
518126
518364
518619
518841
519056
519268
519526
519783
520008
520239
520464
520688
520917
521104
521306
521529
521780
522000
522174
522409
522632
522881
523123
523350
523550
523728
523963
524148
524394
524609
524831
