peaks
75107
75379
75643
75914
76182
76425
76712
76981
77241
77497
77761
78021
78280
78546
78811
79065
79321
79584
79849
80109
80375
80648
80919
81185
81459
81732
81996
82266
82541
82812
83080
83360
83641
83915
84191
84464
84728
84994
85261
85518
85780
86038
86295
86557
86817
87075
87330
87585
87845
88059
88371
88636
88896
89155
89415
89675
89929
90188
90452
90708
90972
91234
91497
91764
92034
92299
92569
92839
93103
93378
93647
93912
94180
94454
94721
94986
95252
95518
95777
96045
96314
96576
96851
97126
97393
97662
97937
98201
98470
98743
99018
99281
99557
99834
100107
100382
100655
100924
101190
101465
101735
101998
102263
102533
102791
103054
103316
103573
103827
104086
104343
104596
104854
105108
105363
105619
105873
106122
106373
106630
106880
107129
107384
107641
107892
108149
108405
108652
108906
109162
109417
109672
109928
110178
110431
110689
110945
111196
111451
111706
111958
112218
112479
112734
113000
113264
113522
113782
114044
114298
114556
114819
115078
115334
115597
115858
116116
116382
116643
116899
117160
117424
117668
117953
118217
118484
118746
119013
119280
119541
119809
120079
120344
120611
120882
121145
121412
121681
121944
122205
122469
122733
122992
123259
123527
123790
124054
124323
124584
124848
125109
125367
125628
125881
126136
126393
126647
126902
127161
127418
127677
127934
128194
128458
128716
128981
129244
129505
129773
130039
130304
130574
130846
131112
131388
131663
131936
132211
132491
132760
133026
133301
133571
133842
134119
134391
134657
134925
135129
135460
135724
135988
136245
136503
136766
137034
137297
137566
137839
138107
138370
138640
138912
139178
139448
139714
139983
140247
140517
140787
141049
141313
141581
141844
142101
142367
142632
142893
143158
143422
143681
143937
144198
144463
144724
144982
145248
145519
145785
146056
146329
146592
146855
147124
147392
147656
147929
148205
148478
148758
149033
149303
149586
149869
150137
150418
150699
150971
151253
151534
151800
152081
152361
152632
152904
153180
153456
153726
154005
154284
154553
154832
155113
155383
155664
155944
156219
156503
156788
157056
157327
157600
157870
158139
158406
158668
158935
159200
159458
159720
159979
160239
160505
160769
161023
161287
161550
161813
162076
162338
162596
162858
163123
163379
163642
163900
164158
164422
164689
164946
165204
165465
165720
165975
166233
166489
166740
166998
167259
167511
167767
168022
168278
168526
168786
169044
169301
169557
169817
170078
170327
170582
170835
171087
171334
171591
171848
172098
172356
172616
172879
173131
173389
173648
173904
174168
174429
174687
174946
175213
175473
175734
175994
176260
176524
176794
177062
177322
177591
177861
178128
178390
178659
178923
179181
179445
179711
179969
180237
180506
180767
181035
181301
181570
181828
182096
182366
182629
182897
183162
183409
183654
183890
184119
184342
184560
184773
184987
185197
185399
185604
185808
186011
186211
186414
186613
186808
187006
187207
187410
187611
187820
188029
188235
188448
188660
188873
189084
189298
189511
189723
189938
190158
190376
190592
190814
191032
191247
191472
191694
191915
192132
192352
192573
192790
193014
193235
193452
193675
193894
194119
194351
194577
194810
195044
195282
195521
195759
196004
196250
196498
196748
196997
197250
197503
197756
198001
198256
198514
198770
199021
199275
199533
199787
200041
200294
200551
200802
201056
201315
201575
201827
202078
202336
202595
202842
203098
203352
203603
203849
204105
204358
204607
204859
205115
205368
205625
205878
206120
206371
206615
206855
207100
207344
207583
207825
208062
208289
208515
208737
208964
209191
209407
209646
209872
210088
210310
210526
210735
210942
211148
211355
211559
211757
211961
212166
212371
212575
212786
212998
213214
213431
213640
213863
214076
214296
214505
214719
214932
215142
215352
215560
215767
215973
216179
216387
216593
216799
216997
217196
217397
217597
217800
218006
218216
218431
218638
218848
219055
219266
219476
219687
219896
220111
220321
220530
220743
220951
221164
221378
221584
221805
222020
222230
222445
222657
222863
223073
223278
223485
223691
223892
224099
224310
224515
224732
224947
225156
225371
225591
225815
226030
226255
226480
226691
226904
227117
227334
227548
227773
227992
228208
228427
228642
228851
229061
229277
229493
229706
229925
230145
230357
230578
230799
231019
231242
231469
231694
231918
232135
232362
232587
232817
233044
233270
233496
233720
233946
234167
234395
234623
234847
235059
235272
235488
235702
235913
236118
236324
236542
236753
236960
237167
237377
237583
237784
237986
238189
238392
238593
238789
238986
239187
239386
239578
239776
239979
240177
240378
240575
240775
240980
241177
241380
241575
241774
241972
242168
242363
242562
242757
242951
243138
243329
243516
243707
243901
244097
244294
244492
244690
244898
245107
245313
245518
245729
245926
246127
246325
246522
246722
246917
247116
247319
247521
247722
247929
248134
248340
248546
248752
248963
249174
249386
249598
249806
250011
250223
250434
250643
250852
251061
251273
251484
251690
251904
252115
252325
252534
252742
252949
253164
253379
253598
253814
254035
254264
254485
254709
254936
255160
255386
255611
255840
256075
256250
256507
256741
256976
257207
257440
257675
257905
258138
258376
258615
258855
259094
259334
259575
259817
260059
260308
260558
260800
261045
261290
261535
261775
262015
262255
262492
262730
262953
263214
263451
263692
263937
264178
264415
264657
264893
265129
265368
265607
265844
266076
266313
266548
266780
267022
267262
267496
267730
267962
268193
268426
268658
268887
269115
269348
269580
269807
270034
270263
270490
270717
270947
271178
271405
271633
271855
272081
272307
272534
272753
272978
273204
273430
273657
273889
274118
274349
274471
274826
275067
275302
275540
275781
276021
276263
276510
276763
277014
277266
277512
277762
278014
278257
278505
278751
278999
279243
279492
279740
279985
280230
280480
280730
280972
281223
281474
281723
281974
282228
282486
282738
282995
283254
283513
283766
284023
284286
284547
284809
285071
285335
285597
285864
286129
286395
286658
286916
287183
287443
287702
287962
288224
288476
288734
288987
289233
289482
289729
289973
290213
290454
290695
290931
291174
291416
291650
291890
292129
292367
292608
292853
293094
293338
293586
293837
294091
294333
294581
294804
295073
295319
295566
295815
296056
296307
296557
296806
297050
297298
297550
297796
298045
298293
298542
298791
299038
299292
299542
299797
300050
300301
300558
300813
301072
301329
301583
301838
302097
302354
302605
302855
303110
303369
303621
303878
304136
304400
304660
304921
305183
305443
305698
305964
306230
306489
306746
307009
307277
307540
307802
308067
308334
308598
308864
309135
309403
309612
309946
310223
310494
310763
311019
311285
311547
311801
312061
312317
312570
312824
313083
313331
313583
313829
314068
314301
314537
314771
314999
315234
315462
315680
315897
316113
316328
316532
316740
316952
317157
317373
317591
317812
318028
318250
318474
318701
318923
319148
319380
319608
319840
320075
320307
320535
320769
321006
321242
321467
321696
321934
322169
322399
322630
322871
323109
323350
323591
323832
324058
324292
324526
324760
324990
325220
325447
325667
325873
326100
326329
326554
326780
327001
327232
327468
327692
327935
328172
328404
328637
328862
329101
329340
329576
329806
330051
330296
330532
330766
331008
331245
331466
331700
331921
332141
332359
332576
332806
333036
333260
333500
333747
333982
334215
334458
334696
334929
335170
335413
335657
335890
336137
336382
336626
336862
337108
337352
337590
337825
338070
338319
338566
338807
339060
339314
339572
339827
340082
340335
340587
340849
341110
341377
341638
341895
342164
342434
342694
342944
343210
343475
343734
343985
344253
344520
344747
345029
345292
345547
345791
346049
346303
346547
346792
347043
347288
347529
347782
348034
348278
348528
348786
349038
349285
349549
349814
350071
350324
350591
350854
351114
351366
351633
351896
352152
352409
352673
352938
353196
353457
353721
353987
354254
354519
354785
355057
355330
355602
355867
356141
356415
356690
356960
357224
357464
357783
358048
358314
358587
358854
359109
359368
359634
359887
360132
360399
360657
360904
361164
361418
361660
361912
362166
362406
362653
362904
363154
363398
363655
363912
364156
364408
364663
364917
365167
365428
365692
365956
366225
366496
366770
367040
367315
367590
367867
368134
368410
368687
368966
369245
369524
369800
370070
370331
370606
370880
371140
371401
371672
371938
372190
372460
372723
372974
373235
373486
373727
373979
374229
374465
374711
374948
375173
375393
375640
375862
376091
376321
376548
376780
377019
377260
377491
377737
377979
378220
378470
378725
378977
379228
379484
379740
380001
380250
380509
380769
381026
381287
381547
381808
382063
382331
382600
382873
383143
383417
383692
383964
384242
384526
384807
385078
385363
385647
385915
386178
386464
386748
387009
387221
387585
387838
388096
388373
388632
388884
389152
389414
389668
389933
390199
390453
390723
390992
391246
391515
391783
392048
392318
392592
392866
393142
393414
393694
393975
394252
394528
394811
395095
395377
395506
395677
395931
396217
396495
396776
397050
397336
397625
397913
398193
398484
398782
399073
399347
399640
399922
400191
400471
400752
401011
401284
401560
401819
402078
402349
402607
402862
403135
403411
403678
403958
404247
404522
404796
405083
405368
405644
405933
406222
406507
406798
407084
407362
407652
407938
408219
408517
408812
409104
409392
409691
409988
410271
410565
410858
411155
411425
411726
412022
412302
412581
412871
413161
413443
413736
414035
414333
414617
414911
415213
415498
415775
416068
416366
416644
416931
417225
417516
417792
418084
418367
418638
418926
419216
419499
419773
420064
420364
420646
420933
421226
421511
421785
422074
422360
422640
422922
423210
423499
423771
424052
424344
424617
424897
425185
425475
425758
426057
426355
426651
426938
427242
427544
427841
428131
428442
428745
429038
429333
429633
429924
430201
430495
430777
431051
431343
431630
431900
432163
432448
432726
432990
433273
433553
433817
434098
434369
434624
434891
435157
435407
435662
435916
436160
436408
436661
436903
437145
437390
437638
437882
438137
438394
438639
438902
439160
439414
439669
439925
440174
440423
440681
440931
441184
441425
441675
441923
442156
442387
442617
442844
443059
443289
443507
443723
443936
444150
444356
444574
444785
444991
445195
445396
445600
445806
446012
446218
446434
446656
446887
447126
447364
447612
447857
448100
448343
448599
448853
449107
449355
449615
449879
450141
450402
450651
450912
451176
451442
451712
451984
452260
452535
452814
453092
453371
453649
453929
454205
454464
454741
455018
455282
455552
455821
456084
456337
456606
456873
457121
457385
457642
457892
458148
458399
458626
458876
459000
459346
459585
459818
460048
460281
460511
460742
460964
461183
461401
461617
461839
462057
462280
462510
462738
462973
463203
463437
463670
463904
464140
464379
464616
464849
465089
465335
465582
465834
466088
466346
466608
466865
467126
467400
467678
467961
468248
468526
468802
469093
469380
469669
469952
470223
470516
470804
471074
471351
471632
471899
472151
472424
472687
472938
473208
473476
473718
473984
474250
474500
474755
475014
475257
475509
475769
476020
476264
476521
476771
477017
477270
477526
477771
478014
478272
478531
478783
479027
479287
479550
479803
480054
480313
480574
480830
481098
481370
481644
481918
482184
482459
482730
482991
483257
483512
483775
484037
484288
484542
484805
485075
485329
485591
485860
486120
486377
486651
486923
487184
487455
487732
487999
488261
488541
488821
489096
489379
489669
489950
490227
490525
490813
491089
491364
491649
491933
492210
492500
492789
493079
493360
493653
493942
494230
494514
494806
495096
495387
495669
495954
496240
496525
496795
497083
497371
497653
497926
498218
498511
498792
499077
499371
499658
499942
500234
500533
500813
501104
501399
501692
501968
502264
502560
502843
503135
503437
503727
504018
504320
504619
504907
505193
505489
505786
506070
506354
506649
506944
507223
507516
507806
508087
508379
508670
508957
509250
509542
509830
510095
510392
510683
510951
511234
511527
511816
512093
512376
512662
512929
513197
513490
513776
514049
514319
514609
514895
515168
515451
515737
516009
516285
516566
516845
517115
517401
517684
517956
518226
518511
518794
519069
519354
519645
519931
520217
520512
520808
521093
521387
521687
521986
522274
522575
522877
523172
523467
523763
524044
524331
524621
524895
