peaks
75068
75207
75347
75485
75622
75758
75895
76032
76169
76304
76440
76579
76716
76853
76952
77134
77271
77408
77546
77686
77822
77958
78095
78232
78370
78507
78645
78783
78920
79059
79198
79336
79433
79613
79748
79884
80022
80158
80294
80429
80566
80701
80834
80968
81102
81203
81371
81507
81645
81782
81918
82051
82185
82319
82453
82588
82721
82856
82990
83125
83261
83396
83533
83670
83806
83943
84080
84216
84352
84489
84628
84767
84903
85041
85179
85316
85454
85592
85729
85867
86005
86141
86279
86416
86554
86692
86828
86967
87103
87240
87376
87514
87651
87788
87925
88061
88198
88334
88469
88607
88745
88843
89019
89159
89294
89430
89567
89703
89840
89975
90110
90244
90379
90517
90654
90792
90928
91064
91198
91333
91467
91603
91738
91873
92011
92148
92238
92424
92561
92697
92833
92969
93104
93241
93378
93513
93649
93786
93922
94058
94193
94328
94465
94600
94736
94874
95009
95145
95282
95419
95560
95696
95833
95934
96107
96246
96384
96480
96656
96792
96926
97061
97194
97330
97465
97599
97736
97871
98007
98102
98283
98419
98556
98694
98831
98968
99103
99237
99370
99504
99638
99773
99905
100039
100174
100308
100443
100578
100714
100849
100949
101126
101262
101399
101534
101671
101808
101943
102079
102214
102348
102485
102621
102757
102893
103030
103132
103304
103440
103578
103716
103854
103989
104125
104261
104397
104532
104669
104806
104941
105077
105213
105353
105493
105631
105767
105905
106043
106180
106316
106450
106587
106720
106854
106987
107120
107255
107351
107525
107661
107795
107928
108062
108196
108331
108429
108604
108740
108875
109008
109141
109275
109411
109546
109682
109818
109952
110089
110227
110361
110496
110631
110767
110902
111037
111172
111308
111441
111578
111714
111849
111986
112120
112256
112393
112531
112667
112763
112941
113077
113212
113325
113479
113616
113750
113886
114021
114156
114291
114428
114565
114702
114837
114973
115108
115245
115382
115517
115612
115795
115933
116071
116206
116342
116478
116614
116749
116885
117022
117124
117296
117433
117559
117686
117842
117985
118125
118238
118400
118536
118673
118809
118945
119081
119218
119354
119492
119627
119751
119905
120041
120178
120316
120452
120587
120721
120856
120994
121128
121263
121401
121537
121672
121807
121942
122077
122213
122351
122486
122623
122760
122898
123034
123171
123306
123441
123578
123714
123849
123945
124123
124256
124390
124524
124658
124791
124924
125060
125193
125328
125464
125600
125736
125870
126006
126142
126276
126411
126512
126687
126825
126962
127099
127237
127374
127510
127645
127780
127915
128049
128183
128314
128445
128577
128709
128840
128972
129068
129241
129376
129509
129643
129779
129914
130049
130184
130319
130455
130589
130725
130861
130997
131132
131266
131400
131534
131669
131804
131939
132073
132208
132342
132478
132614
132750
132886
133022
133158
133294
133431
133569
133706
133842
133978
134112
134249
134385
134520
134656
134793
134928
135037
135199
135338
135477
135612
135749
135887
136024
136161
136298
136434
136571
136706
136843
136979
137115
137244
137345
137527
137665
137799
137937
138073
138208
138346
138481
138617
138754
138890
139027
139161
139296
139392
139570
139706
139841
139978
140112
140249
140384
140518
140654
140788
140922
141055
141190
141326
141460
141596
141735
141873
142011
142146
142281
142415
142550
142684
142819
142954
143088
143184
143360
143499
143635
143769
143903
144038
144172
144308
144442
144577
144714
144849
144985
145121
145257
145393
145529
145665
145801
145937
146075
146211
146347
146483
146618
146754
146890
147025
147162
147296
147433
147570
147706
147842
147977
148114
148249
148385
148522
148658
148795
148931
149035
149205
149340
149476
149612
149748
149883
150019
150115
150294
150429
150567
150703
150838
150974
151111
151249
151385
151524
151660
151796
151930
152067
152203
152339
152475
152613
152750
152887
153024
153125
153302
153439
153575
153711
153848
153983
154119
154253
154390
154528
154664
154802
154940
155076
155212
155349
155501
155676
155843
156001
156159
156316
156461
156602
156741
156878
156973
157151
157288
157423
157557
157691
157824
157959
158094
158230
158363
158483
158635
158769
158903
159040
159174
159310
159444
159579
159715
159852
159988
160124
160260
160398
160536
160673
160809
160944
161080
161216
161351
161485
161619
161753
161851
162027
162162
162297
162430
162566
162700
162835
162970
163105
163241
163377
163511
163648
163782
163917
164052
164186
164286
164458
164593
164730
164865
164999
165132
165266
165400
165534
165669
165803
165939
166074
166209
166343
166477
166614
166751
166885
167019
167154
167261
167423
167556
167690
167825
167958
168090
168224
168360
168497
168632
168767
168902
169036
169170
169304
169439
169575
169707
169841
169976
170110
170245
170378
170513
170649
170782
170917
171052
171186
171321
171455
171589
171725
171861
171995
172127
172261
172395
172529
172663
172797
172931
173065
173201
173336
173470
173605
173739
173875
174011
174147
174283
174417
174551
174687
174821
174956
175088
175222
175355
175490
175626
175761
175895
176028
176161
176295
176429
176563
176698
176827
176966
177098
177231
177365
177499
177633
177767
177899
178033
178166
178299
178433
178567
178701
178835
178969
179103
179238
179334
179512
179647
179783
179920
180055
180187
180316
180452
180586
180719
180853
180986
181118
181252
181347
181520
181655
181789
181921
182056
182188
182321
182455
182590
182726
182862
182996
183129
183262
183395
183527
183659
183793
183927
184060
184193
184327
184462
184596
184731
184868
184977
185140
185276
185411
185545
185681
185815
185942
186086
186222
186356
186490
186625
186759
186894
187027
187161
187295
187430
187566
187699
187832
187966
188100
188232
188365
188498
188632
188765
188900
189034
189167
189299
189431
189566
189700
189835
189969
190103
190239
190373
190508
190643
190779
190914
191049
191184
191320
191454
191589
191724
191855
191983
192128
192262
192397
192532
192667
192802
192936
193073
193208
193341
193474
193608
193743
193878
194011
194145
194278
194413
194547
194681
194817
194950
195084
195219
195354
195489
195624
195757
195891
196028
196165
196302
196439
196571
196709
196843
196976
197110
197244
197376
197509
197645
197742
197914
198048
198181
198313
198446
198579
198711
198845
198977
199108
199241
199372
199505
199639
199772
199903
200035
200167
200298
200430
200563
200696
200828
200960
201092
201225
201357
201489
201622
201757
201890
202023
202153
202289
202422
202554
202686
202819
202952
203085
203216
203349
203483
203617
203749
203883
204016
204150
204284
204416
204550
204684
204818
204953
205085
205219
205353
205485
205619
205752
205886
206020
206152
206286
206419
206553
206687
206819
206953
207086
207202
207349
207482
207615
207745
207880
208013
208145
208279
208412
208544
208678
208811
208944
209077
209210
209341
209473
209604
209737
209870
209965
210135
210238
210393
210535
210671
210807
210941
211076
211211
211343
211475
211610
211743
211876
212010
212142
212276
212408
212541
212675
212807
212941
213072
213205
213337
213469
213604
213737
213860
214001
214132
214266
214398
214531
214665
214800
214935
215071
215205
215338
215471
215605
215738
215871
216004
216139
216272
216404
216537
216668
216803
216939
217074
217208
217342
217476
217608
217741
217874
218006
218138
218269
218400
218533
218665
218797
218930
219062
219197
219334
219471
219610
219748
219885
220020
220154
220288
220422
220555
220690
220824
220957
221091
221223
221357
221492
221625
221758
221892
222026
222159
222293
222426
222561
222696
222829
222963
223096
223231
223367
223504
223642
223780
223915
224050
224185
224320
224455
224589
224724
224823
224993
225129
225262
225395
225529
225661
225793
225926
226059
226191
226322
226454
226588
226717
226852
226984
227118
227250
227384
227517
227650
227785
227919
228053
228186
228319
228453
228586
228720
228853
228987
229120
229254
229389
229521
229654
229786
229920
230049
230184
230317
230449
230583
230717
230849
230982
231114
231248
231382
231514
231647
231781
231913
232047
232181
232315
232450
232585
232719
232853
232986
233118
233252
233383
233516
233652
233787
233922
234056
234191
234325
234459
234593
234722
234857
234990
235124
235258
235392
235525
235657
235789
235921
236053
236186
236318
236450
236583
236715
236850
236986
237122
237257
237391
237523
237657
237790
237922
238035
238186
238320
238452
238586
238720
238854
238986
239117
239250
239382
239515
239648
239781
239915
240047
240180
240313
240447
240581
240713
240846
240981
241114
241248
241383
241517
241652
241785
241918
242052
242184
242317
242450
242582
242718
242853
242987
243121
243253
243387
243518
243649
243781
243914
244046
244179
244310
244445
244580
244713
244845
244977
245110
245241
245375
245507
245639
245773
245905
246038
246171
246304
246437
246569
246702
246836
246968
247101
247235
247369
247503
247635
247767
247901
248033
248164
248296
248429
248565
248700
248833
248965
249098
249230
249363
249495
249629
249763
249897
250031
250166
250301
250436
250568
250701
250832
250963
251095
251227
251359
251488
251623
251755
251887
252019
252151
252268
252413
252546
252680
252814
252948
253083
253216
253349
253485
253621
253755
253889
254022
254137
254287
254424
254560
254695
254830
254964
255098
255230
255362
255497
255633
255767
255899
256034
256169
256299
256433
256565
256661
256833
256964
257096
257228
257359
257490
257623
257757
257888
258019
258151
258284
258419
258554
258688
258820
258955
259085
259221
259355
259488
259617
259750
259882
260014
260146
260277
260408
260544
260677
260811
260936
261075
261209
261342
261474
261606
261740
261872
262003
262135
262267
262401
262533
262667
262800
262932
263065
263197
263327
263462
263595
263731
263865
263999
264135
264270
264401
264536
264670
264803
264936
265069
265204
265340
265474
265609
265746
265884
265995
266157
266297
266437
266575
266713
266850
266988
267126
267262
267399
267537
267674
267786
267950
268092
268232
268369
268507
268647
268785
268924
269062
269200
269340
269479
269616
269754
269891
270028
270165
270301
270438
270577
270713
270850
270987
271124
271260
271395
271533
271670
271805
271940
272075
272211
272347
272483
272620
272759
272895
273032
273169
273307
273447
273585
273725
273866
274005
274143
274253
274423
274563
274703
274841
274981
275121
275260
275401
275540
275681
275822
275961
276100
276241
276381
276519
276659
276799
276938
277079
277218
277359
277499
277639
277781
277921
278062
278203
278343
278486
278625
278770
278912
279054
279195
279337
279477
279619
279762
279902
280043
280185
280326
280468
280609
280750
280891
281031
281170
281310
281451
281592
281734
281873
282014
282155
282295
282434
282578
282719
282812
283004
283145
283284
283424
283563
283704
283845
283984
284125
284267
284410
284552
284696
284839
284982
285125
285266
285409
285550
285692
285791
285976
286118
286258
286399
286538
286680
286822
286964
287106
287249
287389
287533
287676
287819
287961
288100
288232
288385
288529
288671
288812
288953
289095
289236
289377
289521
289663
289805
289948
290089
290231
290326
290517
290661
290802
290942
291081
291223
291364
291505
291647
291788
291929
292070
292212
292353
292496
292636
292777
292919
293060
293202
293344
293464
293629
293770
293911
294052
294194
294335
294476
294617
294758
294900
295041
295182
295323
295465
295606
295748
295890
296032
296173
296314
296455
296594
296734
296873
297014
297152
297292
297430
297573
297714
297852
297995
298138
298279
298420
298560
298702
298845
298943
299131
299276
299418
299557
299697
299836
299979
300120
300260
300400
300543
300683
300824
300965
301106
301247
301388
301530
301673
301816
301958
302101
302243
302386
302527
302625
302814
302954
303095
303235
303377
303499
303663
303805
303947
304089
304232
304373
304516
304659
304801
304945
305088
305231
305374
305515
305659
305801
305944
306083
306227
306369
306511
306652
306794
306936
307079
307221
307364
307508
307650
307793
307936
308078
308219
308360
308502
308644
308756
308933
309074
309217
309358
309498
309638
309779
309918
310058
310197
310337
310476
310614
310755
310895
311034
311174
311313
311452
311592
311730
311870
312010
312149
312289
312426
312567
312671
312849
312988
313128
313267
313407
313545
313686
313828
313968
314109
314250
314392
314534
314674
314815
314958
315098
315240
315381
315522
315663
315803
315943
316085
316225
316322
316512
316652
316795
316937
317076
317218
317359
317499
317600
317787
317928
318070
318210
318351
318491
318632
318769
318912
319053
319152
319335
319476
319617
319758
319897
320038
320179
320319
320459
320559
320746
320888
321031
321171
321314
321456
321598
321742
321887
322028
322126
322316
322458
322599
322741
322883
323024
323166
323306
323448
323591
323733
323874
324014
324154
324293
324431
324570
324710
324850
324991
325129
325269
325410
325550
325651
325838
325980
326122
326262
326404
326544
326686
326787
326971
327112
327252
327391
327532
327671
327812
327951
328090
328231
328371
328510
328649
328790
328932
329071
329212
329352
329494
329634
329777
329920
330064
330161
330351
330493
330635
330775
330917
331059
331155
331340
331480
331620
331760
331899
332038
332179
332318
332459
332601
332743
332888
332986
333176
333319
333462
333605
333746
333889
334032
334173
334316
334414
334604
334745
334886
335027
335168
335309
335450
335592
335735
335875
336016
336158
336299
336441
336581
336723
336866
337007
337114
337291
337433
337573
337714
337854
337995
338137
338277
338421
338563
338708
338803
338996
339139
339280
339421
339563
339704
339848
339992
340134
340278
340421
340569
340665
340864
341012
341157
341298
341443
341587
341730
341873
342017
342112
342302
342444
342585
342725
342864
343002
343098
343283
343421
343560
343700
343840
343979
344119
344260
344403
344544
344686
344827
344970
345109
345253
345396
345537
345681
345823
345964
346108
346251
346392
346533
346677
346820
346962
347104
347248
347389
347532
347672
347818
347962
348102
348243
348384
348525
348666
348806
348949
349091
349197
349375
349517
349656
349797
349938
350077
350217
350355
350495
350636
350777
350919
351058
351159
351344
351484
351626
351767
351908
352048
352188
352329
352472
352612
352753
352893
353034
353176
353316
353457
353597
353738
353880
354021
354164
354305
354447
354590
354731
354873
355013
355154
355295
355436
355579
355720
355862
356005
356145
356288
356430
356573
356716
356857
357000
357142
357283
357425
357565
357707
357849
357988
358129
358270
358410
358552
358654
358834
358974
359076
359256
359396
359494
359678
359816
359956
360094
360232
360371
360511
360649
360789
360929
361070
361167
361354
361497
361617
361780
361923
362066
362207
362348
362489
362597
362773
362914
363055
363195
363334
363475
363615
363754
363895
364037
364177
364319
364462
364605
364747
364887
365028
365171
365311
365451
365593
365734
365875
366014
366155
366298
366439
366581
366722
366863
367006
367145
367286
367429
367569
367711
367853
367994
368136
368277
368417
368560
368700
368841
368982
369121
369262
369403
369542
369683
369790
369966
370106
370244
370386
370527
370666
370806
370946
371085
371225
371363
371503
371644
371783
371923
372065
372204
372344
372440
372629
372770
372910
373047
373187
373327
373466
373606
373747
373887
374028
374166
374306
374448
374586
374706
374865
375008
375149
375288
375429
375571
375671
375855
375997
376136
376275
376415
376555
376696
376836
376935
377119
377260
377402
377541
377681
377822
377959
378102
378242
378383
378525
378667
378809
378953
379095
379237
379380
379522
379665
379806
379947
380089
380232
380373
380515
380658
380803
380899
381089
381229
381372
381513
381652
381795
381938
382077
382219
382312
382503
382645
382784
382925
383063
383202
383342
383483
383625
383768
383910
384009
384199
384341
384483
384623
384766
384906
385045
385184
385322
385462
385599
385740
385880
386020
386158
386298
386438
386577
386716
386855
386994
387134
387272
387410
387547
387651
387826
387964
388102
388237
388372
388507
388643
388779
388912
389047
389185
389322
389458
389596
389734
389872
390012
390148
390289
390427
390570
390711
390851
390990
391130
391243
391412
391557
391698
391841
391982
392120
392264
392406
392547
392687
392784
392975
393116
393211
393398
393538
393677
393816
393954
394095
394235
394376
394516
394659
394800
394940
395082
395224
395366
395505
395646
395788
395928
396069
396206
396350
396490
396622
396772
396914
397053
397196
397337
397480
397621
397764
397902
398046
398144
398331
398472
398615
398755
398895
399035
399172
399314
399452
399594
399733
399875
400016
400156
400296
400437
400580
400720
400818
401006
401149
401290
401428
401571
401711
401852
401942
402140
402282
402418
402562
402704
402846
402988
403130
403273
403415
403557
403701
403846
403988
404129
404274
404417
404559
404701
404843
404953
405133
405274
405416
405559
405699
405842
405984
406103
406268
406409
406549
406641
406834
406975
407110
407252
407392
407530
407669
407810
407907
408095
408235
408378
408520
408661
408802
408944
409088
409227
409372
409515
409659
409802
409946
410050
410234
410375
410517
410658
410799
410942
411053
411224
411375
411521
411664
411807
411950
412051
412236
412378
412520
412660
412801
412944
413085
413227
413369
413512
413655
413797
413897
414084
414226
414368
414508
414648
414789
414929
415069
415209
415350
415493
415634
415776
415916
416020
416202
416342
416483
416625
416764
416904
417045
417184
417326
417466
417609
417751
417892
418033
418175
418317
418459
418602
418745
418890
419035
419174
419321
419466
419608
419736
419893
420034
420175
420314
420454
420596
420736
420878
421020
421121
421313
421455
421602
421746
421891
422035
422129
422325
422465
422610
422753
422895
423038
423179
423321
423463
423605
423748
423888
424034
424175
424320
424464
424605
424751
424896
425040
425186
425331
425473
425619
425764
425886
425990
426199
426343
426485
426628
426770
426915
427060
427203
427346
427488
427630
427771
427913
428054
428195
428336
428473
428616
428757
428898
429038
429179
429320
429460
429602
429743
429888
430031
430172
430314
430457
430599
430742
430883
431028
431171
431315
431458
431602
431745
431887
432031
432173
432315
432457
432600
432743
432885
433026
433166
433308
433446
433588
433730
433871
434012
434150
434290
434431
434571
434711
434849
434991
435130
435270
435410
435549
435689
435827
435966
436105
436240
436379
436517
436654
436794
436930
437067
437205
437340
437480
437616
437753
437889
438024
438161
438295
438433
438569
438706
438844
438962
439120
439258
439397
439535
439675
439812
439953
440093
440232
440372
440512
440652
440794
440934
441075
441216
441357
441499
441638
441782
441925
442066
442206
442346
442488
442586
442774
442915
443053
443196
443336
443475
443618
443758
443856
444041
444181
444321
444462
444600
444740
444839
445024
445164
445304
445444
445585
445726
445867
446009
446152
446292
446434
446576
446720
446862
447003
447144
447285
447425
447567
447709
447849
447955
448133
448273
448416
448559
448675
448843
448988
449131
449273
449415
449557
449701
449843
449985
450129
450269
450410
450555
450697
450841
450985
451128
451272
451414
451556
451701
451843
451985
452126
452268
452410
452550
452651
452836
452976
453117
453256
453395
453535
453676
453771
453958
454098
454238
454377
454516
454656
454796
454935
455076
455218
455356
455501
455645
455784
455930
456074
456216
456361
456504
456647
456791
456934
457076
457218
457359
457503
457644
457787
457929
458072
458214
458357
458497
458639
458781
458921
459063
459205
459344
459484
459624
459765
459906
460045
460183
460324
460463
460603
460745
460860
461029
461171
461311
461453
461596
461737
461879
462017
462163
462307
462449
462591
462734
462875
463019
463162
463303
463447
463591
463733
463874
464017
464158
464299
464439
464584
464728
464870
465014
465153
465298
465437
465581
465680
465868
466010
466151
466293
466435
466576
466718
466861
467003
467145
467288
467429
467573
467714
467859
468003
468147
468286
468428
468569
468708
468849
468988
469131
469272
469413
469556
469701
469844
469937
470135
470281
470425
470567
470711
470855
470997
471140
471283
471427
471571
471711
471852
471994
472132
472272
472411
472552
472694
472834
472975
473118
473258
473399
473540
473682
473824
473964
474104
474245
474384
474525
474666
474805
474947
475088
475229
475373
475515
475659
475801
475945
476057
476231
476372
476514
476655
476797
476937
477080
477222
477361
477502
477644
477785
477927
478066
478207
478349
478487
478631
478773
478914
479055
479195
479335
479478
479619
479760
479902
480044
480185
480328
480469
480613
480756
480857
481044
481188
481331
481473
481616
481760
481898
482042
482184
482325
482467
482607
482748
482890
483031
483172
483312
483452
483594
483733
483874
484014
484154
484295
484434
484575
484716
484856
484997
485137
485279
485419
485560
485701
485843
485983
486126
486269
486411
486554
486698
486841
486986
487128
487275
487420
487566
487710
487855
487998
488143
488287
488432
488578
488722
488868
489011
489155
489298
489442
489587
489727
489875
490021
490161
490307
490450
490596
490741
490882
491029
491174
491316
491460
491605
491751
491853
492044
492190
492331
492474
492615
492760
492903
493044
493185
493329
493471
493614
493757
493899
494043
494186
494328
494472
494586
494757
494905
495050
495190
495333
495475
495617
495757
495898
496038
496178
496318
496418
496600
496743
496884
497024
497163
497306
497448
497587
497729
497871
498012
498155
498296
498437
498580
498723
498864
499004
499147
499255
499432
499575
499716
499856
499997
500138
500279
500421
500559
500704
500848
500990
501134
501279
501375
501568
501710
501852
501996
502135
502278
502420
502563
502706
502850
502990
503136
503279
503379
503567
503710
503857
503998
504142
504283
504427
504570
504712
504855
504997
505138
505280
505422
505565
505707
505850
505991
506136
506279
506419
506566
506711
506854
506997
507140
507280
507422
507563
507708
507850
507996
508141
508285
508430
508574
508720
508867
509013
509156
509302
509445
509591
509735
509879
510023
510168
510309
510455
510601
510744
510889
511033
511177
511323
511466
511610
511755
511900
512045
512189
512333
512478
512623
512769
512915
513063
513209
513353
513503
513652
513798
513945
514091
514236
514381
514524
514670
514815
514958
515103
515246
515392
515536
515678
515824
515967
516112
516259
516400
516548
516692
516837
516983
517127
517271
517414
517556
517701
517847
517988
518135
518281
518424
518569
518714
518862
518959
519157
519301
519445
519589
519728
519875
520017
520160
520300
520447
520591
520734
520879
521024
521150
521314
521456
521601
521744
521887
522031
522175
522273
522466
522610
522751
522897
523040
523182
523322
523471
523615
523760
523904
524048
524193
524335
524481
524622
524769
524915
