peaks
75001
75163
75324
75485
75646
75807
75967
76127
76290
76453
76618
76781
76942
77103
77264
77424
77583
77743
77902
78062
78221
78379
78537
78696
78855
79013
79170
79328
79487
79646
79807
79968
80129
80290
80452
80610
80772
80935
81099
81266
81432
81596
81758
81917
82076
82235
82394
82554
82717
82879
83042
83205
83366
83526
83689
83852
84017
84183
84348
84512
84676
84838
85000
85160
85320
85479
85639
85798
85958
86075
86275
86431
86575
86742
86898
87059
87222
87387
87555
87724
87894
88065
88234
88406
88581
88756
88933
89109
89284
89457
89628
89800
89968
90136
90302
90465
90628
90791
90954
91120
91290
91456
91623
91792
91962
92135
92308
92481
92651
92816
92982
93143
93311
93484
93659
93833
94007
94182
94357
94532
94706
94878
95049
95221
95391
95560
95730
95902
96073
96241
96409
96575
96740
96907
97074
97241
97406
97568
97731
97894
98057
98223
98389
98554
98718
98882
99044
99205
99368
99532
99697
99862
100026
100190
100352
100512
100672
100833
100993
101151
101309
101465
101621
101780
101938
102095
102254
102411
102570
102730
102891
103057
103224
103391
103558
103723
103888
104051
104215
104379
104541
104702
104860
105018
105174
105331
105489
105647
105804
105959
106114
106270
106424
106578
106735
106894
107055
107216
107375
107535
107695
107857
108022
108188
108354
108524
108696
108869
109039
109210
109382
109553
109722
109891
110061
110229
110398
110567
110734
110900
111063
111226
111387
111550
111715
111879
112043
112208
112371
112535
112701
112870
113042
113209
113377
113545
113714
113882
114050
114219
114388
114558
114727
114897
115066
115236
115410
115584
115756
115929
116101
116272
116443
116615
116784
116954
117124
117292
117461
117630
117803
117975
118144
118311
118476
118642
118810
118979
119146
119312
119478
119641
119807
119972
120138
120303
120465
120627
120790
120951
121112
121273
121434
121596
121758
121918
122081
122243
122407
122570
122733
122896
123057
123217
123378
123538
123700
123865
124031
124197
124360
124522
124683
124844
125006
125169
125331
125492
125652
125810
125967
126128
126289
126451
126615
126784
126954
127122
127287
127453
127619
127786
127953
128119
128287
128457
128625
128793
128959
129124
129289
129456
129621
129787
129953
130118
130281
130446
130609
130769
130931
131094
131258
131423
131587
131750
131914
132077
132240
132403
132567
132730
132891
133052
133214
133375
133537
133700
133862
134025
134189
134357
134525
134696
134866
135039
135210
135381
135551
135721
135894
136068
136241
136412
136582
136751
136919
137088
137257
137428
137598
137766
137933
138099
138263
138430
138593
138757
138920
139083
139244
139407
139571
139734
139898
140060
140221
140383
140546
140711
140878
141043
141207
141370
141530
141691
141851
142014
142179
142343
142506
142669
142804
142992
143152
143313
143474
143636
143796
143957
144116
144276
144439
144604
144771
144938
145105
145272
145438
145604
145725
145939
146102
146262
146425
146555
146751
146915
147060
147245
147407
147568
147729
147889
148049
148211
148373
148536
148698
148861
149023
149188
149355
149523
149693
149860
150025
150190
150352
150515
150680
150844
151005
151167
151328
151489
151648
151809
151970
152130
152289
152448
152605
152763
152922
153081
153241
153402
153565
153730
153895
154063
154235
154407
154581
154754
154925
155095
155263
155433
155600
155768
155935
156099
156264
156427
156590
156754
156920
157084
157248
157412
157576
157740
157901
158063
158222
158384
158547
158716
158886
159058
159235
159410
159585
159756
159930
160102
160277
160452
160625
160795
160960
161124
161286
161449
161612
161775
161937
162097
162253
162410
162565
162722
162883
163046
163217
163390
163566
163741
163918
164093
164267
164442
164614
164788
164965
165145
165325
165502
165680
165855
166028
166202
166377
166554
166729
166904
167077
167247
167417
167586
167756
167927
168097
168266
168433
168601
168769
168937
169106
169277
169448
169621
169790
169958
170127
170293
170458
170626
170795
170964
171137
171308
171478
171646
171812
171976
172140
172305
172472
172640
172810
172980
173149
173317
173482
173647
173814
173980
174146
174311
174478
174589
174808
174972
175137
175302
175467
175631
175795
175962
176130
176300
176471
176642
176814
176990
177168
177348
177530
177709
177885
177992
178230
178401
178571
178742
178867
179080
179248
179415
179582
179748
179914
180079
180251
180425
180600
180777
180959
181145
181329
181516
181703
181889
182073
182259
182443
182623
182800
182976
183152
183330
183507
183681
183856
184028
184198
184369
184540
184713
184888
185062
185236
185405
185570
185737
185905
186074
186243
186412
186583
186760
186932
187106
187281
187453
187621
187792
187965
188141
188320
188502
188685
188863
189042
189221
189400
189581
189763
189944
190121
190292
190463
190636
190811
190988
191163
191338
191513
191689
191864
192038
192218
192402
192586
192770
192957
193148
193340
193520
193695
193877
194058
194237
194422
194602
194780
194958
195137
195314
195491
195671
195853
196035
196210
196385
196559
196733
196906
197081
197257
197436
197618
197803
197987
198170
198352
198533
198717
198897
199078
199260
199439
199617
199795
199974
200156
200339
200524
200705
200882
201054
201226
201396
201568
201742
201918
202095
202271
202444
202617
202795
202979
203167
203352
203539
203728
203916
204101
204285
204470
204656
204839
205023
205208
205394
205578
205760
205941
206123
206304
206487
206672
206855
207033
207211
207387
207562
207740
207916
208092
208267
208441
208613
208784
208955
209127
209302
209478
209651
209824
209999
210174
210352
210529
210703
210877
211051
211228
211406
211580
211754
211928
212099
212271
212442
212616
212794
212968
213141
213315
213491
213667
213796
214028
214206
214383
214560
214737
214914
215091
215269
215447
215625
215806
215985
216166
216351
216535
216716
216896
217078
217258
217437
217617
217728
217977
218151
218324
218497
218674
218855
219035
219214
219394
219576
219758
219940
220123
220308
220489
220671
220851
221033
221212
221390
221566
221742
221919
222094
222270
222445
222623
222798
222972
223146
223322
223500
223678
223853
224024
224195
224362
224534
224706
224884
225061
225236
225410
225581
225750
225921
226093
226265
226438
226610
226783
226955
227129
227305
227484
227662
227837
228015
228194
228372
228552
228728
228901
229072
229245
229419
229594
229768
229944
230118
230290
230462
230634
230809
230984
231159
231331
231502
231674
231846
232021
232194
232367
232540
232714
232884
233054
233228
233403
233576
233749
233926
234105
234281
234459
234639
234819
234996
235171
235348
235526
235701
235874
236047
236220
236391
236563
236733
236907
237082
237258
237429
237600
237772
237945
238119
238293
238466
238637
238808
238980
239152
239326
239500
239675
239850
240026
240203
240381
240557
240734
240909
241081
241254
241426
241598
241771
241945
242115
242283
242454
242593
242800
242972
243144
243317
243491
243662
243832
244002
244176
244353
244531
244707
244885
245062
245241
245420
245597
245770
245943
246115
246286
246459
246633
246809
246984
247161
247336
247513
247691
247871
248049
248228
248407
248587
248766
248943
249126
249307
249485
249662
249779
250020
250200
250379
250557
250735
250912
251088
251264
251441
251624
251802
251979
252157
252333
252509
252688
252865
253043
253222
253395
253571
253746
253924
254101
254277
254451
254626
254799
254973
255150
255323
255496
255669
255843
256015
256187
256360
256534
256709
256884
257059
257234
257410
257587
257764
257942
258121
258301
258483
258662
258842
259022
259199
259373
259547
259723
259900
260078
260257
260438
260619
260800
260980
261161
261341
261521
261698
261873
262048
262221
262396
262571
262747
262924
263099
263273
263449
263627
263804
263983
264158
264332
264511
264690
264870
265047
265223
265398
265572
265746
265919
266091
266265
266437
266607
266774
266942
267112
267287
267462
267640
267819
267995
268169
268343
268520
268698
268873
269048
269222
269395
269570
269746
269923
270096
270273
270454
270634
270814
270996
271177
271359
271537
271713
271890
272068
272246
272422
272596
272767
272938
273107
273274
273442
273608
273776
273944
274111
274279
274449
274626
274802
274981
275160
275343
275526
275708
275889
276068
276246
276427
276606
276781
276956
277131
277304
277475
277645
277816
277991
278168
278346
278521
278695
278867
279040
279212
279386
279560
279734
279911
280084
280258
280431
280607
280785
280962
281141
281321
281500
281678
281853
282029
282204
282381
282556
282731
282906
283084
283262
283440
283616
283790
283965
284143
284322
284499
284676
284856
285034
285213
285393
285575
285758
285940
286120
286302
286481
286663
286846
287028
287207
287385
287563
287743
287923
288101
288276
288450
288627
288803
288981
289158
289333
289508
289686
289863
290039
290218
290397
290578
290754
290930
291104
291281
291457
291633
291810
291988
292165
292342
292519
292699
292879
293056
293234
293414
293593
293775
293956
294135
294314
294491
294670
294850
295035
295218
295400
295578
295753
295929
296104
296285
296466
296647
296825
297002
297179
297355
297534
297710
297887
298064
298243
298419
298596
298776
298957
299138
299315
299493
299675
299856
300037
300216
300394
300572
300751
300929
301109
301290
301472
301652
301831
302013
302197
302380
302564
302744
302928
303110
303291
303472
303656
303840
304020
304196
304371
304542
304719
304897
305077
305258
305438
305616
305797
305979
306160
306335
306507
306679
306851
307023
307195
307367
307538
307705
307871
308036
308202
308371
308546
308726
308907
309090
309273
309457
309643
309827
310011
310197
310386
310572
310756
310942
311126
311308
311484
311660
311835
312009
312182
312353
312524
312692
312866
313037
313208
313381
313553
313722
313891
314061
314231
314401
314577
314753
314931
315104
315278
315454
315633
315812
315989
316169
316352
316536
316717
316899
317083
317266
317446
317626
317809
317991
318171
318347
318523
318697
318870
319045
319220
319400
319581
319758
319937
320117
320300
320483
320665
320851
321035
321217
321399
321580
321763
321941
322118
322291
322469
322651
322835
323018
323199
323380
323559
323740
323922
324107
324292
324477
324659
324839
325017
325193
325368
325543
325720
325893
326066
326239
326415
326592
326766
326942
327113
327285
327458
327633
327806
327979
328147
328315
328480
328646
328812
328980
329147
329313
329477
329641
329803
329968
330135
330303
330470
330638
330808
330979
331148
331319
331489
331661
331833
332004
332173
332344
332517
332692
332866
333038
333211
333381
333552
333722
333891
334060
334228
334395
334563
334730
334894
335064
335230
335394
335556
335722
335889
336062
336235
336412
336593
336709
336950
337124
337294
337467
337635
337807
337976
338147
338316
338490
338665
338842
339021
339199
339376
339553
339731
339910
340087
340261
340433
340603
340777
340949
341126
341302
341479
341656
341838
342027
342215
342404
342601
342805
343007
343211
343418
343630
343843
344054
344269
344482
344689
344894
345093
345294
345499
345703
345912
346116
346315
346510
346701
346890
347080
347275
347472
347669
347867
348065
348269
348480
348695
348912
349128
349343
349562
349778
349995
350125
350425
350634
350840
351044
351249
351455
351660
351864
352070
352274
352480
352682
352884
353094
353300
353504
353709
353911
354113
354312
354513
354714
354917
355112
355308
355506
355710
355909
356105
356304
356509
356715
356924
357132
357338
357543
357748
357951
358158
358362
358566
358765
358970
359181
359395
359603
359800
359993
360183
360371
360558
360743
360935
361137
361347
361559
361767
361975
362184
362394
362603
362813
363022
363231
363438
363643
363850
364054
364254
364451
364650
364851
365047
365250
365456
365668
365877
366079
366281
366483
366683
366876
367067
367253
367446
367636
367828
368020
368213
368403
368595
368788
368988
369193
369399
369598
369797
369996
370194
370390
370584
370779
370976
371172
371367
371563
371763
371963
372166
372370
372574
372784
372996
373204
373415
373628
373838
374047
374255
374461
374663
374865
375069
375270
375466
375664
375865
376068
376271
376474
376672
376867
377056
377245
377434
377627
377822
378015
378216
378421
378636
378846
379058
379274
379497
379711
379924
380135
380348
380560
380766
380975
381189
381397
381600
381802
382010
382210
382418
382628
382854
383059
383259
383457
383648
383837
384025
384212
384400
384588
384777
384966
385152
385339
385529
385719
385911
386106
386308
386510
386720
386930
387144
387356
387557
387760
387967
388177
388383
388589
388797
388999
389197
389397
389597
389794
389990
390182
390379
390574
390768
390959
391155
391280
391538
391733
391920
392104
392286
392470
392652
392837
393028
393220
393360
393591
393777
393911
394144
394329
394480
394686
394861
395036
395212
395388
395536
395750
395942
396072
396345
396546
396684
396940
397134
397269
397515
397704
397845
398088
398278
398412
398682
398883
399013
399296
399499
399622
399898
400095
400211
400495
400690
400814
401085
401281
401405
401689
401895
402016
402313
402519
402637
402927
403125
403323
403526
403740
403958
404173
404392
404624
404850
405077
405313
405548
405773
406000
406231
406461
406687
406916
407147
407373
407599
407827
408045
408265
408479
408695
408906
409114
409318
409441
409720
409924
410044
410334
410536
410654
410949
411153
411273
411560
411763
411881
412173
412377
412580
412784
412992
413201
413327
413639
413852
414067
414287
414507
414729
414949
415162
415378
415591
415813
416033
416255
416480
416708
416927
417145
417363
417581
417799
418020
418244
418465
418684
418909
419140
419364
419588
419809
420031
420251
420471
420695
420921
421144
421364
421586
421818
422050
422277
422507
422730
422944
423162
423381
423604
423818
424032
424253
424477
424697
424918
425146
425367
425589
425811
426033
426255
426476
426704
426932
427152
427367
427584
427807
428033
428257
428488
428718
428940
429164
429392
429623
429849
430070
430302
430538
430767
430991
431217
431443
431663
431879
432095
432312
432525
432739
432952
433167
433375
433583
433789
433999
434208
434417
434621
434829
434966
435247
435455
435592
435853
436051
436196
436440
436638
436784
437041
437244
437381
437679
437891
438020
438312
438520
438647
438941
439154
439277
439575
439783
439907
440200
440408
440531
440823
441034
441159
441474
441693
441821
442130
442348
442565
442784
443008
443241
443472
443707
443945
444187
444421
444649
444882
445118
445346
445569
445793
446022
446253
446477
446701
446926
447156
447379
447599
447826
448056
448284
448511
448741
448972
449192
449412
449632
449857
450079
450296
450516
450739
450964
451185
451401
451621
451841
452059
452277
452498
452723
452942
453158
453374
453590
453803
454012
454222
454435
454647
454851
455055
455258
455468
455600
455889
456095
456230
456501
456705
456841
457108
457306
457442
457711
457923
458054
458352
458557
458689
458960
459159
459294
459524
459712
459895
460088
460287
460487
460688
460882
461076
461291
461524
461763
461991
462212
462437
462667
462899
463132
463360
463587
463810
464033
464263
464490
464713
464933
465156
465379
465596
465810
466013
466222
466349
466637
466835
466966
467221
467418
467564
467811
468008
468157
468423
468629
468768
469059
469272
469409
469713
469934
470064
470372
470586
470715
471012
471221
471351
471645
471855
471976
472281
472496
472621
472897
473097
473228
473498
473695
473828
474073
474263
474408
474634
474822
475019
475215
475410
475611
475812
476017
476217
476414
476610
476809
477005
477201
477397
477592
477785
477975
478168
478369
478576
478783
478990
479197
479414
479632
479779
480065
480278
480411
480700
480907
481038
481315
481519
481648
481931
482139
482268
482556
482764
482890
483188
483404
483533
483829
484041
484168
484465
484669
484796
485051
485239
485376
485625
485819
485956
486185
486371
486525
486745
486944
487091
487379
487594
487736
488043
488267
488399
488710
488933
489061
489391
489615
489740
490059
490283
490409
490736
490952
491076
491377
491592
491713
492037
492250
492376
492672
492885
492996
493309
493519
493640
493943
494154
494276
494565
494775
494897
495208
495424
495548
495856
496066
496189
496491
496710
496934
497157
497380
497618
497863
498012
498322
498553
498781
499002
499219
499435
499659
499890
500120
500346
500570
500797
501020
501242
501466
501691
501911
502128
502348
502575
502796
503019
503241
503476
503709
503935
504159
504386
504616
504842
505068
505294
505515
505736
505953
506182
506411
506629
506849
507074
507304
507528
507747
507965
508184
508403
508619
508836
509056
509286
509513
509741
509974
510202
510424
510650
510881
511114
511340
511563
511787
512015
512136
512457
512674
512796
513099
513309
513434
513715
513917
514042
514323
514531
514657
514957
515165
515291
515582
515789
515913
516203
516410
516536
516841
517057
517182
517484
517698
517824
518130
518348
518474
518788
519004
519119
519437
519651
519775
520079
520294
520421
520722
520929
521055
521350
521564
521684
521998
522217
522340
522664
522884
523100
523318
523549
523773
523999
524233
524475
524708
524942
