peaks
75055
75228
75400
75570
75743
75915
76087
76259
76433
76603
76776
76948
77121
77291
77462
77631
77793
77966
78138
78310
78481
78651
78823
78995
79168
79342
79514
79688
79860
80033
80206
80379
80577
80740
80917
81090
81262
81435
81605
81777
81949
82124
82299
82474
82649
82822
82996
83171
83346
83521
83692
83866
84039
84215
84389
84563
84736
84911
85086
85261
85434
85604
85778
85951
86127
86302
86476
86650
86823
86998
87173
87351
87526
87701
87878
88054
88229
88333
88568
88760
88938
89115
89292
89467
89643
89818
89994
90169
90347
90521
90696
90871
91045
91219
91394
91571
91743
91917
92092
92267
92462
92627
92805
92977
93171
93339
93514
93687
93859
94051
94218
94395
94567
94739
94913
95086
95260
95435
95608
95776
95957
96130
96295
96477
96651
96825
96998
97175
97351
97525
97699
97874
98047
98222
98399
98572
98746
98920
99095
99269
99443
99617
99790
99963
100136
100309
100476
100656
100830
101005
101181
101349
101542
101713
101889
102062
102239
102416
102590
102760
102933
103102
103277
103451
103625
103797
103970
104144
104317
104488
104657
104830
105024
105189
105364
105535
105707
105879
106045
106226
106392
106575
106747
106922
107097
107271
107445
107620
107793
107965
108140
108314
108488
108663
108837
109013
109191
109366
109538
109710
109886
110061
110235
110410
110586
110758
110932
111109
111285
111461
111636
111811
111985
112161
112337
112511
112684
112858
113033
113208
113380
113551
113723
113892
114068
114241
114415
114588
114761
114933
115107
115280
115452
115625
115798
115969
116144
116316
116488
116662
116833
117008
117183
117358
117524
117727
117893
118070
118244
118417
118591
118763
118935
119110
119284
119457
119631
119803
119976
120150
120325
120498
120671
120845
121020
121193
121367
121540
121711
121884
122060
122234
122429
122594
122770
122943
123118
123214
123435
123633
123813
123983
124155
124345
124518
124692
124867
125040
125213
125387
125560
125732
125903
126077
126273
126435
126609
126781
126953
127127
127321
127487
127657
127832
128004
128177
128351
128526
128697
128869
129043
129216
129389
129561
129732
129904
130077
130250
130422
130594
130766
130938
131110
131285
131457
131629
131801
131973
132145
132317
132489
132661
132832
133005
133179
133352
133524
133696
133868
134043
134216
134390
134562
134735
134904
135078
135254
135427
135600
135773
135948
136121
136293
136466
136661
136824
137000
137174
137347
137514
137686
137858
138031
138205
138381
138553
138728
138902
139076
139251
139425
139598
139770
139943
140116
140288
140462
140634
140807
140981
141156
141330
141503
141675
141847
142018
142194
142367
142537
142710
142883
143057
143231
143405
143598
143763
143940
144115
144291
144465
144640
144813
144988
145161
145335
145508
145681
145855
146031
146206
146383
146559
146755
146923
147101
147278
147457
147630
147804
147978
148156
148322
148503
148678
148854
149029
149207
149383
149557
149732
149907
150081
150254
150428
150601
150773
150946
151120
151293
151468
151642
151814
151988
152163
152337
152511
152686
152861
153036
153212
153409
153573
153749
153866
154095
154292
154467
154640
154812
154990
155166
155341
155461
155681
155868
156044
156222
156398
156576
156750
156871
157092
157273
157448
157622
157797
157970
158146
158317
158492
158667
158842
159019
159196
159371
159547
159723
159897
160073
160249
160424
160618
160783
160961
161135
161310
161483
161657
161830
162005
162182
162359
162535
162732
162898
163079
163254
163365
163588
163784
163959
164134
164312
164487
164656
164831
165008
165185
165361
165538
165713
165889
166068
166246
166421
166591
166765
166939
167118
167294
167470
167646
167821
167997
168175
168346
168522
168698
168875
169051
169226
169403
169577
169750
169926
170103
170280
170457
170634
170810
170987
171184
171353
171532
171708
171882
172058
172235
172411
172586
172763
172939
173115
173292
173469
173643
173819
173994
174173
174352
174523
174702
174870
175046
175225
175401
175575
175749
175926
176102
176277
176453
176647
176812
176989
177164
177337
177511
177683
177853
178044
178215
178390
178562
178734
178907
179081
179257
179430
179600
179772
179943
180115
180287
180459
180631
180802
180975
181147
181319
181490
181662
181833
181940
182155
182341
182523
182692
182864
183036
183210
183325
183538
183711
183896
184073
184245
184415
184593
184768
184944
185116
185288
185458
185629
185801
185972
186090
186304
186490
186671
186846
187020
187195
187369
187488
187698
187884
188066
188235
188416
188583
188756
188927
189037
189244
189428
189613
189797
189972
190146
190321
190491
190662
190835
191016
191183
191359
191531
191703
191876
192049
192223
192333
192553
192744
192926
193100
193271
193443
193628
193791
193962
194135
194250
194468
194644
194827
195002
195176
195366
195549
195714
195827
196048
196247
196428
196603
196776
196949
197123
197297
197468
197641
197814
197987
198162
198335
198521
198695
198871
199043
199215
199384
199557
199719
199891
200061
200234
200405
200578
200749
200864
201071
201261
201438
201609
201775
201948
202114
202284
202456
202623
202794
202964
203138
203309
203478
203648
203816
203985
204156
204327
204495
204664
204833
205002
205173
205344
205513
205685
205849
206028
206204
206371
206540
206711
206883
207055
207226
207396
207566
207734
207897
208076
208244
208418
208588
208760
208929
209099
209267
209437
209606
209776
209944
210116
210286
210455
210624
210793
210963
211132
211301
211469
211637
211805
211971
212133
212310
212478
212644
212811
212978
213145
213311
213480
213648
213828
213989
214160
214328
214495
214660
214827
214994
215163
215330
215496
215662
215826
215992
216160
216323
216494
216660
216824
216987
217150
217319
217485
217650
217817
217982
218149
218316
218482
218651
218831
218994
219165
219334
219501
219670
219838
220006
220177
220347
220515
220683
220852
221015
221188
221361
221525
221694
221861
222029
222199
222369
222536
222706
222874
223044
223214
223379
223560
223721
223893
224061
224230
224400
224569
224738
224908
225077
225248
225417
225586
225753
225922
226090
226258
226424
226595
226765
226939
227047
227263
227455
227624
227797
227967
228138
228311
228480
228601
228815
228996
229169
229351
229515
229686
229856
230027
230198
230368
230485
230697
230883
231053
231224
231394
231562
231731
231899
232025
232240
232412
232582
232751
232921
233091
233263
233435
233624
233790
233900
234116
234306
234474
234644
234813
234984
235156
235328
235475
235667
235838
236010
236181
236353
236524
236694
236863
237034
237226
237388
237562
237732
237901
238070
238243
238405
238582
238752
238923
239094
239265
239437
239606
239777
239947
240118
240290
240462
240633
240804
240977
241150
241323
241496
241668
241838
242012
242185
242359
242469
242690
242880
243056
243230
243402
243575
243740
243934
244103
244280
244453
244624
244794
244969
245142
245316
245488
245658
245773
245993
246177
246351
246542
246708
246886
247059
247233
247408
247512
247727
247926
248100
248277
248442
248625
248800
248974
249085
249313
249505
249680
249852
250026
250200
250374
250548
250720
250895
251070
251243
251417
251590
251763
251939
252115
252290
252406
252639
252813
252986
253160
253336
253509
253681
253855
254028
254229
254400
254577
254751
254926
255100
255271
255444
255617
255789
255896
256129
256318
256492
256665
256840
257014
257188
257385
257564
257738
257913
258085
258258
258431
258603
258799
258972
259162
259271
259488
259677
259849
260024
260199
260372
260542
260715
260825
261044
261237
261412
261582
261755
261927
262102
262275
262397
262622
262798
262970
263143
263339
263502
263674
263845
264015
264187
264356
264525
264695
264865
265036
265210
265382
265553
265657
265878
266074
266246
266419
266589
266776
266947
267121
267237
267451
267635
267809
267980
268153
268326
268496
268666
268781
269000
269178
269351
269520
269690
269860
270033
270204
270376
270549
270663
270887
271070
271243
271413
271583
271754
271925
272099
272272
272443
272625
272790
272964
273137
273312
273487
273658
273830
274003
274176
274284
274512
274699
274897
275060
275235
275408
275583
275755
275928
276102
276277
276455
276622
276797
276972
277145
277304
277491
277662
277832
278023
278192
278368
278534
278714
278887
279060
279234
279405
279568
279750
279922
280094
280275
280442
280613
280725
280944
281141
281324
281499
281676
281841
282013
282189
282359
282533
282704
282876
283046
283218
283391
283562
283732
283912
284081
284261
284430
284597
284772
284937
285109
285282
285455
285626
285792
285964
286145
286253
286455
286636
286816
286997
287172
287343
287512
287678
287848
288017
288184
288352
288519
288685
288851
289020
289190
289359
289535
289700
289859
290032
290200
290366
290535
290703
290875
291036
291207
291375
291552
291715
291881
292052
292220
292383
292554
292722
292910
293078
293250
293426
293595
293762
293936
294103
294301
294463
294635
294807
294977
295149
295341
295507
295679
295851
296024
296196
296368
296538
296709
296880
297052
297222
297393
297562
297732
297900
298069
298242
298412
298581
298694
298912
299099
299274
299445
299613
299780
299950
300120
300288
300457
300626
300792
300964
301140
301303
301469
301635
301800
301967
302136
302306
302476
302645
302814
302984
303153
303324
303493
303662
303829
303998
304168
304336
304504
304672
304840
305010
305195
305361
305531
305699
305868
306036
306208
306379
306549
306717
306886
307055
307238
307402
307569
307737
307906
308076
308246
308416
308585
308753
308923
309109
309276
309447
309612
309780
309950
310121
310290
310460
310644
310808
310980
311150
311321
311493
311664
311834
312006
312192
312356
312528
312699
312869
313052
313220
313394
313564
313737
313908
314081
314200
314410
314605
314774
314948
315120
315291
315462
315634
315801
315971
316143
316315
316485
316658
316826
316996
317168
317340
317510
317678
317850
317974
318192
318372
318542
318714
318883
319058
319233
319404
319576
319746
319865
320074
320261
320430
320598
320769
320938
321109
321280
321407
321617
321795
321966
322138
322309
322482
322653
322821
322992
323163
323275
323486
323675
323845
324016
324187
324358
324527
324697
324869
325039
325209
325326
325542
325716
325887
326058
326230
326400
326571
326741
326912
327086
327259
327448
327612
327786
327956
328129
328303
328475
328646
328837
329001
329177
329349
329522
329694
329864
330040
330211
330386
330559
330730
330901
331088
331257
331431
331604
331776
331946
332117
332290
332462
332632
332805
332980
333152
333323
333510
333675
333846
334016
334188
334357
334545
334710
334894
335059
335233
335405
335575
335745
335917
336028
336249
336432
336602
336771
336945
337115
337301
337468
337579
337793
337980
338152
338324
338494
338664
338852
339016
339190
339304
339518
339701
339872
340044
340213
340387
340560
340731
340904
341016
341240
341427
341599
341771
341942
342115
342288
342459
342579
342801
342974
343148
343323
343494
343665
343836
344009
344180
344352
344474
344688
344876
345049
345222
345393
345581
345749
345925
346039
346252
346443
346618
346790
346960
347133
347307
347491
347658
347785
347997
348177
348365
348533
348708
348878
349050
349221
349392
349559
349731
349903
350075
350266
350431
350603
350773
350945
351119
351293
351482
351643
351817
351988
352160
352332
352503
352674
352844
353015
353187
353358
353529
353700
353872
354044
354218
354411
354573
354749
354921
355096
355270
355443
355609
355781
355954
356128
356301
356475
356649
356822
356994
357168
357338
357510
357683
357855
358050
358215
358391
358562
358734
358906
359081
359255
359429
359602
359774
359948
360124
360298
360472
360647
360820
361011
361178
361354
361525
361639
361854
362045
362222
362394
362566
362737
362910
363086
363199
363420
363604
363774
363947
364120
364295
364482
364653
364825
364999
365173
365348
365521
365695
365867
366040
366211
366385
366555
366724
366885
367071
367242
367415
367588
367761
367933
368108
368282
368453
368626
368797
368968
369141
369313
369486
369657
369830
370003
370175
370348
370520
370712
370876
371051
371224
371396
371566
371737
371908
372080
372254
372426
372599
372717
372933
373118
373294
373466
373638
373811
373983
374156
374327
374518
374682
374855
375029
375204
375376
375548
375721
375894
376012
376236
376417
376590
376761
376934
377107
377278
377450
377621
377792
377963
378133
378307
378480
378652
378823
378997
379170
379342
379514
379684
379855
380027
380198
380372
380542
380712
380882
381075
381242
381417
381605
381768
381944
382118
382290
382462
382651
382814
382988
383177
383342
383515
383686
383861
384031
384204
384377
384547
384719
384891
385065
385237
385332
385548
385743
385935
386109
386283
386455
386628
386802
386974
387148
387319
387491
387661
387833
388004
388179
388353
388524
388695
388866
389040
389212
389386
389557
389727
389918
390084
390259
390429
390602
390770
390944
391060
391280
391465
391639
391814
391988
392163
392339
392515
392632
392854
393041
393216
393392
393566
393739
393911
394088
394262
394436
394609
394783
394955
395130
395306
395479
395652
395824
396000
396173
396347
396520
396691
396865
397039
397214
397388
397563
397735
397907
398100
398266
398441
398614
398788
398964
399139
399313
399486
399659
399835
400010
400186
400360
400533
400647
400868
401057
401232
401405
401578
401750
401923
402096
402272
402445
402619
402794
402967
403143
403317
403490
403664
403838
404011
404183
404358
404525
404698
404869
405044
405218
405392
405565
405739
405929
406099
406275
406448
406619
406792
406966
407139
407314
407489
407664
407839
408013
408188
408362
408537
408712
408888
409065
409243
409417
409591
409763
409937
410114
410288
410462
410632
410806
410979
411153
411330
411504
411674
411850
412024
412197
412370
412561
412727
412905
413081
413256
413431
413606
413782
413956
414130
414307
414481
414654
414828
415002
415177
415351
415525
415698
415872
416048
416222
416397
416571
416763
416929
417100
417281
417454
417628
417801
417978
418153
418332
418506
418678
418855
419031
419206
419383
419559
419735
419908
420082
420258
420431
420606
420782
420961
421138
421315
421489
421665
421842
422017
422195
422371
422548
422722
422899
423076
423253
423428
423603
423779
423955
424132
424309
424484
424659
424837
425012
425190
425384
425547
425723
425896
426070
426246
426421
426594
426767
426944
427122
427299
427475
427667
427834
428010
428186
428374
428543
428719
428892
429068
429245
429420
429593
429767
429942
430119
430296
430472
430648
430821
430996
431173
431347
431523
431698
431871
432045
432222
432398
432572
432746
432921
433100
433275
433449
433625
433799
433975
434148
434323
434519
434683
434860
435056
435222
435401
435572
435749
435923
436097
436272
436445
436616
436791
436966
437139
437315
437488
437662
437838
438014
438192
438365
438463
438689
438889
439090
439286
439469
439646
439822
439998
440175
440362
440535
440708
440884
441060
441235
441410
441584
441756
441927
442104
442278
442451
442626
442803
442980
443160
443338
443513
443689
443864
444039
444216
444393
444567
444742
444919
445094
445267
445440
445615
445788
445959
446134
446308
446483
446660
446833
447009
447185
447362
447560
447726
447904
448079
448258
448434
448609
448783
448979
449151
449342
449511
449687
449863
450054
450220
450395
450568
450742
450916
451089
451264
451439
451611
451786
451963
452137
452314
452488
452663
452834
453009
453182
453356
453530
453703
453869
454053
454229
454404
454580
454756
454934
455111
455288
455465
455638
455813
455989
456171
456349
456527
456701
456877
457057
457234
457411
457588
457765
457943
458121
458298
458474
458652
458831
459011
459188
459366
459542
459718
459895
460074
460253
460430
460606
460781
460957
461135
461313
461488
461666
461842
462018
462192
462368
462544
462720
462896
463074
463252
463427
463601
463776
463953
464130
464307
464483
464657
464835
465012
465191
465368
465545
465721
465897
466072
466250
466428
466601
466778
466955
467133
467310
467488
467662
467837
468013
468189
468364
468539
468712
468884
469060
469235
469410
469585
469761
469937
470114
470288
470465
470641
470816
470994
471172
471349
471524
471700
471877
472055
472234
472436
472609
472786
472961
473140
473318
473494
473668
473845
474021
474197
474375
474552
474728
474905
475083
475260
475438
475615
475792
475970
476149
476327
476504
476680
476856
477031
477211
477389
477564
477740
477917
478095
478273
478451
478626
478802
478981
479158
479335
479512
479688
479865
480043
480220
480396
480571
480748
480926
481104
481284
481461
481636
481810
481986
482159
482336
482511
482687
482863
483063
483245
483422
483599
483774
483950
484128
484305
484477
484650
484829
485006
485185
485363
485535
485711
485887
486067
486244
486425
486602
486778
486957
487136
487314
487489
487668
487845
488022
488200
488402
488569
488749
488927
489107
489286
489464
489640
489844
490018
490197
490376
490556
490760
490930
491112
491292
491470
491650
491828
492007
492187
492366
492544
492722
492901
493080
493258
493437
493614
493789
493967
494147
494327
494506
494682
494859
495037
495217
495395
495573
495750
495926
496103
496282
496458
496634
496840
497011
497194
497371
497551
497726
497903
498083
498263
498440
498641
498811
499007
499180
499364
499544
499724
499924
500093
500272
500452
500628
500805
501006
501178
501372
501544
501724
501904
502099
502274
502453
502632
502808
502987
503168
503349
503527
503704
503907
504078
504259
504439
504618
504818
504991
505171
505350
505528
505705
505884
506087
506259
506435
506613
506790
506965
507144
507323
507501
507704
507874
508053
508232
508412
508590
508769
508947
509123
509324
509495
509673
509849
510026
510205
510382
510555
510733
510910
511112
511286
511465
511638
511834
512004
512183
512377
512549
512725
512902
513081
513267
513436
513615
513791
513969
514144
514320
514493
514669
514846
515023
515223
515397
515580
515754
515932
516109
516288
516464
516643
516818
516997
517177
517355
517531
517711
517890
518068
518248
518425
518602
518782
518963
519145
519327
519526
519697
519890
520065
520247
520439
520613
520803
520978
521159
521340
521521
521701
521882
522060
522242
522423
522597
522778
522978
523153
523345
523520
523699
523877
524059
524240
524419
524619
524792
524970
