peaks
75145
75380
75535
75852
76089
76336
76487
76802
77036
77261
77490
77730
77865
78203
78375
78686
78920
79150
79303
79631
79865
80108
80252
80558
80800
81027
81181
81476
81707
81939
82095
82402
82633
82851
83068
83293
83431
83721
83944
84166
84390
84615
84754
85087
85262
85537
85769
85931
86205
86435
86603
86902
87132
87366
87599
87824
87990
88280
88508
88731
88994
89245
89394
89726
89902
90239
90476
90725
90870
91187
91430
91660
91819
92137
92382
92608
92780
93066
93302
93524
93694
93984
94223
94458
94613
94921
95167
95396
95554
95862
96091
96321
96544
96774
96916
97241
97487
97717
97883
98150
98370
98583
98794
98946
99252
99481
99702
99935
100187
100339
100667
100852
101165
101395
101627
101779
102121
102295
102581
102815
103042
103263
103487
103626
103952
104186
104422
104591
104908
105151
105392
105548
105872
106118
106358
106519
106817
107058
107291
107447
107783
107963
108277
108515
108759
108910
109230
109462
109677
109844
110131
110359
110586
110812
111055
111210
111520
111767
111993
112151
112440
112678
112901
113121
113345
113484
113808
114035
114266
114412
114724
114950
115175
115398
115614
115756
116057
116283
116505
116724
116950
117086
117408
117636
117865
118032
118324
118545
118768
118989
119211
119353
119667
119900
120121
120342
120585
120721
121044
121277
121500
121717
121935
122081
122365
122593
122813
122980
123249
123392
123716
123942
124163
124391
124536
124865
125096
125331
125475
125800
126038
126271
126429
126711
126940
127156
127373
127587
127731
128053
128284
128515
128676
129005
129187
129465
129701
129865
130185
130420
130656
130811
131130
131374
131608
131764
132070
132302
132530
132751
132971
133114
133415
133652
133876
134103
134340
134480
134805
135036
135267
135434
135711
135943
136110
136389
136610
136836
137061
137209
137499
137731
137957
138121
138403
138647
138810
139121
139361
139594
139754
140056
140302
140530
140689
140997
141235
141461
141683
141919
142056
142382
142621
142859
143022
143296
143517
143740
143953
144105
144392
144615
144837
145054
145284
145422
145738
145970
146201
146426
146651
146883
147128
147265
147590
147831
148065
148223
148518
148751
148978
149200
149426
149562
149879
150107
150329
150465
150790
151023
151251
151408
151716
151943
152171
152405
152630
152793
153067
153299
153466
153752
153975
154200
154432
154582
154896
155137
155372
155531
155845
156078
156308
156530
156753
156893
157245
157414
157725
157969
158211
158365
158681
158923
159153
159314
159627
159872
160104
160264
160564
160809
161042
161200
161505
161741
161961
162179
162404
162544
162878
163108
163344
163484
163805
164046
164274
164432
164733
164973
165202
165354
165687
165927
166163
166305
166631
166859
167083
167226
167531
167747
167956
168177
168395
168544
168853
169101
169333
169488
169789
170031
170257
170422
170721
170958
171185
171406
171634
171769
172103
172331
172555
172704
173013
173243
173474
173712
173945
174104
174402
174641
174870
175027
175317
175551
175777
175943
176229
176471
176637
176948
177191
177428
177582
177879
178111
178336
178562
178774
178917
179215
179440
179661
179888
180121
180282
180583
180824
181042
181208
181503
181739
181976
182131
182417
182654
182819
183105
183324
183547
183764
183981
184199
184415
184554
184866
185085
185306
185531
185755
185894
186188
186427
186653
186872
187098
187235
187578
187747
188030
188269
188492
188661
188943
189186
189349
189647
189885
190119
190351
190582
190718
191054
191227
191505
191735
191904
192231
192464
192694
192835
193171
193348
193609
193814
193975
194137
194539
194672
195013
195182
195461
195701
195932
196096
196386
196636
196865
197087
197311
197457
197775
198009
198253
198502
198742
198894
199269
199427
199752
199996
200226
200395
200671
200899
201116
201332
201482
201793
202021
202248
202478
202702
202871
203137
203369
203535
203813
204037
204267
204501
204645
204947
205185
205416
205647
205874
206013
206350
206523
206814
207053
207294
207449
207765
208009
208239
208410
208689
208923
209092
209420
209652
209903
210148
210376
210538
210881
211053
211374
211602
211842
212075
212296
212466
212752
212975
213197
213411
213631
213776
214091
214323
214555
214785
215014
215176
215490
215716
215942
216176
216410
216573
216862
217103
217332
217556
217785
217920
218253
218432
218716
218945
219166
219384
219608
219746
220080
220256
220554
220796
221021
221181
221493
221725
221951
222174
222409
222546
222880
223058
223336
223574
223738
224038
224263
224486
224704
224921
225063
225368
225602
225836
225991
226316
226560
226806
226960
227292
227542
227778
227940
228257
228503
228735
228891
229188
229412
229634
229858
230087
230225
230558
230796
231035
231197
231523
231754
231982
232208
232423
232564
232862
233087
233306
233528
233751
233891
234193
234424
234641
234855
235067
235210
235486
235696
235898
236097
236296
236495
236646
236885
237088
237234
237481
237681
237830
238071
238269
238419
238657
238831
239005
239243
239445
239597
239839
240042
240190
240450
240660
240806
241089
241312
241529
241753
241987
242220
242446
242677
242920
243067
243400
243640
243895
244031
244376
244555
244854
245099
245322
245486
245776
246001
246219
246437
246659
246887
247024
247337
247593
247842
247991
248323
248593
248852
249001
249341
249528
249827
250067
250297
250457
250779
251014
251247
251491
251752
251893
252235
252416
252762
252947
253252
253515
253776
254031
254191
254561
254724
255082
255255
255595
255849
256097
256254
256586
256828
257061
257203
257524
257764
257996
258224
258450
258589
258898
259121
259337
259548
259758
259907
260171
260379
260581
260784
260991
261143
261394
261606
261755
262034
262256
262482
262715
262883
263177
263428
263596
263926
264169
264424
264675
264920
265065
265413
265586
265911
266151
266396
266650
266884
267043
267357
267604
267849
268002
268321
268569
268802
269034
269281
269540
269781
269962
270293
270549
270798
270948
271298
271472
271803
272046
272281
272441
272754
272987
273218
273449
273683
273822
274166
274351
274640
274876
275046
275361
275598
275833
276079
276327
276484
276806
277066
277298
277453
277745
277977
278202
278431
278579
278922
279105
279394
279639
279808
280122
280359
280597
280848
281088
281246
281588
281768
282097
282341
282583
282740
283046
283278
283509
283747
283974
284145
284455
284707
284937
285098
285420
285667
285896
286054
286373
286617
286852
287007
287318
287556
287787
288015
288243
288383
288708
288945
289186
289444
289677
289838
290164
290420
290656
290812
291148
291392
291632
291797
292116
292360
292591
292751
293023
293241
293454
293663
293871
294080
294227
294498
294714
294932
295146
295367
295511
295827
296055
296284
296515
296740
296879
297185
297413
297630
297847
298066
298206
298510
298740
298973
299205
299436
299601
299929
300170
300407
300546
300874
301104
301334
301572
301818
301972
302283
302528
302761
302994
303234
303486
303730
303974
304233
304369
304723
304892
305214
305452
305690
305847
306138
306367
306591
306820
306966
307311
307488
307789
308030
308271
308506
308742
308903
309239
309492
309728
309891
310220
310464
310701
310854
311172
311401
311625
311857
312099
312352
312589
312747
313099
313270
313606
313847
314090
314245
314573
314815
315066
315313
315558
315712
316072
316243
316570
316817
317064
317218
317533
317769
318001
318230
318460
318599
318946
319123
319440
319679
319915
320072
320377
320611
320846
321080
321311
321474
321803
322043
322277
322432
322751
322976
323207
323444
323687
323844
324201
324371
324735
324904
325261
325434
325776
326055
326313
326571
326839
327103
327359
327503
327865
328031
328359
328591
328821
329056
329285
329426
329733
329967
330189
330349
330617
330844
331071
331292
331442
331737
331968
332188
332405
332632
332773
333075
333301
333523
333747
333968
334111
334435
334671
334909
335154
335423
335697
335958
336128
336463
336723
336999
337273
337546
337707
338091
338247
338613
338779
339116
339304
339587
339826
340053
340220
340503
340734
340906
341183
341419
341591
341935
342214
342507
342665
343049
343212
343577
343754
344091
344343
344588
344742
345088
345275
345570
345813
346050
346208
346491
346716
346940
347115
347374
347599
347815
348028
348187
348463
348684
348893
349103
349317
349528
349675
349948
350163
350376
350585
350795
350959
351228
351445
351662
351884
352108
352328
352480
352780
353009
353233
353454
353684
353825
354173
354323
354679
354854
355198
355455
355713
355863
356222
356393
356731
356977
357223
357376
357713
357957
358208
358364
358695
358946
359194
359354
359681
359934
360176
360327
360665
360904
361140
361308
361607
361835
362059
362283
362501
362645
362917
363130
363339
363543
363748
363953
364104
364368
364575
364781
364989
365194
365343
365614
365832
366052
366290
366535
366791
366932
367311
367473
367847
368016
368358
368540
368868
369112
369355
369605
369847
370006
370335
370586
370824
370977
371320
371497
371788
372030
372268
372424
372752
373022
373269
373424
373791
373960
374314
374493
374829
375074
375318
375554
375789
375928
376285
376456
376750
377000
377236
377392
377687
377920
378149
378373
378589
378733
379027
379247
379457
379668
379880
380027
380292
380505
380712
380919
381125
381275
381542
381756
381963
382173
382384
382594
382741
383027
383251
383466
383683
383841
384135
384367
384607
384855
384997
385365
385535
385873
386129
386382
386533
386879
387138
387398
387537
387914
388081
388432
388606
388934
389181
389428
389681
389941
390205
390479
390760
391022
391190
391535
391784
392023
392191
392485
392700
392910
393113
393321
393474
393727
393935
394146
394353
394555
394755
394910
395161
395369
395515
395788
396003
396213
396429
396602
396854
397073
397218
397529
397757
397983
398216
398439
398582
398899
399139
399373
399604
399842
399981
400331
400503
400812
401058
401300
401455
401778
402029
402278
402431
402781
402962
403296
403551
403812
404069
404343
404623
404882
405044
405420
405587
405924
406182
406434
406582
406937
407115
407454
407729
407987
408250
408513
408666
408994
409232
409455
409620
409888
410105
410316
410521
410721
410920
411075
411318
411520
411670
411918
412120
412270
412516
412718
412870
413115
413316
413473
413718
413920
414078
414328
414541
414705
414957
415171
415379
415536
415794
416003
416207
416409
416612
416764
417015
417218
417422
417623
417823
417987
418227
418432
418575
418837
419046
419257
419461
419669
419820
420094
420308
420516
420730
420945
421091
421370
421591
421809
422023
422241
422465
422607
422902
423133
423360
423585
423825
423962
424328
424493
424840
425017
425351
425614
425872
426030
426371
426644
426900
427054
427411
427586
427945
428126
428470
428735
428987
429141
429510
429684
430022
430285
430546
430795
431065
431207
431561
431818
432073
432233
432557
432798
433033
433193
433494
433719
433935
434153
434362
434512
434793
435007
435213
435427
435642
435857
436004
436305
436556
436723
437046
437313
437562
437810
438058
438216
438528
438764
438989
439212
439443
439584
439911
440147
440381
440607
440835
440977
441306
441537
441766
442005
442242
442404
442710
442946
443170
443397
443628
443767
444077
444314
444538
444757
444981
445124
445435
445658
445873
446090
446303
446449
446719
446933
447138
447340
447545
447751
447901
448157
448363
448514
448779
448984
449190
449400
449609
449759
450026
450248
450462
450674
450894
451114
451257
451555
451787
452012
452233
452467
452714
452977
453243
453412
453782
453944
454313
454479
454824
455002
455342
455593
455847
456006
456355
456531
456873
457134
457387
457543
457895
458069
458410
458666
458927
459084
459430
459612
459945
460187
460424
460581
460895
461128
461376
461622
461864
462020
462362
462598
462833
463005
463316
463543
463763
463987
464206
464351
464666
464899
465113
465333
465556
465703
465993
466216
466434
466649
466861
467008
467290
467512
467729
467956
468112
468425
468671
468907
469065
469383
469624
469859
470017
470311
470543
470765
470994
471224
471365
471672
471904
472122
472339
472555
472699
472990
473205
473418
473627
473833
473981
474248
474464
474673
474883
475097
475306
475452
475732
475949
476160
476373
476589
476807
476948
477242
477467
477681
477896
478112
478326
478467
478756
478982
479203
479424
479655
479909
480156
480403
480554
480922
481085
481413
481662
481910
482075
482384
482635
482883
483036
483370
483627
483868
484029
484345
484587
484816
485052
485293
485431
485771
485954
486289
486532
486788
486938
487286
487461
487781
488030
488287
488440
488786
488972
489270
489513
489754
489910
490243
490520
490781
490945
491296
491475
491802
492056
492301
492458
492800
492992
493281
493524
493692
493998
494244
494471
494636
494950
495184
495416
495658
495891
496059
496366
496608
496841
497073
497313
497454
497781
498028
498265
498421
498749
499003
499249
499402
499733
499982
500228
500384
500717
500970
501206
501366
501675
501911
502134
502365
502600
502739
503062
503304
503534
503694
503984
504210
504428
504656
504809
505108
505330
505547
505764
505989
506211
506354
506653
506880
507095
507304
507460
507711
507920
508064
508341
508559
508776
509000
509220
509366
509688
509924
510151
510385
510622
510869
511111
511268
511678
511836
512213
512379
512732
512908
513256
513509
513755
513916
514276
514456
514786
515035
515290
515546
515833
516110
516382
516546
516904
517078
517416
517666
517917
518070
518413
518658
518898
519054
519381
519614
519837
520058
520279
520423
520700
520915
521119
521323
521526
521726
521880
522132
522339
522484
522741
522952
523101
523353
523553
523710
523946
524147
524343
524543
524753
524963
