peaks
75067
75281
75492
75697
75900
76097
76297
76495
76687
76879
77068
77255
77450
77646
77835
78032
78230
78427
78625
78823
79029
79240
79439
79639
79838
80029
80223
80423
80620
80820
80994
81223
81418
81624
81820
81999
82223
82420
82624
82828
83029
83233
83435
83633
83835
84031
84227
84433
84637
84834
85035
85232
85432
85632
85821
86009
86202
86395
86590
86783
86970
87159
87359
87552
87746
87943
88132
88328
88528
88710
88898
89085
89272
89467
89672
89870
90062
90260
90449
90639
90827
90981
91180
91299
91546
91725
91901
92072
92238
92409
92581
92744
92908
93077
93243
93411
93581
93750
93916
94086
94264
94442
94622
94808
94990
95170
95360
95548
95740
95942
96145
96350
96564
96768
96959
97156
97345
97533
97722
97903
98084
98272
98465
98654
98846
99036
99224
99418
99610
99798
99993
100187
100383
100583
100780
100984
101189
101393
101600
101803
101996
102191
102391
102583
102777
102973
103165
103364
103570
103770
103970
104165
104355
104546
104731
104909
105089
105271
105447
105625
105806
105985
106168
106358
106547
106738
106931
107121
107318
107525
107722
107921
108124
108320
108516
108716
108904
109095
109298
109493
109686
109882
110074
110265
110461
110651
110840
111038
111228
111421
111613
111797
111976
112160
112342
112528
112720
112906
113087
113281
113468
113653
113837
114017
114197
114391
114584
114778
114983
115191
115399
115615
115820
116023
116234
116449
116674
116892
117108
117325
117554
117771
117980
118185
118403
118611
118810
119010
119202
119393
119588
119778
119977
120190
120401
120608
120811
121008
121202
121400
121530
121781
121895
122156
122274
122537
122654
122918
123048
123292
123409
123661
123841
124018
124210
124401
124596
124803
125006
125205
125407
125603
125795
125985
126170
126358
126554
126745
126944
127155
127360
127566
127768
127961
128152
128349
128539
128730
128928
129140
129355
129567
129772
129982
130183
130389
130605
130805
131004
131206
131401
131599
131807
132007
132211
132424
132639
132858
133064
133268
133494
133703
133914
134135
134349
134566
134778
134981
135188
135391
135587
135784
135971
136153
136335
136513
136685
136858
137028
137193
137360
137532
137699
137867
138040
138213
138392
138572
138751
138928
139112
139298
139479
139661
139845
140019
140194
140374
140551
140722
140897
141070
141241
141413
141589
141760
141930
142104
142275
142448
142625
142798
142965
143136
143312
143485
143657
143833
144004
144174
144352
144529
144700
144871
145047
145217
145383
145556
145724
145891
146061
146239
146421
146616
146816
147006
147199
147397
147600
147809
148014
148216
148424
148630
148829
149028
149227
149424
149636
149830
150025
150227
150424
150620
150813
151001
151188
151381
151570
151760
151951
152136
152326
152525
152717
152903
153094
153278
153473
153664
153819
154025
154135
154392
154503
154753
154871
155098
155212
155443
155557
155776
155882
156108
156227
156433
156546
156772
156886
157096
157205
157427
157544
157756
157861
158076
158202
158402
158510
158728
158852
159050
159211
159375
159538
159699
159860
160025
160187
160350
160521
160688
160850
161016
161183
161351
161519
161690
161860
162028
162196
162380
162555
162737
162924
163110
163298
163494
163679
163861
164045
164227
164407
164595
164778
164958
165141
165329
165522
165726
165928
166123
166330
166528
166726
166929
167123
167319
167517
167710
167902
168099
168287
168476
168671
168858
169050
169247
169436
169624
169817
170002
170185
170383
170589
170791
170996
171192
171393
171600
171796
171990
172187
172382
172580
172780
172970
173164
173368
173570
173768
173961
174143
174326
174513
174697
174882
175069
175256
175450
175652
175846
176039
176232
176423
176622
176833
177037
177242
177447
177643
177838
178035
178232
178435
178641
178851
179070
179288
179504
179711
179909
180113
180318
180522
180722
180918
181110
181309
181505
181701
181907
182109
182308
182513
182715
182917
183119
183321
183527
183733
183929
184122
184320
184515
184713
184905
185054
185284
185477
185667
185852
186037
186224
186452
186668
186878
187093
187302
187506
187706
187859
188087
188209
188467
188580
188836
188946
189181
189301
189533
189652
189870
190041
190216
190399
190589
190779
190981
191206
191430
191655
191862
192063
192273
192490
192710
192919
193113
193308
193508
193698
193885
194076
194264
194460
194654
194839
195026
195219
195407
195603
195805
196002
196207
196414
196618
196781
197018
197146
197398
197517
197777
197896
198144
198260
198510
198691
198874
199061
199187
199460
199578
199844
199964
200206
200322
200585
200699
200957
201140
201328
201528
201720
201909
202105
202301
202511
202722
202921
203113
203312
203508
203704
203903
204097
204298
204498
204689
204881
205080
205279
205480
205683
205874
206066
206258
206449
206644
206836
207022
207216
207412
207605
207803
208000
208193
208388
208582
208770
208959
209143
209327
209520
209712
209895
210077
210262
210443
210623
210802
210970
211140
211316
211495
211670
211845
212024
212199
212380
212570
212756
212950
213157
213373
213590
213799
213998
214196
214389
214579
214767
214950
215133
215325
215522
215715
215910
216076
216311
216514
216708
216899
217098
217294
217486
217686
217883
218079
218283
218489
218688
218887
219077
219269
219477
219681
219831
220074
220185
220476
220594
220858
220975
221225
221352
221591
221718
221946
222117
222297
222479
222667
222858
223017
223227
223431
223669
223903
224140
224366
224577
224774
224963
225154
225340
225522
225708
225892
226076
226272
226470
226665
226870
227083
227290
227498
227696
227888
228081
228267
228457
228650
228832
229011
229198
229394
229603
229805
230005
230206
230418
230625
230824
231018
231212
231414
231620
231816
232009
232207
232403
232605
232807
233004
233211
233418
233616
233813
234006
234197
234395
234590
234777
234971
235169
235365
235566
235761
235950
236140
236329
236521
236725
236931
237137
237354
237558
237755
237951
238142
238338
238535
238725
238917
239085
239305
239499
239700
239889
240082
240282
240480
240682
240884
241082
241279
241440
241657
241843
242032
242220
242415
242615
242806
243000
243192
243383
243582
243754
243958
244144
244328
244512
244698
244885
245074
245273
245475
245673
245872
246066
246258
246455
246657
246858
247073
247291
247511
247720
247924
248125
248331
248536
248739
248933
249121
249309
249497
249682
249868
250064
250260
250472
250681
250885
251088
251286
251479
251676
251867
252051
252239
252426
252611
252795
252984
253165
253350
253536
253717
253892
254076
254255
254440
254627
254824
255016
255210
255393
255595
255795
255990
256182
256377
256561
256747
256941
257125
257308
257494
257678
257859
258047
258232
258413
258599
258780
258958
259137
259321
259510
259705
259904
260098
260294
260496
260693
260892
261085
261270
261463
261661
261855
262055
262250
262453
262664
262867
263063
263273
263480
263684
263899
264121
264337
264553
264758
264963
265161
265353
265554
265751
265944
266140
266328
266518
266713
266903
267094
267288
267474
267660
267850
268037
268225
268423
268620
268811
269006
269203
269403
269609
269811
270003
270195
270385
270576
270775
270961
271149
271346
271540
271730
271923
272104
272285
272470
272648
272819
272990
273181
273364
273563
273763
273959
274157
274354
274552
274752
274947
275137
275333
275529
275720
275909
276096
276282
276470
276653
276821
277001
277176
277345
277514
277692
277845
278014
278185
278361
278533
278712
278895
279073
279249
279429
279603
279772
279945
280114
280279
280449
280620
280782
280941
281109
281276
281439
281604
281771
281932
282100
282270
282440
282609
282779
282947
283111
283275
283444
283611
283778
283944
284113
284279
284447
284620
284786
284950
285115
285281
285443
285606
285765
285928
286085
286245
286406
286563
286719
286875
287028
287179
287330
287487
287609
287789
287900
288092
288242
288394
288549
288706
288863
289022
289185
289349
289465
289681
289801
289992
290131
290323
290487
290645
290801
290969
291126
291281
291441
291603
291757
291909
292063
292215
292364
292503
292668
292816
292960
293105
293240
293400
293537
293691
293839
293988
294136
294289
294416
294596
294696
294896
295050
295199
295349
295505
295658
295806
295952
296102
296251
296398
296548
296699
296847
296992
297136
297289
297436
297580
297725
297871
298012
298151
298293
298438
298579
298719
298857
298998
299137
299274
299413
299553
299698
299835
299973
300115
300258
300399
300543
300699
300813
300996
301098
301294
301443
301590
301738
301891
302004
302194
302328
302507
302635
302812
302965
303121
303276
303419
303604
303769
303939
304112
304287
304462
304644
304825
304999
305174
305354
305528
305698
305871
306042
306212
306388
306561
306733
306900
307067
307234
307402
307577
307750
307916
308082
308249
308418
308592
308758
308920
309075
309233
309393
309549
309701
309851
310003
310151
310298
310453
310612
310762
310911
311063
311217
311369
311523
311682
311838
311991
312152
312316
312466
312633
312788
312958
313074
313278
313383
313604
313763
313905
314083
314241
314405
314569
314732
314862
315052
315218
315384
315554
315730
315899
316074
316251
316387
316603
316722
316941
317059
317264
317387
317593
317751
317906
318063
318218
318373
318541
318661
318863
318968
319179
319283
319494
319602
319809
319902
320111
320225
320424
320578
320732
320888
321044
321195
321359
321476
321682
321779
321996
322155
322309
322466
322626
322788
322950
323115
323284
323448
323613
323780
323944
324107
324261
324440
324604
324766
324931
325094
325253
325417
325585
325747
325907
326069
326234
326399
326571
326745
326912
327076
327244
327412
327581
327750
327921
328089
328259
328433
328604
328774
328947
329119
329287
329459
329634
329802
329969
330139
330307
330474
330647
330819
330986
331153
331325
331497
331670
331841
332007
332172
332340
332513
332679
332844
333013
333181
333353
333527
333700
333868
334035
334209
334377
334545
334717
334886
335052
335220
335392
335562
335730
335901
336068
336235
336407
336584
336754
336922
337092
337260
337427
337597
337763
337925
338088
338256
338422
338589
338757
338924
339086
339250
339417
339578
339753
339942
340124
340303
340486
340667
340843
341019
341197
341370
341545
341720
341888
342051
342218
342385
342550
342715
342883
343046
343211
343381
343552
343719
343885
344051
344217
344387
344567
344753
344959
345190
345409
345615
345816
346024
346228
346436
346641
346847
347051
347251
347463
347674
347882
348092
348302
348509
348720
348924
349132
349341
349544
349746
349943
350137
350332
350531
350729
350924
351120
351310
351507
351695
351875
352059
352243
352428
352620
352814
353009
353209
353413
353619
353833
354041
354240
354455
354660
354860
355063
355266
355476
355684
355882
356089
356298
356508
356718
356913
357109
357313
357513
357711
357907
358098
358294
358498
358698
358904
359074
359313
359450
359709
359823
360080
360197
360451
360567
360824
360931
361182
361294
361541
361652
361894
362009
362243
362421
362609
362797
362986
363180
363374
363510
363762
363885
364128
364253
364500
364610
364862
364975
365206
365334
365556
365672
365889
366010
366217
366380
366547
366707
366870
367042
367216
367367
367578
367710
367935
368046
368297
368477
368655
368835
369007
369182
369363
369548
369733
369922
370111
370302
370500
370694
370885
371081
371270
371455
371651
371846
372039
372239
372438
372638
372832
373035
373232
373429
373621
373812
374006
374195
374378
374568
374754
374935
375116
375295
375478
375667
375855
376037
376228
376423
376614
376808
377002
377200
377398
377603
377805
378014
378212
378410
378613
378811
379001
379197
379394
379594
379795
379991
380190
380390
380590
380785
380991
381179
381371
381571
381769
381968
382173
382374
382584
382787
382980
383176
383374
383570
383764
383955
384150
384353
384557
384754
384959
385166
385380
385593
385805
386017
386226
386435
386651
386862
387067
387275
387485
387699
387912
388117
388328
388543
388751
388964
389175
389382
389591
389796
389997
390198
390408
390618
390829
391028
391230
391436
391642
391844
392042
392238
392443
392642
392838
393036
393231
393433
393641
393842
394045
394255
394456
394658
394863
395058
395254
395457
395659
395861
396060
396258
396462
396662
396856
397054
397248
397443
397648
397849
398048
398250
398450
398652
398855
399051
399250
399457
399659
399861
400064
400262
400465
400663
400855
401053
401251
401448
401649
401849
402048
402250
402453
402662
402881
403087
403293
403502
403710
403919
404129
404332
404536
404733
404923
405121
405312
405505
405699
405884
406066
406254
406443
406627
406813
406997
407177
407364
407552
407733
407917
408103
408282
408462
408659
408867
409064
409265
409472
409669
409862
410044
410225
410409
410587
410763
410942
411117
411297
411487
411671
411856
412041
412225
412410
412599
412792
412974
413161
413353
413539
413727
413917
414098
414283
414473
414659
414846
415038
415227
415421
415622
415817
416010
416208
416407
416612
416809
416999
417192
417387
417577
417771
417962
418148
418337
418530
418717
418905
419091
419275
419465
419658
419841
420028
420219
420403
420588
420775
420957
421138
421324
421505
421686
421868
422046
422234
422427
422614
422795
422977
423160
423338
423522
423706
423886
424067
424251
424433
424618
424807
424990
425172
425360
425544
425727
425909
426088
426265
426453
426638
426820
427011
427201
427392
427590
427781
427964
428152
428341
428533
428729
428925
429118
429315
429510
429704
429903
430099
430296
430503
430702
430894
431090
431285
431477
431680
431877
432065
432256
432443
432626
432803
432984
433158
433339
433522
433697
433875
434053
434232
434414
434604
434784
434966
435153
435337
435524
435721
435913
436104
436304
436501
436695
436897
437065
437294
437415
437678
437868
438064
438252
438406
438625
438846
439042
439247
439453
439662
439865
440060
440262
440463
440662
440864
441062
441250
441443
441645
441835
442025
442216
442407
442603
442794
442981
443172
443361
443550
443746
443937
444123
444320
444521
444721
444917
445114
445313
445513
445713
445908
446106
446302
446499
446706
446902
447101
447308
447510
447708
447912
448112
448310
448512
448713
448907
449097
449279
449466
449654
449836
450026
450221
450414
450609
450802
450987
451177
451377
451573
451770
451965
452169
452372
452575
452766
452972
453170
453367
453569
453767
453961
454161
454332
454553
454747
454935
455117
455304
455489
455680
455879
456080
456279
456479
456676
456873
457074
457266
457463
457667
457863
458053
458250
458443
458638
458832
459023
459221
459428
459627
459826
460027
460224
460427
460627
460821
461020
461213
461403
461608
461813
462011
462211
462408
462602
462798
462991
463181
463382
463582
463778
463977
464174
464368
464567
464765
464962
465162
465358
465553
465753
465947
466142
466337
466520
466707
466892
467069
467245
467427
467608
467789
467969
468147
468322
468499
468682
468867
469053
469257
469463
469675
469886
470092
470296
470497
470699
470908
471107
471312
471529
471733
471935
472148
472361
472572
472778
472984
473200
473407
473620
473840
474050
474265
474478
474695
474911
475120
475331
475554
475706
475921
476037
476343
476461
476767
476886
477159
477355
477550
477745
477947
478151
478368
478581
478796
479022
479243
479459
479685
479899
480123
480333
480545
480762
480969
481174
481384
481597
481816
482036
482162
482404
482521
482808
482924
483206
483394
483588
483778
483971
484177
484380
484583
484797
485000
485201
485416
485630
485839
486054
486270
486491
486708
486930
487155
487368
487590
487814
488039
488265
488483
488709
488935
489158
489377
489598
489817
490041
490255
490480
490708
490930
491150
491366
491583
491797
491997
492199
492404
492607
492809
493007
493208
493420
493627
493830
494039
494245
494456
494663
494866
495075
495286
495491
495708
495867
496122
496249
496524
496652
496925
497042
497305
497498
497685
497872
498062
498252
498454
498667
498872
499075
499286
499502
499730
499946
500154
500373
500586
500794
500997
501191
501390
501585
501772
501957
502143
502329
502528
502728
502923
503128
503336
503544
503752
503958
504164
504380
504587
504800
505020
505236
505456
505685
505913
506133
506346
506572
506802
507019
507241
507466
507695
507917
508130
508355
508581
508798
509020
509238
509462
509681
509890
510100
510309
510469
510713
510835
511121
511242
511528
511649
511926
512047
512318
512441
512707
512899
513098
513298
513500
513707
513918
514145
514381
514610
514834
515051
515267
515481
515692
515912
516127
516341
516557
516771
516988
517206
517421
517642
517860
518077
518293
518509
518732
518955
519173
519387
519604
519821
520033
520238
520452
520674
520889
521102
521316
521532
521745
521946
522149
522356
522561
522766
522976
523188
523404
523631
523854
524082
524312
524541
524771
524997
