peaks
75157
75341
75537
75759
75992
76228
76457
76670
76889
77113
77323
77540
77755
77954
78157
78356
78556
78749
78941
79135
79335
79535
79730
79922
80112
80306
80504
80704
80901
81108
81316
81533
81737
81930
82124
82315
82500
82686
82875
83081
83291
83496
83706
83914
84111
84306
84509
84714
84911
85105
85299
85494
85685
85876
86069
86194
86468
86649
86830
87006
87187
87391
87609
87829
88064
88290
88511
88728
88849
89153
89345
89533
89725
89913
90102
90299
90505
90724
90947
91159
91368
91574
91781
91922
92198
92388
92575
92753
92928
93106
93286
93499
93746
93980
94231
94473
94694
94900
95107
95314
95521
95716
95914
96117
96322
96519
96720
96917
97119
97321
97515
97709
97904
98098
98293
98486
98674
98859
99041
99215
99388
99559
99730
99907
100089
100278
100480
100695
100909
101109
101302
101497
101692
101889
102079
102268
102458
102644
102840
103057
103268
103466
103667
103865
103993
104261
104447
104635
104824
105008
105199
105399
105613
105849
106083
106310
106541
106760
106963
107159
107348
107537
107724
107906
108091
108277
108463
108661
108858
109061
109268
109476
109670
109861
110053
110245
110434
110620
110807
110999
111191
111383
111570
111755
111936
112118
112300
112481
112662
112842
113021
113203
113388
113571
113761
113952
114142
114334
114532
114728
114914
115098
115282
115463
115646
115828
116006
116188
116372
116564
116761
116887
117156
117337
117516
117693
117871
118052
118234
118419
118528
118818
118927
119209
119395
119594
119808
120026
120146
120427
120613
120805
121007
121217
121435
121662
121905
122158
122405
122641
122852
123049
123243
123433
123623
123834
124067
124293
124517
124738
124964
125171
125374
125514
125794
125992
126182
126373
126565
126776
127008
127230
127463
127701
127933
128149
128359
128579
128798
129019
129236
129434
129628
129825
130031
130239
130441
130640
130832
131020
131211
131396
131586
131792
132008
132218
132434
132645
132839
133034
133223
133412
133596
133775
133953
134103
134334
134513
134691
134866
135041
135227
135440
135570
135864
136004
136257
136434
136606
136774
136945
137132
137255
137554
137736
137918
138113
138317
138532
138744
138866
139171
139367
139560
139751
139936
140139
140367
140623
140880
141004
141317
141508
141698
141888
142092
142300
142504
142634
142930
143125
143321
143515
143714
143925
144147
144365
144576
144787
144998
145206
145417
145640
145862
146073
146288
146504
146721
146931
147128
147324
147523
147726
147923
148117
148309
148509
148709
148909
149130
149351
149569
149794
150004
150206
150412
150617
150821
151014
151199
151382
151565
151750
151940
152135
152324
152517
152711
152911
153108
153298
153487
153679
153875
154074
154274
154476
154674
154863
155049
155231
155365
155609
155788
155978
156176
156380
156595
156817
157022
157221
157427
157651
157887
158008
158308
158423
158702
158836
159080
159258
159438
159630
159838
160061
160297
160418
160747
160863
161149
161337
161521
161704
161889
162092
162231
162538
162732
162930
163144
163263
163584
163791
163993
164197
164411
164641
164882
165110
165354
165592
165823
166038
166237
166434
166629
166822
167021
167218
167407
167602
167798
167995
168192
168386
168575
168765
168959
169155
169357
169557
169745
169934
170113
170287
170462
170642
170848
171093
171327
171555
171794
172029
172256
172472
172595
172872
173058
173238
173419
173593
173768
173961
174163
174366
174588
174822
175058
175285
175489
175694
175898
176099
176296
176486
176672
176863
177055
177249
177441
177631
177816
178005
178127
178382
178566
178754
178942
179132
179317
179495
179672
179855
180044
180240
180445
180641
180832
181027
181225
181433
181639
181838
182041
182257
182471
182679
182877
183077
183281
183486
183695
183900
184099
184288
184476
184661
184843
185025
185204
185385
185575
185769
185958
186151
186344
186548
186765
186983
187195
187388
187572
187756
187946
188139
188335
188455
188723
188906
189085
189266
189444
189625
189810
190007
190226
190440
190653
190873
191088
191296
191493
191684
191876
192066
192186
192447
192629
192804
192979
193152
193349
193540
193747
193962
194178
194380
194574
194766
194955
195145
195353
195564
195763
195971
196111
196381
196567
196746
196925
197103
197284
197471
197670
197870
198063
198258
198451
198646
198842
199035
199228
199431
199633
199825
200019
200209
200401
200595
200784
200967
201153
201342
201541
201747
201949
202140
202330
202483
202725
202920
203112
203306
203511
203642
203926
204111
204290
204474
204670
204879
205100
205317
205524
205731
205937
206138
206265
206534
206717
206900
207082
207264
207455
207656
207886
208141
208392
208627
208845
209062
209280
209494
209709
209919
210118
210318
210519
210721
210922
211118
211311
211507
211705
211898
212086
212273
212464
212663
212856
213044
213233
213423
213610
213796
213989
214186
214384
214596
214816
215034
215234
215436
215646
215858
216077
216286
216488
216697
216913
217130
217339
217543
217748
217902
218167
218352
218536
218717
218901
219097
219296
219505
219727
219954
220175
220392
220615
220826
221030
221151
221435
221581
221814
221989
222162
222336
222520
222723
222852
223135
223327
223523
223718
223907
224097
224296
224509
224737
224965
225178
225392
225603
225723
226012
226195
226373
226549
226725
226900
227093
227313
227557
227810
228041
228271
228490
228687
228877
229063
229250
229450
229651
229845
230049
230264
230481
230684
230881
231010
231281
231465
231645
231824
232002
232187
232382
232583
232792
233002
233206
233404
233600
233802
233926
234215
234404
234592
234780
234898
235170
235349
235527
235710
235832
236110
236293
236484
236691
236919
237147
237359
237576
237797
238018
238229
238428
238626
238836
239042
239261
239470
239687
239906
240120
240324
240516
240709
240906
241116
241334
241556
241768
241980
242189
242387
242579
242775
242977
243188
243389
243579
243762
243949
244142
244348
244570
244787
244995
245118
245383
245562
245734
245904
246071
246249
246452
246681
246896
247116
247342
247564
247790
248011
248217
248414
248608
248800
248990
249178
249365
249556
249754
249959
250161
250359
250551
250742
250940
251149
251359
251560
251749
251933
252113
252294
252489
252692
252900
253098
253292
253483
253678
253877
254076
254277
254471
254663
254865
255076
255292
255507
255719
255923
256116
256302
256488
256682
256886
257015
257307
257491
257672
257850
258034
258232
258450
258661
258876
259009
259306
259432
259697
259873
260046
260212
260375
260540
260708
260880
261059
261245
261450
261665
261881
262083
262275
262462
262649
262839
263035
263224
263422
263631
263838
264037
264233
264427
264630
264839
265052
265260
265394
265661
265846
266030
266207
266396
266593
266799
267015
267239
267461
267587
267876
268067
268249
268427
268602
268780
268965
269170
269389
269515
269835
270059
270282
270494
270709
270927
271139
271344
271467
271764
271949
272138
272331
272529
272733
272934
273128
273355
273606
273838
274067
274301
274519
274742
274969
275179
275401
275634
275881
276119
276342
276563
276784
277002
277215
277413
277602
277787
277976
278168
278364
278561
278750
278933
279116
279300
279484
279674
279861
280045
280237
280432
280630
280832
281030
281219
281403
281585
281763
281941
282114
282285
282460
282639
282823
283029
283238
283447
283663
283876
284080
284279
284467
284647
284821
284998
285179
285372
285575
285778
285971
286163
286354
286473
286743
286922
287096
287267
287437
287610
287790
287986
288225
288467
288719
288971
289201
289419
289629
289837
290037
290228
290417
290611
290807
290995
291183
291376
291504
291785
291980
292167
292350
292532
292714
292902
293031
293303
293486
293668
293852
294040
294225
294411
294606
294819
294936
295240
295430
295621
295822
296021
296173
296419
296609
296805
296942
297189
297370
297560
297745
297925
298119
298348
298580
298806
299040
299278
299515
299748
299975
300192
300403
300543
300800
300988
301174
301365
301556
301746
301931
302122
302322
302530
302740
302953
303165
303372
303565
303753
303941
304128
304314
304498
304676
304851
305028
305207
305386
305582
305793
305997
306200
306403
306605
306730
307005
307186
307367
307551
307747
307955
308097
308341
308521
308699
308880
309069
309265
309463
309677
309898
310105
310226
310526
310711
310900
311093
311293
311501
311693
311890
312088
312293
312498
312704
312916
313134
313345
313546
313740
313930
314117
314304
314493
314677
314859
315039
315220
315404
315590
315770
315950
316129
316307
316490
316689
316902
317113
317325
317533
317731
317849
318105
318273
318438
318598
318761
318934
319119
319303
319490
319692
319893
320087
320280
320476
320678
320875
321068
321260
321466
321679
321890
322092
322292
322417
322685
322866
323044
323222
323404
323584
323762
323943
324143
324362
324590
324800
324998
325198
325398
325594
325784
325980
326174
326367
326550
326729
326906
327083
327264
327458
327649
327839
328033
328231
328354
328618
328795
328969
329140
329315
329489
329663
329842
330026
330224
330427
330625
330815
331002
331123
331374
331550
331723
331893
332060
332235
332425
332633
332852
333084
333320
333541
333740
333937
334134
334287
334534
334716
334896
335076
335261
335447
335635
335826
336015
336231
336457
336688
336902
337108
337308
337510
337698
337882
338068
338263
338474
338684
338894
339093
339285
339422
339664
339851
340038
340232
340422
340606
340797
341002
341211
341404
341588
341772
341962
342149
342335
342521
342707
342900
343102
343308
343506
343701
343901
344098
344302
344516
344736
344948
345141
345335
345531
345737
345951
346069
346359
346542
346718
346890
347063
347244
347422
347606
347814
348046
348265
348472
348676
348880
349080
349272
349459
349644
349818
349988
350158
350325
350504
350718
350945
351148
351353
351562
351780
351993
352189
352388
352585
352779
352982
353185
353389
353587
353774
353954
354136
354324
354515
354711
354901
355088
355277
355470
355662
355849
356036
356221
356408
356593
356773
356955
357136
357326
357524
357719
357915
358111
358315
358513
358706
358902
359049
359292
359471
359649
359827
360013
360213
360422
360628
360834
361047
361268
361386
361691
361805
362068
362248
362424
362599
362777
362959
363150
363351
363551
363747
363960
364185
364411
364633
364833
365017
365197
365373
365552
365740
365933
366131
366324
366508
366700
366900
367102
367298
367492
367689
367806
368087
368271
368453
368634
368812
368987
369160
369331
369502
369679
369871
370086
370304
370528
370750
370956
371148
371341
371538
371733
371922
372038
372309
372493
372677
372854
373030
373216
373417
373619
373823
374040
374262
374476
374674
374791
375071
375253
375438
375628
375763
376014
376198
376374
376550
376731
376920
377119
377313
377513
377722
377944
378159
378365
378567
378772
378997
379220
379438
379648
379846
380036
380227
380423
380618
380813
380999
381181
381368
381560
381756
381944
382130
382323
382533
382753
382964
383170
383372
383570
383768
383956
384136
384271
384478
384636
384795
384952
385114
385292
385483
385604
385856
386029
386212
386398
386532
386787
386965
387143
387322
387517
387751
388015
388281
388526
388734
388933
389124
389312
389500
389622
389888
390068
390241
390417
390552
390789
390962
391137
391307
391477
391654
391851
392112
392368
392486
392810
393000
393186
393374
393576
393777
393977
394189
394414
394643
394855
395065
395272
395476
395670
395866
396056
396245
396447
396583
396868
397062
397253
397440
397621
397794
397974
398170
398387
398606
398832
399062
399294
399510
399720
399930
400139
400339
400538
400740
400934
401131
401335
401554
401668
401973
402160
402341
402522
402710
402905
403111
403342
403554
403760
403969
404101
404379
404569
404752
404929
405104
405284
405481
405684
405876
406070
406267
406473
406671
406871
407079
407296
407503
407707
407913
408112
408307
408504
408632
408895
409073
409248
409420
409597
409778
409956
410142
410332
410526
410753
410969
411173
411380
411595
411816
412035
412245
412443
412635
412825
413022
413222
413423
413544
413820
414001
414179
414349
414520
414693
414873
415066
415285
415524
415755
415967
416090
416368
416554
416740
416927
417110
417295
417492
417710
417936
418163
418381
418586
418787
418936
419182
419363
419543
419723
419843
420089
420264
420436
420609
420777
420957
421184
421306
421637
421856
422085
422321
422540
422764
422995
423222
423438
423659
423884
424017
424309
424504
424696
424890
425077
425266
425455
425646
425843
426035
426234
426434
426627
426825
427018
427206
427390
427566
427743
427926
428115
428299
428490
428697
428916
429132
429343
429548
429759
429972
430185
430392
430593
430798
430999
431141
431419
431610
431801
432003
432229
432447
432674
432896
433102
433316
433446
433719
433905
434086
434251
434416
434581
434756
434947
435159
435278
435616
435846
436068
436290
436520
436768
437019
437152
437483
437673
437857
438040
438235
438461
438581
438898
439094
439292
439496
439711
439926
440152
440380
440591
440730
441016
441222
441445
441673
441899
442122
442356
442609
442859
442980
443308
443512
443711
443905
444108
444336
444560
444766
444966
445172
445391
445628
445746
446090
446319
446546
446767
446981
447184
447378
447572
447777
447989
448203
448403
448596
448795
449001
449209
449409
449611
449815
450030
450247
450464
450676
450878
451076
451270
451452
451629
451807
451986
452177
452376
452561
452748
452942
453141
453341
453536
453725
453915
454111
454258
454490
454666
454836
455005
455189
455385
455606
455853
456099
456330
456555
456688
456980
457104
457352
457526
457703
457894
458106
458344
458580
458826
459069
459289
459494
459700
459917
460123
460328
460537
460753
460881
461182
461377
461572
461762
461950
462136
462321
462516
462734
462963
463179
463408
463637
463868
464101
464307
464513
464714
464921
465125
465325
465511
465696
465874
466054
466248
466459
466667
466888
467115
467341
467559
467765
467954
468141
468328
468468
468733
468923
469120
469322
469518
469719
469920
470124
470328
470520
470718
470924
471127
471328
471520
471706
471895
472091
472284
472472
472660
472854
473053
473263
473475
473683
473889
474087
474279
474461
474640
474810
474982
475154
475336
475525
475715
475898
476090
476268
476447
476631
476819
477000
477185
477376
477569
477771
477978
478197
478448
478691
478925
479126
479314
479501
479622
479895
480075
480251
480427
480612
480823
481073
481339
481579
481793
481989
482182
482390
482601
482823
483052
483271
483485
483698
483905
484112
484232
484499
484682
484861
485038
485213
485392
485576
485783
486013
486255
486489
486722
486951
487176
487396
487618
487831
488030
488224
488415
488615
488822
489029
489237
489446
489637
489827
490017
490204
490387
490579
490780
490988
491205
491431
491661
491888
492113
492328
492529
492727
492912
493092
493279
493475
493665
493857
494058
494262
494481
494720
494950
495111
495375
495576
495784
495989
496184
496387
496602
496828
497041
497254
497453
497657
497861
498066
498213
498469
498656
498832
499007
499181
499363
499554
499754
499947
500141
500343
500545
500743
500938
501127
501311
501498
501680
501866
502050
502238
502427
502615
502806
502993
503181
503358
503537
503716
503899
504079
504261
504440
504619
504798
504978
505164
505362
505564
505757
505949
506135
506316
506497
506679
506859
507033
507205
507374
507543
507711
507882
508053
508227
508410
508592
508775
508963
509151
509333
509508
509687
509849
510035
510212
510390
510567
510742
510906
511088
511263
511448
511628
511810
511945
512157
512322
512482
512640
512807
513005
513241
513474
513704
513933
514166
514396
514624
514835
515035
515233
515365
515630
515814
515990
516160
516328
516501
516705
516922
517130
517358
517606
517863
518108
518338
518576
518829
519072
519292
519505
519723
519960
520178
520385
520589
520796
521011
521231
521451
521668
521789
522078
522265
522447
522630
522815
522999
523196
523423
523668
523896
524120
524357
524590
524805
