peaks
75112
75312
75522
75740
75913
76193
76414
76639
76861
77072
77296
77514
77729
77941
78157
78374
78596
78820
79050
79279
79509
79752
79995
80248
80508
80768
81036
81312
81590
81870
82151
82435
82714
82995
83278
83555
83826
84092
84363
84639
84914
85188
85456
85727
86004
86283
86557
86822
87087
87360
87623
87880
88137
88397
88654
88907
89163
89421
89670
89918
90173
90428
90677
90832
91176
91339
91669
91876
92138
92367
92590
92814
93037
93262
93490
93714
93935
94161
94388
94621
94850
95020
95320
95562
95809
96063
96319
96575
96739
97101
97375
97652
97918
98190
98462
98738
99016
99297
99579
99863
100147
100427
100705
100981
101249
101521
101795
102072
102338
102589
102836
103071
103304
103526
103750
103981
104160
104451
104686
104925
105153
105325
105606
105830
106058
106296
106482
106767
107000
107249
107498
107747
107999
108162
108525
108796
109062
109333
109607
109884
110154
110431
110707
110982
111262
111544
111821
112095
112372
112648
112921
113201
113484
113758
114024
114300
114575
114843
115105
115373
115638
115898
116156
116418
116667
116910
117154
117354
117620
117837
118050
118267
118481
118696
118915
119130
119346
119563
119773
119984
120193
120403
120612
120821
121029
121239
121451
121667
121885
122105
122325
122551
122784
122967
123277
123529
123782
124039
124310
124585
124867
125153
125444
125735
126021
126305
126584
126861
127145
127437
127720
127999
128279
128563
128844
129117
129392
129668
129944
130209
130468
130728
130992
131246
131498
131751
131996
132231
132419
132685
132919
133153
133383
133573
133847
134083
134315
134545
134759
135012
135249
135479
135703
135927
136152
136379
136610
136843
137078
137317
137566
137817
138070
138328
138598
138868
139136
139397
139662
139925
140190
140455
140713
140972
141238
141512
141787
142058
142336
142617
142896
143169
143441
143714
143981
144245
144514
144784
145044
145294
145546
145798
146047
146291
146537
146689
147036
147284
147534
147687
147986
148198
148404
148615
148823
149031
149252
149479
149709
149938
150165
150386
150602
150812
151025
151239
151455
151673
151889
152106
152328
152553
152786
152961
153265
153518
153771
154027
154289
154556
154839
155123
155414
155708
156003
156298
156589
156874
157153
157442
157726
158005
158285
158564
158839
159113
159380
159637
159898
160164
160425
160687
160947
161207
161465
161721
161986
162247
162503
162751
163003
163256
163503
163735
163906
164197
164430
164657
164888
165081
165351
165584
165815
166050
166225
166538
166768
167006
167243
167488
167732
167917
168229
168477
168732
168992
169256
169521
169786
170054
170330
170603
170880
171146
171413
171683
171955
172231
172506
172783
173060
173336
173614
173887
174160
174437
174721
174994
175277
175554
175828
176098
176368
176638
176902
177164
177430
177702
177963
178215
178454
178691
178876
179157
179380
179608
179842
180038
180306
180532
180755
180984
181210
181455
181690
181915
182134
182356
182584
182819
183002
183315
183567
183825
184087
184354
184635
184919
185204
185491
185784
186081
186380
186672
186964
187252
187538
187822
188103
188384
188670
188954
189235
189516
189794
190063
190331
190607
190875
191135
191397
191673
191942
192202
192462
192729
192994
193252
193505
193761
194024
194286
194546
194803
195063
195317
195563
195715
196058
196305
196543
196758
196969
197181
197360
197618
197836
198050
198268
198488
198708
198917
199124
199331
199542
199746
199950
200155
200361
200565
200772
200976
201183
201392
201606
201824
202043
202268
202499
202730
202968
203209
203457
203709
203964
204225
204497
204774
205053
205332
205613
205893
206176
206460
206744
207030
207318
207594
207868
208139
208410
208680
208941
209207
209481
209749
210007
210265
210529
210787
211032
211266
211505
211742
211975
212199
212428
212663
212904
213137
213373
213611
213855
214100
214349
214603
214841
215076
215312
215559
215810
216060
216319
216471
216848
217119
217393
217671
217948
218223
218504
218789
219071
219348
219629
219901
220168
220415
220655
220810
221149
221416
221675
221940
222190
222347
222687
222904
223196
223442
223689
223941
224195
224448
224627
224956
225201
225442
225692
225877
226205
226465
226721
226980
227234
227495
227689
228001
228248
228502
228760
229008
229256
229479
229763
230012
230261
230512
230762
231012
231171
231522
231766
232012
232260
232509
232758
233008
233256
233419
233763
233933
234228
234474
234723
234951
235179
235409
235632
235848
236069
236274
236481
236686
236897
237111
237304
237503
237693
237888
238076
238269
238459
238653
238848
239040
239231
239426
239623
239820
240017
240214
240416
240616
240819
241022
241231
241444
241657
241873
242085
242302
242518
242743
242963
243190
243373
243637
243860
244086
244313
244487
244763
244983
245203
245426
245629
245881
246109
246337
246562
246758
247016
247242
247468
247689
247908
248131
248352
248574
248796
249014
249234
249454
249676
249898
250121
250342
250563
250781
251006
251232
251453
251675
251890
252108
252325
252545
252770
252993
253217
253441
253667
253890
254115
254348
254582
254819
255053
255228
255538
255784
256030
256276
256522
256770
257023
257273
257431
257773
258012
258254
258497
258736
258971
259202
259433
259665
259896
260126
260306
260580
260803
261025
261248
261470
261688
261904
262118
262333
262551
262769
262984
263201
263416
263627
263844
264060
264277
264495
264657
264930
265143
265250
265571
265784
265988
266194
266399
266605
266815
267025
267236
267447
267659
267867
268078
268293
268506
268718
268931
269149
269309
269595
269821
270043
270269
270475
270723
270951
271184
271415
271571
271884
272099
272339
272568
272795
273019
273220
273464
273690
273916
274141
274341
274596
274826
275057
275288
275491
275757
275990
276219
276449
276617
276912
277139
277364
277589
277742
278036
278256
278479
278697
278865
279132
279349
279569
279788
280005
280223
280439
280656
280877
281097
281320
281542
281764
281984
282201
282421
282644
282867
283088
283308
283532
283761
283992
284225
284459
284624
284918
285143
285369
285600
285762
286057
286282
286511
286742
286923
287204
287426
287647
287864
288083
288296
288512
288729
288942
289155
289368
289581
289741
290008
290218
290430
290643
290857
291072
291286
291501
291713
291925
292128
292354
292572
292792
293015
293207
293465
293693
293924
294154
294388
294626
294822
295118
295370
295624
295872
296110
296352
296520
296842
297086
297333
297582
297833
298080
298329
298572
298721
299061
299299
299537
299710
300010
300241
300471
300702
300870
301167
301395
301622
301844
302065
302286
302510
302732
302950
303167
303385
303605
303827
304047
304269
304491
304717
304943
305175
305412
305656
305901
306144
306390
306541
306892
307132
307370
307611
307853
308024
308343
308576
308832
309079
309327
309576
309829
310081
310232
310587
310838
311091
311263
311585
311822
312053
312281
312446
312729
312943
313151
313355
313563
313772
313980
314187
314393
314601
314811
315021
315232
315445
315657
315869
316080
316291
316507
316726
316945
317163
317385
317606
317784
318055
318278
318505
318731
318905
319196
319430
319668
319905
320140
320373
320518
320847
321081
321313
321522
321773
322000
322227
322460
322611
322937
323104
323421
323642
323910
324154
324400
324649
324894
325141
325305
325637
325814
326135
326353
326630
326881
327127
327376
327628
327880
328137
328389
328542
328909
329163
329424
329682
329934
330180
330423
330630
330894
331125
331352
331578
331802
332022
332249
332473
332700
332923
333145
333366
333593
333820
334045
334270
334496
334688
334953
335185
335421
335655
335807
336133
336290
336619
336777
337114
337361
337614
337772
338137
338399
338663
338927
339188
339448
339709
339964
340223
340484
340745
341005
341260
341514
341771
342031
342294
342561
342826
343084
343347
343498
343870
344121
344368
344519
344871
345119
345362
345514
345846
346016
346327
346563
346802
347041
347191
347523
347706
347997
348228
348458
348692
348854
349164
349399
349638
349873
350111
350349
350544
350841
351087
351331
351570
351729
352056
352291
352528
352762
353000
353243
353489
353744
353906
354256
354504
354752
355005
355253
355502
355743
355892
356211
356386
356669
356898
357122
357349
357538
357810
358046
358280
358516
358682
358997
359235
359479
359724
359969
360209
360452
360699
360879
361195
361433
361675
361921
362170
362414
362659
362904
363055
363406
363648
363891
364134
364375
364592
364862
365111
365359
365601
365844
366081
366314
366546
366773
366994
367212
367425
367643
367858
368075
368292
368506
368719
368929
369139
369349
369554
369760
369965
370172
370383
370594
370810
371025
371239
371455
371676
371902
372130
372356
372587
372776
373059
373297
373538
373789
374036
374284
374539
374799
374951
375323
375585
375842
376102
376364
376625
376888
377152
377415
377677
377939
378196
378445
378697
378950
379198
379441
379680
379915
380143
380370
380597
380764
381044
381262
381482
381705
381925
382145
382363
382558
382795
383009
383223
383443
383663
383885
384112
384340
384575
384764
385062
385309
385564
385828
386094
386357
386629
386903
387178
387457
387741
388022
388304
388584
388858
389136
389406
389671
389936
390204
390465
390730
390992
391255
391509
391762
392011
392257
392493
392729
392883
393165
393379
393602
393823
394037
394253
394479
394711
394934
395154
395368
395583
395799
396015
396234
396450
396664
396878
397090
397299
397517
397732
397951
398132
398400
398637
398877
399119
399272
399623
399884
400151
400425
400704
400985
401266
401546
401827
402106
402384
402663
402945
403227
403508
403782
404055
404324
404589
404861
405125
405381
405630
405872
406112
406266
406538
406740
406950
407172
407401
407630
407856
408084
408319
408555
408793
409025
409220
409479
409707
409940
410176
410371
410658
410899
411145
411398
411658
411919
412187
412455
412724
412999
413277
413553
413835
414112
414389
414666
414944
415218
415490
415764
416036
416311
416583
416852
417121
417386
417645
417896
418145
418388
418624
418853
419061
419262
419472
419691
419922
420155
420319
420613
420843
421074
421294
421515
421741
421963
422171
422404
422629
422854
423083
423311
423538
423769
423998
424237
424413
424714
424923
425159
425369
425589
425810
426035
426250
426474
426684
426913
427126
427347
427564
427783
427997
428212
428402
428634
428843
429051
429255
429458
429657
429856
430054
430250
430445
430636
430833
431025
431216
431408
431598
431784
431969
432152
432333
432512
432696
432880
433065
433249
433428
433609
433786
433965
434140
434317
434494
434674
434853
435031
435208
435386
435565
435747
435928
436109
436290
436469
436650
436832
437014
437198
437381
437564
437747
437928
438111
438293
438472
438654
438838
439019
439201
439380
439560
439742
439925
440105
440288
440468
440649
440828
441010
441191
441371
441555
441744
441928
442114
442297
442483
442672
442862
443053
443244
443432
443622
443810
444000
444190
444380
444569
444757
444947
445134
445322
445514
445707
445900
446091
446279
446463
446653
446842
447032
447165
447406
447600
447791
447982
448171
448360
448549
448745
448935
449127
449311
449504
449696
449890
450084
450277
450469
450661
450854
451047
451238
451429
451616
451808
451996
452185
452334
452562
452755
452945
453134
453322
453509
453698
453888
454079
454271
454464
454657
454851
455043
455240
455436
455573
455836
456037
456236
456435
456639
456845
457053
457258
457462
457668
457874
458081
458290
458497
458709
458929
459144
459366
459594
459824
460057
460204
460515
460664
460980
461140
461437
461651
461867
462080
462288
462503
462689
462939
463157
463374
463581
463781
463993
464204
464415
464624
464821
465030
465259
465402
465697
465924
466130
466340
466482
466743
466950
467147
467345
467542
467741
467932
468128
468323
468517
468714
468911
469098
469298
469510
469705
469844
470169
470323
470609
470826
471043
471253
471417
471667
471888
472099
472312
472442
472744
472956
473164
473369
473571
473773
473976
474121
474373
474571
474771
474966
475162
475361
475556
475697
475947
476147
476348
476551
476755
477004
477225
477445
477670
477816
478136
478364
478593
478758
479058
479264
479519
479748
479975
480200
480422
480641
480817
481084
481301
481516
481729
481884
482154
482366
482563
482760
482957
483153
483352
483530
483799
484013
484239
484464
484693
484928
485100
485403
485638
485867
486086
486319
486543
486697
487009
487176
487466
487691
487917
488133
488349
488566
488740
489011
489237
489458
489674
489821
490101
490309
490537
490751
490976
491202
491347
491642
491835
492139
492355
492598
492822
493042
493265
493413
493712
493931
494157
494371
494579
494787
494995
495198
495392
495589
495791
495987
496185
496388
496572
496795
496994
497196
497397
497593
497798
497992
498196
498402
498601
498800
499006
499209
499407
499607
499807
500006
500201
500398
500595
500800
500988
501184
501382
501570
501765
501960
502158
502350
502541
502736
502933
503069
503316
503514
503703
503892
504080
504267
504457
504646
504838
505036
505232
505419
505620
505815
506014
506208
506345
506599
506804
507001
507193
507388
507584
507779
507976
508163
508357
508553
508746
508890
509140
509339
509511
509723
509916
510113
510307
510505
510702
510901
511101
511298
511493
511632
511894
512090
512289
512485
512679
512880
513079
513277
513475
513670
513819
514054
514243
514429
514619
514807
514995
515180
515361
515544
515723
515901
516083
516259
516432
516610
516784
516960
517133
517305
517478
517653
517828
518002
518177
518353
518533
518715
518903
519097
519290
519487
519676
519882
520080
520280
520474
520673
520873
521072
521271
521470
521668
521874
522076
522270
522461
522663
522850
523049
523245
523439
523614
523827
524021
524216
524414
524613
524811
