peaks
75123
75247
75366
75479
75611
75729
75849
75964
76079
76190
76306
76416
76526
76635
76741
76855
76961
77070
77180
77280
77410
77523
77636
77749
77845
77985
78092
78205
78300
78433
78546
78659
78755
78882
78996
79111
79206
79339
79448
79567
79664
79799
79916
80030
80112
80260
80379
80491
80574
80718
80832
80951
81032
81182
81297
81415
81532
81649
81732
81886
81997
82127
82247
82366
82485
82605
82706
82839
82923
83070
83168
83299
83391
83520
83621
83742
83851
83961
84068
84177
84290
84381
84527
84623
84770
84863
85014
85102
85247
85340
85479
85573
85708
85799
85940
86038
86172
86266
86403
86491
86640
86735
86877
86963
87114
87200
87352
87441
87581
87667
87812
87909
88044
88142
88278
88386
88510
88622
88730
88843
88955
89055
89175
89285
89397
89512
89634
89771
89908
90004
90206
90294
90460
90557
90704
90822
90941
91057
91175
91296
91420
91517
91675
91804
91930
92054
92175
92277
92411
92531
92652
92778
92907
93041
93176
93305
93432
93522
93678
93799
93915
94032
94144
94254
94360
94467
94570
94683
94800
94881
95047
95165
95279
95396
95515
95605
95756
95877
95998
96103
96238
96354
96466
96585
96711
96841
96975
97073
97254
97336
97502
97586
97747
97841
97985
98077
98240
98324
98487
98568
98732
98815
98970
99068
99195
99291
99424
99544
99672
99802
99928
100056
100176
100263
100411
100527
100643
100758
100855
100987
101100
101213
101324
101431
101527
101646
101751
101861
101973
102097
102175
102389
102491
102656
102784
102911
103007
103161
103282
103405
103508
103654
103773
103890
104016
104148
104230
104463
104544
104750
104837
105006
105124
105247
105375
105501
105589
105761
105881
105999
106115
106235
106336
106464
106572
106683
106804
106940
107030
107255
107350
107540
107640
107799
107921
108041
108165
108291
108415
108503
108672
108795
108918
109005
109172
109293
109438
109521
109749
109832
110052
110134
110326
110413
110579
110665
110813
110929
111053
111201
111278
111523
111604
111809
111890
112063
112165
112305
112416
112543
112683
112767
112996
113094
113253
113373
113496
113617
113747
113838
114035
114149
114308
114450
114603
114695
114911
115008
115183
115307
115429
115562
115709
115803
116028
116126
116303
116426
116556
116705
116805
117040
117145
117325
117441
117587
117726
117865
117971
118177
118273
118455
118557
118715
118843
118976
119113
119257
119350
119546
119680
119819
119922
120125
120264
120409
120494
120714
120815
120986
121115
121242
121371
121514
121672
121827
121977
122080
122270
122405
122532
122662
122793
122900
123046
123172
123307
123413
123598
123732
123868
123973
124146
124274
124402
124528
124654
124747
124907
125024
125145
125267
125397
125528
125661
125792
125900
126063
126194
126323
126429
126576
126704
126829
126937
127073
127159
127318
127440
127561
127664
127816
127943
128069
128164
128323
128451
128580
128682
128830
128957
129086
129182
129349
129478
129602
129707
129851
129974
130098
130200
130346
130467
130592
130695
130845
130964
131083
131200
131316
131432
131526
131660
131772
131883
131992
132112
132208
132333
132443
132555
132667
132779
132880
133003
133115
133229
133326
133461
133574
133696
133778
133934
134039
134165
134281
134397
134484
134636
134736
134869
134986
135098
135215
135334
135446
135561
135672
135786
135898
136013
136125
136220
136355
136465
136577
136690
136803
136895
137032
137149
137266
137364
137503
137624
137745
137830
137989
138111
138242
138333
138482
138595
138711
138833
138947
139060
139165
139278
139388
139468
139616
139731
139849
139975
140090
140218
140333
140463
140592
140721
140811
140967
141089
141205
141319
141430
141502
141649
141758
141873
141962
142106
142220
142345
142440
142591
142707
142835
142968
143104
143234
143333
143489
143612
143737
143831
143986
144099
144218
144335
144450
144565
144683
144806
144931
145058
145141
145324
145453
145578
145705
145792
145966
146091
146216
146340
146442
146620
146744
146871
147000
147153
147239
147488
147573
147784
147885
148063
148152
148318
148439
148563
148691
148825
148925
149103
149220
149369
149504
149639
149774
149912
150052
150190
150322
150421
150584
150711
150840
150965
151089
151194
151337
151463
151590
151721
151828
151992
152121
152246
152369
152490
152607
152730
152855
152978
153065
153220
153344
153475
153609
153709
153877
154006
154134
154257
154375
154488
154607
154725
154849
154985
155128
155222
155424
155554
155682
155811
155936
156063
156157
156318
156448
156573
156698
156826
156913
157096
157225
157346
157476
157608
157694
157885
158013
158140
158265
158386
158505
158635
158724
158915
159038
159166
159293
159417
159509
159677
159801
159932
160059
160181
160266
160451
160578
160705
160839
160962
161064
161210
161338
161470
161603
161692
161885
162013
162142
162248
162396
162513
162632
162754
162869
162951
163105
163230
163360
163488
163614
163698
163868
163992
164118
164208
164369
164486
164607
164730
164853
164978
165106
165194
165378
165503
165628
165714
165888
166014
166140
166254
166395
166517
166638
166757
166891
167013
167134
167226
167380
167502
167620
167738
167837
167977
168097
168215
168330
168415
168563
168689
168810
168932
169087
169181
169388
169524
169663
169756
169942
170068
170194
170321
170449
170577
170660
170832
170955
171086
171182
171338
171460
171576
171694
171813
171914
172080
172212
172347
172446
172613
172742
172872
172976
173156
173295
173445
173543
173731
173826
173994
174120
174243
174370
174497
174623
174725
174920
175017
175184
175310
175433
175555
175680
175811
175900
176103
176212
176371
176501
176635
176769
176859
177032
177157
177284
177410
177528
177613
177785
177907
178037
178121
178311
178444
178578
178664
178858
178990
179130
179239
179401
179528
179663
179799
179931
180067
180207
180312
180479
180609
180743
180876
181005
181088
181266
181396
181521
181636
181771
181897
182023
182145
182264
182384
182494
182627
182745
182871
183002
183135
183264
183370
183519
183647
183766
183897
184021
184148
184282
184415
184544
184641
184813
184943
185061
185191
185310
185467
185600
185732
185867
186006
186105
186300
186430
186559
186669
186817
186946
187081
187218
187312
187502
187639
187776
187868
188053
188181
188305
188426
188544
188662
188754
188917
189046
189180
189281
189459
189594
189722
189836
189980
190112
190244
190332
190511
190635
190758
190881
191000
191116
191240
191362
191490
191627
191735
191907
192037
192162
192268
192423
192547
192674
192779
192944
193070
193198
193302
193476
193603
193732
193831
193983
194102
194226
194343
194462
194582
194696
194790
194959
195081
195207
195321
195459
195584
195699
195818
195936
196052
196168
196289
196416
196553
196647
196829
196957
197086
197187
197343
197466
197588
197705
197808
197946
198066
198192
198320
198408
198595
198726
198867
199000
199097
199259
199383
199510
199602
199769
199890
200016
200144
200284
200386
200568
200696
200827
200925
201095
201222
201340
201436
201593
201718
201842
201966
202091
202196
202359
202483
202608
202691
202864
202988
203108
203230
203354
203448
203620
203746
203873
203985
204144
204273
204403
204541
204685
204770
204969
205105
205237
205367
205502
205604
205781
205914
206049
206179
206283
206448
206571
206695
206816
206941
207046
207185
207301
207438
207598
207686
207921
208019
208204
208319
208461
208589
208715
208844
208978
209082
209285
209393
209553
209683
209819
209931
210118
210257
210395
210525
210648
210777
210909
211005
211180
211310
211437
211566
211697
211783
211949
212071
212193
212312
212429
212513
212673
212798
212923
213046
213174
213280
213437
213567
213698
213789
213968
214093
214218
214344
214469
214567
214739
214874
215013
215109
215288
215419
215554
215651
215835
215965
216086
216215
216310
216469
216591
216716
216834
216978
217104
217237
217361
217467
217617
217742
217865
217988
218109
218228
218346
218470
218595
218733
218864
218953
219142
219269
219399
219528
219655
219738
219910
220032
220149
220272
220391
220513
220643
220747
220931
221063
221199
221331
221466
221598
221723
221852
221977
222105
222202
222365
222486
222607
222714
222851
222965
223083
223200
223323
223446
223531
223696
223821
223943
224061
224203
224332
224463
224560
224735
224865
225006
225140
225249
225408
225537
225660
225758
225918
226042
226170
226298
226427
226525
226703
226830
226959
227086
227175
227350
227475
227596
227722
227821
227994
228119
228252
228379
228512
228640
228742
228919
229047
229180
229298
229452
229582
229715
229847
229980
230110
230209
230356
230476
230599
230724
230847
230974
231061
231236
231357
231479
231597
231723
231845
231944
232090
232210
232328
232447
232564
232666
232806
232924
233072
233224
233384
233479
233715
233811
234003
234100
234270
234385
234530
234660
234790
234920
235049
235140
235315
235417
235569
235691
235811
235932
236053
236155
236292
236411
236533
236655
236778
236862
237045
237166
237272
237440
237563
237684
237805
237923
238048
238151
238385
238530
238678
238820
238975
239067
239331
239434
239658
239761
239949
240062
240206
240321
240452
240615
240716
240955
241061
241233
241362
241490
241630
241793
241889
242135
242241
242423
242555
242684
242781
242948
243075
243209
243324
243481
243607
243737
243861
243985
244113
244237
244361
244508
244645
244742
244958
245098
245238
245375
245505
245636
245728
245906
246035
246162
246287
246410
246508
246651
246769
246886
247004
247117
247227
247348
247473
247601
247731
247843
247997
248134
248267
248397
248524
248648
248772
248895
249020
249145
249270
249370
249520
249635
249754
249872
249991
250106
250223
250317
250474
250602
250729
250867
250977
251164
251278
251423
251552
251685
251772
251962
252089
252219
252344
252469
252549
252708
252827
252944
253069
253196
253328
253466
253603
253735
253844
254020
254154
254284
254380
254557
254687
254813
254939
255056
255153
255296
255413
255532
255654
255781
255908
256033
256120
256287
256410
256530
256648
256772
256876
257023
257150
257293
257397
257605
257712
257882
257989
258149
258278
258408
258539
258667
258796
258889
259044
259164
259283
259398
259512
259605
259738
259851
259963
260075
260191
260309
260433
260554
260673
260772
260920
261039
261160
261283
261400
261495
261634
261749
261864
261979
262093
262180
262343
262463
262597
262695
262861
262984
263113
263220
263366
263487
263603
263691
263851
263971
264083
264180
264322
264443
264559
264678
264777
264944
265069
265197
265293
265451
265575
265697
265817
265936
266026
266178
266298
266417
266535
266654
266744
266904
267021
267148
267258
267402
267524
267654
267750
267931
268050
268183
268314
268444
268542
268725
268819
268991
269087
269253
269351
269507
269604
269765
269861
270019
270117
270275
270374
270522
270617
270763
270873
271004
271124
271249
271380
271520
271658
271797
271891
272079
272206
272334
272421
272583
272708
272836
272950
273071
273179
273312
273428
273546
273672
273802
273922
274032
274178
274312
274439
274564
274675
274823
274953
275082
275206
275318
275461
275588
275718
275845
275978
276109
276222
276394
276530
276666
276801
276909
277063
277190
277322
277453
277586
277713
277844
277966
278091
278208
278321
278442
278558
278684
278810
278942
279073
279200
279328
279447
279569
279669
279812
279934
280065
280200
280330
280451
280545
280702
280825
280941
281060
281178
281283
281419
281545
281683
281817
281933
282083
282212
282347
282478
282573
282740
282863
282988
283116
283234
283374
283503
283635
283735
283919
284047
284182
284270
284454
284578
284708
284797
284973
285097
285217
285339
285466
285582
285747
285890
286037
286182
286279
286475
286614
286748
286881
287016
287128
287286
287416
287546
287677
287812
287940
288030
288195
288322
288449
288549
288701
288822
288947
289068
289189
289313
289441
289582
289688
289904
290049
290194
290281
290492
290630
290762
290864
291039
291171
291298
291390
291568
291702
291834
291943
292095
292225
292352
292463
292602
292725
292852
292974
293098
293205
293349
293473
293598
293687
293841
293962
294082
294199
294314
294425
294543
294663
294774
294922
295063
295213
295364
295513
295604
295797
295927
296056
296189
296317
296442
296567
296696
296824
296960
297046
297232
297361
297490
297616
297735
297855
297970
298106
298233
298358
298483
298607
298743
298873
299014
299154
299295
299433
299527
299705
299835
299966
300085
300207
300330
300462
300605
300747
300837
301049
301186
301319
301412
301588
301712
301836
301960
302093
302234
302386
302480
302721
302851
303002
303141
303279
303386
303590
303700
303876
304015
304149
304284
304402
304560
304696
304834
304939
305106
305241
305366
305467
305608
305727
305846
305963
306049
306199
306318
306436
306554
306687
306820
306964
307050
307264
307402
307540
307642
307823
307956
308088
308207
308357
308494
308640
308750
308928
309067
309218
309313
309507
309637
309769
309897
310028
310152
310264
310404
310528
310663
310794
310904
311054
311181
311312
311450
311593
311734
311871
312002
312125
312247
312355
312485
312597
312710
312827
312937
313052
313170
313292
313413
313495
313675
313802
313937
314036
314190
314309
314432
314555
314672
314754
314910
315028
315148
315272
315392
315511
315629
315752
315875
315999
316128
316255
316382
316479
316654
316782
316914
317037
317123
317289
317412
317528
317632
317771
317893
318015
318132
318255
318398
318486
318730
318873
319018
319172
319319
319408
319622
319761
319894
320026
320157
320275
320413
320538
320666
320789
320926
321052
321185
321306
321433
321559
321684
321791
321930
322059
322181
322303
322424
322548
322672
322795
322918
323022
323161
323285
323402
323518
323637
323755
323878
323998
324079
324246
324369
324493
324614
324736
324857
324985
325079
325246
325373
325496
325616
325735
325833
325974
326093
326211
326331
326436
326580
326706
326833
326932
327090
327220
327348
327448
327604
327730
327851
327980
328102
328223
328346
328469
328592
328683
328839
328961
329079
329196
329312
329406
329541
329656
329770
329884
330001
330123
330239
330336
330485
330608
330742
330832
330996
331117
331245
331344
331488
331607
331722
331849
331976
332071
332241
332371
332503
332597
332765
332891
333017
333139
333259
333353
333504
333625
333744
333860
333978
334064
334220
334337
334453
334569
334686
334787
334921
335036
335160
335276
335432
335567
335698
335793
335967
336095
336216
336338
336461
336555
336704
336823
336942
337066
337188
337311
337433
337525
337684
337810
337935
338058
338180
338301
338421
338542
338649
338792
338917
339039
339147
339283
339407
339527
339634
339768
339889
340010
340130
340238
340373
340497
340619
340739
340859
340977
341090
341204
341303
341431
341544
341664
341784
341880
342046
342174
342300
342423
342520
342668
342791
342913
343033
343148
343231
343373
343491
343604
343715
343821
343939
344057
344174
344289
344402
344547
344682
344810
344910
345072
345199
345326
345415
345577
345699
345819
345939
346059
346182
346305
346393
346565
346688
346813
346935
347062
347159
347312
347438
347569
347683
347828
347964
348095
348200
348386
348525
348668
348757
348939
349071
349201
349328
349451
349544
349698
349822
349956
350051
350221
350347
350469
350582
350706
350822
350940
351033
351189
351315
351451
351600
351696
351926
352036
352196
352326
352452
352576
352700
352810
352951
353079
353208
353345
353459
353623
353761
353896
354026
354147
354274
354403
354537
354669
354764
354955
355091
355222
355355
355489
355588
355778
355912
356050
356190
356321
356450
356584
356725
356874
357035
357126
357353
357492
357626
357761
357896
358012
358160
358292
358434
358580
358722
358872
358959
359169
359301
359426
359550
359672
359774
359914
360030
360152
360272
360392
360511
360632
360756
360889
361011
361134
361261
361364
361524
361646
361769
361891
362013
362137
362232
362388
362507
362636
362765
362892
362990
363151
363273
363398
363523
363641
363760
363882
364017
364176
364270
364488
364582
364758
364884
365009
365130
365237
365376
365502
365634
365756
365924
366073
366225
366340
366521
366653
366794
366895
367054
367181
367305
367407
367561
367688
367814
367943
368072
368202
368295
368489
368625
368762
368860
369049
369178
369302
369425
369549
369642
369804
369931
370065
370171
370332
370465
370605
370700
370888
371021
371150
371249
371428
371553
371678
371801
371925
372021
372170
372292
372418
372525
372678
372808
372941
373038
373216
373347
373475
373606
373741
373842
374014
374148
374292
374389
374580
374713
374846
374977
375109
375200
375390
375521
375653
375784
375920
376053
376182
376308
376433
376564
376687
376810
376934
377024
377187
377312
377429
377555
377681
377799
377930
378055
378182
378314
378441
378563
378687
378813
378939
379061
379179
379290
379410
379526
379646
379759
379890
380008
380138
380263
380396
380494
380652
380772
380893
381012
381130
381248
381368
381464
381617
381741
381864
381980
382075
382224
382344
382466
382591
382706
382794
382955
383073
383193
383294
383433
383552
383671
383790
383910
383992
384158
384279
384393
384509
384627
384749
384876
385003
385093
385286
385418
385548
385679
385815
385904
386097
386225
386351
386479
386605
386735
386853
386939
387117
387242
387364
387473
387614
387743
387868
387990
388122
388269
388369
388573
388713
388859
388959
389148
389277
389411
389540
389670
389787
389929
390064
390209
390371
390527
390677
390776
390976
391112
391244
391376
391513
391619
391807
391943
392080
392180
392369
392505
392628
392776
392862
393045
393173
393298
393411
393551
393680
393812
393961
394056
394275
394410
394548
394681
394814
394914
395080
395209
395333
395454
395586
395725
395873
396019
396109
396302
396435
396563
396690
396813
396937
397051
397189
397317
397453
397594
397737
397832
398036
398172
398301
398426
398544
398667
398808
398937
399068
399208
399310
399499
399634
399769
399878
400034
400160
400285
400411
400539
400665
400790
400918
401046
401171
401277
401411
401531
401651
401767
401885
401999
402111
402204
402334
402443
402554
402650
402782
402901
403019
403135
403254
403372
403480
403611
403733
403856
403971
404103
404221
404337
404419
404581
404699
404810
404905
405039
405155
405265
405371
405497
405614
405732
405851
405950
406101
406224
406345
406442
406596
406718
406840
406937
407072
407186
407299
407395
407527
407642
407758
407868
408022
408178
408330
408431
408625
408711
408894
408996
409153
409253
409395
409515
409640
409766
409894
410021
410148
410246
410419
410548
410679
410817
410949
411058
411239
411372
411505
411636
411767
411899
412029
412128
412289
412416
412542
412672
412793
412934
413061
413191
413319
413441
413564
413666
413809
413930
414056
414183
414302
414394
414548
414669
414785
414904
415002
415146
415266
415376
415493
415632
415751
415873
416000
416128
416257
416345
416514
416640
416765
416888
417005
417125
417244
417329
417468
417577
417689
417800
417927
418076
418165
418397
418491
418663
418751
418911
419017
419150
419265
419380
419495
419609
419720
419833
419952
420032
420243
420327
420506
420596
420761
420866
421000
421116
421232
421350
421467
421557
421718
421843
421974
422055
422242
422370
422496
422621
422747
422848
423023
423155
423289
423379
423576
423710
423842
423942
424119
424252
424380
424473
424633
424756
424885
425004
425130
425268
425420
425511
425733
425873
426014
426110
426289
426416
426544
426671
426803
426896
427068
427196
427322
427455
427592
427749
427848
428093
428240
428392
428492
428696
428841
428982
429082
429266
429400
429531
429663
429803
429901
430102
430233
430368
430481
430629
430759
430886
431012
431103
431267
431391
431512
431612
431752
431868
431990
432106
432223
432338
432455
432570
432685
432803
432931
433049
433169
433252
433412
433536
433657
433776
433884
434012
434137
434256
434378
434501
434624
434746
434864
434968
435097
435213
435328
435406
435554
435667
435781
435882
436009
436128
436244
436361
436483
436613
436744
436872
436964
437150
437276
437399
437508
437644
437768
437889
438010
438134
438250
438360
438501
438625
438752
438882
439013
439099
439282
439412
439537
439657
439784
439906
440001
440142
440262
440389
440515
440637
440721
440887
441008
441135
441263
441354
441507
441623
441749
441867
441984
442102
442198
442349
442470
442601
442743
442889
443027
443115
443298
443425
443553
443682
443800
443890
444048
444168
444281
444398
444520
444619
444784
444909
445036
445125
445308
445433
445561
445685
445780
445936
446052
446173
446294
446418
446517
446671
446791
446917
447015
447170
447289
447407
447497
447646
447747
447883
447997
448114
448228
448333
448456
448577
448708
448810
448987
449123
449266
449365
449558
449684
449834
449967
450099
450207
450366
450501
450629
450757
450890
451023
451121
451288
451419
451550
451648
451830
451963
452100
452193
452371
452499
452624
452756
452892
452988
453227
453331
453547
453648
453852
453949
454138
454233
454409
454510
454681
454778
454955
455053
455220
455321
455477
455581
455735
455845
455982
456105
456228
456351
456472
456577
456718
456843
456966
457087
457162
457330
457452
457566
457685
457783
457916
458036
458143
458255
458368
458487
458609
458738
458874
459022
459159
459310
459443
459574
459663
459844
459971
460095
460217
460334
460453
460577
460701
460824
460948
461039
461202
461322
461449
461577
461713
461819
461972
462096
462230
462361
462490
462613
462699
462871
462994
463117
463234
463356
463477
463605
463737
463868
463976
464140
464276
464414
464512
464688
464821
464948
465078
465206
465333
465464
465600
465698
465883
466017
466145
466271
466396
466512
466657
466789
466922
467060
467198
467330
467461
467592
467722
467851
467979
468093
468233
468355
468479
468602
468727
468846
468968
469062
469205
469319
469440
469559
469671
469790
469892
470021
470136
470254
470370
470491
470617
470712
470872
470994
471112
471225
471341
471453
471571
471685
471808
471936
472053
472177
472301
472427
472549
472644
472793
472909
473028
473137
473262
473381
473498
473615
473730
473847
473967
474089
474203
474341
474466
474590
474686
474842
474965
475086
475204
475301
475439
475555
475669
475749
475905
476024
476143
476263
476384
476470
476629
476748
476866
476985
477117
477206
477384
477510
477636
477747
477894
478019
478149
478248
478398
478522
478646
478768
478892
478996
479133
479258
479382
479504
479622
479738
479853
479956
480082
480192
480308
480424
480566
480699
480827
480960
481092
481190
481353
481473
481597
481724
481851
481973
482066
482219
482342
482464
482581
482709
482838
482953
483112
483247
483383
483482
483651
483776
483897
484005
484141
484262
484377
484489
484615
484735
484856
484954
485096
485219
485342
485460
485577
485704
485830
485956
486063
486212
486339
486472
486600
486723
486833
486969
487089
487213
487339
487464
487554
487729
487853
487978
488101
488206
488348
488468
488585
488710
488841
488982
489121
489212
489421
489560
489693
489799
489968
490100
490234
490356
490492
490622
490749
490850
491003
491123
491244
491353
491495
491624
491760
491859
492037
492165
492300
492428
492520
492685
492811
492937
493060
493154
493313
493437
493558
493655
493818
493943
494066
494156
494314
494437
494557
494672
494792
494911
495012
495160
495283
495407
495532
495635
495793
495921
496043
496152
496302
496427
496553
496674
496796
496885
497056
497182
497310
497412
497592
497727
497885
497982
498178
498282
498440
498550
498695
498821
498949
499080
499216
499346
499472
499556
499724
499846
499969
500062
500215
500333
500455
500543
500697
500811
500932
501039
501183
501307
501457
501553
501760
501848
502032
502146
502285
502411
502527
502647
502736
502891
503009
503131
503257
503390
503481
503656
503784
503914
504011
504183
504309
504434
504530
504694
504825
504958
505091
505182
505370
505504
505637
505764
505861
506036
506166
506295
506421
506516
506680
506806
506936
507069
507203
507297
507488
507620
507750
507857
508017
508141
508265
508362
508532
508659
508789
508908
509055
509182
509306
509428
509549
509654
509795
509915
510038
510158
510272
510416
510544
510672
510800
510923
511042
511167
511290
511414
511542
511669
511773
511947
512086
512220
512342
512500
512643
512789
512897
513102
513216
513385
513520
513654
513798
513933
514041
514222
514364
514506
514611
514791
514930
515068
515200
515341
515484
515632
515740
515938
516084
516226
516368
516508
516609
516795
516930
517060
517156
517321
517449
517575
517701
517827
517950
518071
518194
518297
518452
518581
518712
518829
518986
519119
519257
519386
519509
519602
519760
519882
520001
520117
520238
520357
520480
520607
520733
520826
521022
521156
521292
521402
521557
521688
521820
521925
522073
522198
522323
522431
522568
522684
522815
522933
523053
523169
523285
523382
523514
523628
523743
523856
523969
524085
524181
524319
524434
524550
524666
524784
524880
