peaks
75032
75209
75384
75550
75709
75891
75993
76233
76333
76567
76725
76886
76990
77211
77315
77520
77626
77877
78045
78216
78388
78562
78748
78941
79164
79407
79649
79877
80125
80360
80617
80846
81059
81270
81484
81691
81898
82112
82326
82538
82752
82863
83180
83291
83603
83717
83993
84108
84364
84480
84738
84857
85112
85232
85491
85611
85891
86006
86270
86387
86646
86762
87023
87141
87390
87507
87790
87904
88161
88275
88526
88642
88865
88980
89248
89360
89606
89719
89964
90077
90319
90430
90648
90760
91031
91142
91396
91507
91750
91863
92149
92260
92524
92690
92899
93082
93275
93481
93681
93888
94099
94307
94522
94731
94966
95215
95458
95657
95898
96105
96314
96520
96717
96824
97110
97216
97486
97593
97834
97945
98220
98328
98583
98687
98938
99048
99289
99398
99647
99760
100006
100119
100407
100520
100787
100897
101145
101256
101543
101656
101922
102034
102281
102395
102650
102761
103034
103145
103400
103510
103762
103874
104101
104213
104492
104603
104848
104960
105174
105287
105555
105668
105912
106024
106244
106355
106619
106731
106968
107079
107318
107431
107645
107759
108029
108209
108389
108498
108762
108915
109105
109305
109496
109681
109854
110062
110266
110456
110646
110836
111022
111207
111385
111558
111763
111873
112151
112259
112518
112628
112860
112957
113239
113350
113587
113698
113929
114038
114264
114373
114594
114702
114895
114994
115213
115308
115509
115610
115815
115909
116081
116185
116422
116527
116745
116854
117077
117187
117396
117508
117765
117876
118112
118225
118457
118568
118785
118897
119154
119267
119507
119679
119854
120029
120196
120370
120588
120697
121002
121186
121405
121615
121812
122008
122199
122404
122613
122821
123035
123248
123443
123665
123775
124086
124198
124496
124606
124885
124998
125275
125387
125646
125760
126006
126122
126362
126478
126709
126824
127057
127167
127452
127560
127835
127946
128201
128310
128593
128703
128990
129098
129374
129484
129761
129870
130139
130248
130505
130615
130890
131002
131265
131375
131648
131760
132031
132137
132398
132498
132751
132856
133092
133183
133412
133575
133747
133933
134124
134328
134528
134773
135018
135249
135471
135723
135961
136181
136427
136668
136884
137078
137331
137560
137779
138001
138203
138456
138710
138960
139204
139442
139695
139924
140132
140395
140623
140846
141055
141167
141521
141637
141960
142078
142384
142503
142796
142916
143196
143317
143588
143711
143962
144087
144317
144530
144643
144919
145034
145289
145404
145653
145771
145997
146203
146400
146589
146778
146976
147090
147386
147501
147795
147909
148209
148323
148581
148698
148974
149087
149338
149448
149680
149788
150015
150118
150317
150418
150634
150736
150930
151035
151275
151379
151598
151700
151913
152020
152226
152339
152596
152709
152947
153064
153294
153407
153615
153730
153983
154097
154329
154442
154657
154770
154996
155109
155346
155459
155686
155799
156021
156178
156327
156503
156676
156847
156960
157209
157379
157581
157769
157955
158150
158340
158529
158723
158913
159091
159269
159494
159689
159882
160074
160265
160452
160564
160832
160942
161190
161301
161572
161682
161924
162036
162279
162383
162630
162741
162979
163090
163317
163428
163699
163809
164056
164170
164398
164514
164756
164870
165121
165235
165476
165593
165814
165927
166165
166280
166518
166629
166837
166951
167166
167274
167459
167560
167789
167892
168111
168215
168404
168508
168733
168846
169045
169153
169342
169449
169671
169779
169985
170094
170302
170414
170624
170737
170930
171042
171268
171381
171589
171698
171909
172019
172225
172335
172540
172647
172849
172958
173174
173284
173508
173672
173842
173952
174194
174373
174555
174738
174923
175111
175304
175501
175696
175923
176135
176352
176566
176761
176985
177101
177397
177505
177791
177902
178169
178278
178520
178634
178886
178998
179238
179352
179588
179704
179920
180036
180290
180408
180647
180762
180999
181116
181337
181455
181707
181823
182068
182182
182423
182538
182762
182877
183129
183242
183473
183581
183794
183897
184104
184210
184403
184503
184719
184819
185020
185121
185331
185435
185651
185754
185974
186080
186283
186392
186630
186733
186960
187067
187299
187406
187639
187746
187958
188069
188320
188429
188662
188771
189002
189112
189339
189445
189704
189810
190066
190176
190409
190517
190788
190901
191156
191339
191529
191727
191932
192164
192409
192643
192875
193112
193317
193570
193801
194017
194208
194438
194654
194866
195080
195302
195527
195750
195966
196185
196405
196649
196868
197091
197323
197434
197783
197897
198232
198351
198687
198804
199118
199237
199547
199665
199974
200096
200396
200518
200827
200943
201241
201359
201655
201761
202046
202151
202463
202572
202887
202996
203328
203440
203764
203879
204216
204332
204656
204771
205073
205189
205493
205609
205906
206018
206299
206412
206685
206791
207049
207152
207409
207511
207771
207878
208144
208253
208533
208645
208933
209044
209330
209444
209730
209842
210125
210237
210526
210730
210941
211155
211383
211623
211865
212099
212341
212580
212809
213028
213252
213475
213705
213924
214146
214376
214590
214837
215079
215333
215580
215831
216062
216341
216593
216838
217120
217364
217592
217871
218117
218348
218574
218796
219013
219230
219452
219663
219869
220078
220281
220480
220678
220880
220993
221277
221477
221591
221873
222070
222267
222466
222652
222843
222957
223275
223387
223663
223774
224020
224196
224357
224570
224771
224971
225083
225387
225495
225812
225932
226202
226426
226618
226809
227008
227213
227415
227624
227830
228037
228225
228467
228583
228902
229017
229311
229435
229698
229877
230044
230243
230423
230598
230779
230966
231155
231341
231531
231720
231838
232120
232239
232520
232636
232892
233012
233228
233417
233590
233762
233937
234114
234299
234490
234679
234868
235062
235238
235417
235536
235818
235928
236173
236270
236472
236581
236813
236915
237116
237228
237434
237548
237747
237858
238055
238169
238362
238475
238666
238780
238970
239083
239271
239387
239578
239690
239880
240031
240181
240330
240486
240648
240811
240971
241127
241236
241442
241603
241762
241911
242054
242195
242371
242529
242687
242791
243018
243188
243357
243469
243695
243806
244016
244128
244379
244550
244717
244886
245055
245227
245341
245578
245689
245908
246021
246289
246402
246641
246750
246954
247068
247303
247414
247627
247743
247949
248061
248274
248388
248604
248717
248916
249029
249281
249394
249631
249743
249961
250076
250312
250427
250680
250791
251031
251143
251365
251476
251738
251850
252088
252199
252436
252550
252780
252892
253117
253227
253459
253568
253818
253926
254159
254265
254472
254586
254837
254946
255185
255296
255528
255637
255852
255964
256204
256318
256540
256655
256877
256989
257213
257320
257550
257664
257868
257979
258224
258331
258556
258657
258862
258962
259176
259274
259478
259571
259767
259862
260065
260165
260359
260460
260702
260808
261038
261147
261386
261496
261738
261848
262096
262206
262448
262558
262787
262898
263098
263208
263452
263557
263783
263890
264119
264229
264431
264540
264785
264893
265125
265233
265455
265565
265819
265928
266169
266279
266503
266610
266873
266981
267226
267334
267578
267689
267916
268024
268294
268402
268651
268760
268991
269099
269368
269477
269731
269839
270094
270199
270474
270583
270846
270952
271214
271316
271561
271663
271936
272044
272294
272401
272657
272765
273012
273120
273415
273606
273804
274027
274271
274499
274745
275023
275253
275503
275765
275981
276244
276481
276711
276935
277171
277412
277664
277885
278096
278317
278566
278822
279099
279377
279629
279908
280189
280457
280722
280963
281194
281417
281624
281832
282037
282241
282351
282664
282779
283070
283186
283470
283585
283863
283980
284249
284366
284641
284758
285028
285143
285418
285535
285807
285921
286220
286333
286610
286724
287003
287117
287393
287508
287780
287894
288173
288286
288545
288656
288951
289063
289337
289449
289721
289832
290101
290211
290490
290601
290890
291001
291282
291394
291665
291778
292045
292154
292414
292521
292761
292868
293097
293202
293445
293543
293771
293872
294090
294193
294399
294507
294742
294846
295075
295178
295406
295514
295746
295856
296088
296196
296415
296527
296769
296881
297125
297234
297478
297589
297829
297941
298165
298276
298531
298647
298883
299055
299228
299403
299589
299700
299963
300071
300366
300558
300747
300936
301125
301323
301529
301740
301961
302177
302393
302607
302811
303016
303225
303431
303542
303843
303954
304239
304350
304617
304731
304981
305101
305339
305516
305697
305886
306081
306285
306492
306697
306912
307024
307338
307452
307737
307860
308121
308252
308493
308672
308853
309038
309151
309425
309611
309797
309973
310165
310282
310544
310645
310899
311017
311254
311424
311580
311768
311943
312121
312303
312491
312684
312874
313073
313258
313481
313690
313898
314105
314305
314504
314705
314900
315090
315281
315473
315588
315852
316032
316221
316325
316602
316725
316977
317163
317288
317529
317713
317895
318006
318262
318441
318556
318800
318976
319153
319262
319506
319678
319858
319969
320243
320358
320612
320730
320967
321087
321303
321434
321666
321780
322012
322128
322353
322468
322686
322801
322993
323109
323345
323456
323680
323793
324018
324126
324346
324459
324684
324795
325015
325127
325345
325456
325672
325784
325977
326086
326325
326439
326655
326767
326980
327094
327281
327384
327609
327759
327908
328019
328209
328309
328514
328614
328811
328913
329150
329313
329474
329582
329808
329918
330134
330244
330505
330615
330852
331003
331174
331362
331540
331649
331897
332004
332231
332332
332592
332693
332936
333037
333248
333346
333573
333675
333898
334002
334224
334329
334551
334660
334869
334980
335227
335339
335567
335677
335900
336012
336239
336350
336583
336693
336921
337032
337236
337348
337597
337707
337941
338052
338271
338380
338637
338745
338981
339088
339302
339410
339662
339770
340008
340116
340329
340438
340688
340799
341028
341136
341367
341476
341677
341786
342038
342147
342380
342489
342715
342822
343066
343176
343410
343518
343744
343852
344096
344201
344430
344531
344750
344853
345074
345174
345399
345497
345722
345825
346030
346131
346372
346474
346699
346806
347041
347146
347356
347461
347721
347830
348067
348177
348393
348500
348759
348868
349103
349208
349414
349517
349756
349858
350078
350178
350381
350481
350718
350815
351047
351149
351358
351461
351709
351815
352056
352163
352382
352491
352748
352858
353097
353205
353414
353523
353780
353889
354131
354239
354455
354560
354827
354937
355173
355282
355513
355622
355893
356074
356249
356425
356635
356842
357058
357256
357517
357751
358015
358275
358519
358745
358976
359244
359488
359711
359925
360167
360385
360602
360813
361019
361231
361341
361652
361762
362061
362166
362431
362536
362803
362911
363175
363283
363554
363665
363937
364050
364333
364447
364722
364837
365109
365224
365492
365608
365876
365989
366254
366369
366645
366758
367030
367132
367383
367480
367711
367803
368053
368152
368394
368494
368735
368839
369073
369180
369453
369563
369821
369933
370190
370299
370560
370670
370905
371017
371294
371405
371659
371769
372025
372134
372385
372492
372748
372859
373121
373231
373497
373610
373869
374058
374249
374440
374647
374865
375078
375327
375589
375854
376112
376361
376601
376826
377047
377267
377482
377702
377934
378173
378394
378664
378931
379206
379470
379709
379930
380197
380422
380621
380842
381043
381252
381464
381575
381898
382012
382331
382447
382746
382865
383147
383268
383548
383664
383938
384056
384318
384427
384684
384788
385016
385114
385339
385454
385706
385800
386048
386151
386400
386508
386743
386859
387138
387252
387510
387627
387875
387991
388210
388409
388592
388781
388969
389169
389371
389484
389792
389905
390229
390342
390650
390763
391049
391162
391446
391559
391827
391940
392195
392311
392579
392695
392939
393054
393295
393409
393660
393775
394032
394145
394402
394515
394756
394871
395151
395264
395526
395636
395886
396000
396236
396347
396571
396683
396961
397146
397336
397534
397756
397968
398210
398441
398698
398956
399194
399422
399635
399871
400094
400307
400521
400730
400947
401171
401394
401598
401796
402044
402261
402472
402667
402905
403108
403322
403549
403756
404002
404239
404473
404742
405015
405273
405508
405792
406048
406262
406481
406717
406921
407118
407318
407524
407734
407938
408146
408363
408577
408778
408984
409193
409403
409611
409845
409959
410303
410423
410727
410936
411142
411341
411538
411733
411970
412086
412421
412540
412844
412977
413255
413443
413620
413735
414043
414172
414445
414638
414830
415057
415314
415428
415749
415866
416168
416286
416578
416699
416966
417138
417345
417549
417754
417962
418175
418383
418602
418717
419041
419152
419444
419554
419853
419960
420229
420335
420591
420698
420946
421055
421301
421415
421660
421778
422032
422147
422399
422517
422735
422863
423125
423240
423491
423608
423848
423965
424170
424287
424537
424651
424880
424992
425211
425326
425516
425630
425882
425994
426230
426344
426571
426687
426906
427021
427292
427475
427671
427879
428087
428328
428584
428804
429051
429311
429572
429805
430038
430263
430475
430737
430969
431201
431422
431638
431850
432062
432283
432482
432724
432955
433173
433385
433600
433806
434039
434302
434561
434792
435043
435319
435572
435808
436013
436214
436315
436641
436745
437041
437156
437422
437609
437794
437981
438099
438362
438489
438722
438933
439146
439355
439470
439762
439881
440171
440288
440577
440694
440964
441084
441331
441452
441705
441825
442066
442177
442433
442547
442798
442914
443173
443289
443573
443685
443942
444058
444286
444399
444673
444787
445029
445143
445376
445491
445718
445832
446044
446159
446421
446534
446785
446898
447137
447249
447496
447608
447868
447980
448224
448333
448557
448669
448906
449018
449270
449383
449618
449731
449973
450083
450310
450421
450703
450818
451062
451226
451382
451576
451689
451934
452046
452284
452396
452608
452718
452963
453072
453290
453394
453601
453703
453886
453988
454213
454316
454517
454618
454827
454932
455121
455228
455471
455639
455807
455980
456151
456335
456549
456749
456966
457195
457414
457623
457820
458009
458202
458388
458576
458759
458933
459158
459265
459529
459630
459882
459988
460238
460351
460584
460698
460985
461095
461345
461457
461706
461819
462060
462172
462462
462575
462845
462957
463222
463337
463641
463754
464044
464154
464448
464559
464848
464959
465247
465358
465654
465763
466049
466161
466466
466577
466900
467010
467316
467429
467721
467833
468123
468235
468530
468644
468930
469044
469324
469436
469716
469827
470069
470177
470452
470557
470801
470902
471128
471228
471455
471560
471813
471915
472166
472272
472519
472626
472851
472959
473236
473349
473615
473725
473973
474083
474378
474488
474752
474860
475118
475225
475495
475687
475866
476049
476234
476426
476619
476813
477020
477264
477489
477706
477904
478137
478367
478587
478798
479003
479194
479427
479658
479878
480092
480310
480527
480741
480952
481164
481381
481600
481816
482071
482319
482545
482751
483004
483251
483482
483690
483941
484055
484389
484503
484824
484940
485241
485360
485642
485763
486018
486253
486463
486577
486867
486982
487266
487382
487638
487754
488051
488160
488421
488528
488769
488877
489083
489273
489451
489629
489813
489999
490183
490379
490570
490758
490880
491178
491290
491586
491700
491979
492091
492324
492438
492715
492825
493065
493176
493410
493517
493718
493816
493983
494100
494336
494444
494675
494783
495014
495126
495416
495529
495782
495897
496191
496306
496568
496681
496917
497034
497332
497448
497708
497823
498114
498227
498494
498607
498836
498951
499241
499355
499616
499727
499987
500099
500336
500448
500728
500840
501086
501199
501472
501585
501834
501948
502165
502280
502555
502669
502919
503032
503280
503391
503654
503766
504016
504127
504399
504510
504760
504873
505108
505218
505430
505535
505784
505954
506133
506310
506485
506659
506836
507018
507216
507415
507624
507826
508027
508233
508436
508653
508865
509073
509288
509496
509730
509958
510169
510373
510585
510807
511011
511198
511397
511621
511860
512100
512346
512616
512867
513100
513321
513519
513793
513903
514264
514380
514718
514837
515182
515305
515638
515766
516070
516288
516506
516721
516838
517171
517289
517605
517735
518061
518179
518483
518615
518900
519028
519308
519434
519702
519962
520193
520308
520627
520742
521074
521188
521495
521610
521916
522031
522327
522441
522748
522858
523180
523290
523588
523700
523999
524111
524412
524524
524808
524920
