peaks
75092
75268
75401
75620
75798
75976
76106
76333
76508
76680
76817
77027
77198
77366
77536
77670
77876
78045
78214
78385
78517
78735
78911
79086
79224
79443
79623
79805
79938
80170
80355
80537
80666
80897
81073
81248
81381
81604
81778
81952
82126
82257
82476
82653
82829
82966
83182
83359
83535
83667
83888
84067
84246
84378
84603
84782
84963
85096
85323
85496
85670
85845
85974
86197
86373
86549
86683
86915
87097
87278
87408
87642
87826
88015
88142
88372
88552
88729
88860
89082
89259
89435
89570
89788
89963
90138
90273
90493
90668
90845
91021
91152
91371
91546
91718
91852
92049
92216
92384
92554
92724
92849
93077
93256
93431
93566
93785
93958
94125
94295
94428
94634
94804
94976
95146
95277
95488
95661
95833
96009
96138
96361
96536
96712
96851
97068
97247
97424
97555
97776
97949
98120
98294
98423
98637
98802
98966
99127
99258
99445
99605
99765
99923
100085
100249
100416
100582
100704
100925
101097
101269
101444
101572
101797
101972
102143
102282
102489
102661
102835
103011
103139
103360
103537
103713
103845
104075
104259
104440
104568
104808
104988
105165
105293
105519
105697
105875
106006
106227
106404
106581
106713
106933
107106
107278
107452
107578
107805
107982
108161
108288
108521
108699
108878
109008
109227
109402
109579
109716
109929
110103
110275
110448
110575
110794
110972
111154
111283
111517
111696
111871
112002
112226
112406
112584
112716
112936
113112
113286
113459
113587
113809
113984
114159
114300
114508
114683
114855
114993
115201
115370
115540
115711
115839
116057
116230
116405
116576
116702
116919
117088
117254
117423
117550
117765
117936
118108
118277
118402
118618
118788
118958
119135
119262
119498
119679
119857
119987
120211
120390
120566
120702
120920
121095
121265
121438
121562
121783
121957
122129
122300
122423
122647
122823
122996
123130
123351
123527
123697
123864
123988
124198
124367
124537
124708
124831
125055
125230
125405
125537
125762
125940
126120
126251
126471
126647
126817
126985
127110
127331
127504
127676
127854
127979
128206
128381
128552
128719
128847
129048
129207
129364
129523
129678
129796
129985
130140
130292
130444
130595
130718
130901
131032
131199
131361
131514
131666
131817
131967
132098
132265
132418
132574
132727
132879
133029
133179
133328
133471
133626
133775
133924
134073
134224
134355
134529
134685
134843
135005
135170
135340
135516
135693
135869
136045
136217
136390
136529
136737
136911
137082
137249
137374
137565
137741
137914
138088
138227
138438
138611
138787
138921
139133
139305
139479
139648
139774
139992
140163
140329
140498
140624
140845
141017
141189
141361
141485
141702
141872
142037
142199
142364
142523
142681
142805
143003
143161
143320
143485
143650
143812
143982
144153
144275
144497
144672
144846
145006
145196
145367
145538
145712
145838
146060
146235
146409
146551
146747
146916
147079
147241
147361
147572
147733
147894
148055
148214
148334
148534
148694
148852
149009
149161
149327
149484
149641
149773
149957
150114
150273
150431
150587
150743
150900
151055
151188
151363
151519
151677
151826
151983
152104
152296
152452
152609
152769
152931
153051
153262
153429
153598
153769
153939
154054
154280
154453
154623
154791
154918
155136
155305
155473
155642
155759
155973
156139
156303
156465
156582
156795
156964
157132
157300
157472
157587
157819
157995
158168
158340
158465
158683
158850
159018
159182
159298
159511
159679
159842
160003
160165
160283
160487
160647
160806
160965
161122
161241
161441
161597
161752
161911
162053
162186
162381
162543
162701
162858
163017
163135
163336
163497
163652
163815
163970
164085
164280
164434
164584
164727
164890
165007
165199
165335
165507
165663
165816
165973
166128
166283
166414
166597
166752
166905
167058
167211
167328
167516
167670
167823
167973
168123
168242
168425
168577
168728
168862
169035
169154
169345
169500
169653
169805
169960
170078
170270
170425
170582
170737
170891
171008
171205
171365
171520
171678
171836
171953
172149
172307
172465
172623
172782
172942
173104
173264
173385
173586
173748
173906
174065
174226
174384
174543
174702
174829
175015
175175
175332
175488
175644
175762
175962
176118
176272
176428
176581
176691
176889
177046
177199
177352
177503
177619
177807
177958
178109
178261
178413
178527
178719
178873
179025
179179
179332
179446
179640
179797
179952
180106
180259
180374
180563
180704
180861
181013
181162
181278
181459
181609
181758
181905
182051
182173
182354
182504
182652
182801
182948
183065
183242
183390
183535
183680
183828
183978
184123
184269
184403
184566
184718
184871
185024
185179
185333
185486
185640
185766
185942
186093
186244
186395
186545
186697
186848
186999
187127
187303
187457
187604
187760
187912
188032
188212
188361
188509
188658
188805
188925
189100
189252
189400
189549
189698
189817
189996
190147
190299
190451
190601
190721
190910
191064
191217
191375
191530
191685
191840
191999
192124
192307
192462
192617
192770
192924
193078
193234
193389
193516
193702
193857
194010
194162
194317
194475
194631
194787
194909
195093
195248
195401
195554
195704
195821
196007
196160
196309
196459
196608
196725
196903
197053
197202
197352
197501
197617
197801
197953
198101
198253
198403
198519
198702
198853
199002
199147
199291
199411
199582
199726
199871
200016
200163
200266
200451
200597
200743
200887
201031
201153
201324
201471
201617
201764
201910
202053
202195
202339
202478
202623
202766
202911
203054
203195
203312
203482
203626
203769
203914
204058
204183
204348
204492
204636
204780
204922
205043
205210
205356
205500
205644
205789
205910
206078
206223
206366
206512
206656
206777
206942
207086
207224
207364
207503
207628
207781
207917
208047
208194
208330
208461
208602
208741
208878
209014
209150
209286
209428
209566
209706
209844
209983
210107
210254
210392
210529
210666
210796
210932
211079
211216
211352
211490
211630
211760
211905
212044
212184
212324
212463
212591
212741
212881
213020
213156
213299
213424
213581
213720
213860
213999
214138
214263
214414
214554
214694
214832
214972
215093
215252
215391
215532
215676
215818
215937
216101
216247
216392
216537
216680
216825
216968
217111
217227
217397
217538
217683
217825
217968
218110
218251
218392
218521
218674
218814
218955
219097
219238
219343
219517
219657
219797
219937
220077
220200
220361
220502
220640
220780
220919
221033
221193
221325
221468
221607
221745
221856
222022
222158
222301
222437
222582
222724
222866
223007
223125
223293
223431
223573
223714
223854
223995
224135
224278
224396
224564
224706
224850
224993
225135
225277
225419
225563
225685
225849
225992
226132
226273
226412
226552
226693
226833
226954
227112
227252
227390
227527
227665
227804
227943
228081
228220
228361
228501
228642
228781
228921
229047
229199
229338
229478
229619
229761
229901
230042
230184
230308
230465
230607
230748
230890
231031
231173
231318
231463
231582
231751
231896
232039
232183
232326
232472
232617
232763
232912
233065
233215
233338
233511
233659
233804
233947
234091
234231
234370
234509
234629
234788
234928
235068
235209
235349
235488
235626
235767
235906
236043
236181
236319
236459
236598
236736
236870
237012
237151
237287
237426
237565
237705
237845
237984
238124
238263
238403
238542
238682
238823
238966
239106
239250
239393
239537
239676
239817
239959
240100
240241
240382
240503
240669
240811
240953
241100
241245
241387
241531
241677
241809
241967
242107
242253
242394
242533
242673
242814
242955
243073
243239
243382
243523
243662
243803
243946
244087
244230
244372
244518
244663
244800
244950
245092
245235
245377
245517
245661
245804
245947
246076
246233
246377
246521
246665
246810
246956
247101
247248
247375
247544
247689
247834
247982
248127
248278
248424
248547
248725
248876
249025
249175
249324
249473
249620
249772
249923
250073
250222
250372
250518
250642
250812
250962
251109
251257
251407
251556
251704
251826
251998
252145
252290
252436
252584
252734
252881
253006
253178
253328
253475
253623
253773
253924
254075
254192
254375
254526
254673
254823
254979
255132
255286
255442
255598
255751
255902
256056
256207
256351
256506
256658
256810
256958
257109
257261
257414
257564
257715
257868
258019
258170
258290
258470
258620
258768
258917
259066
259214
259360
259509
259655
259801
259944
260089
260201
260379
260522
260667
260812
260957
261100
261244
261389
261517
261679
261826
261973
262122
262270
262420
262572
262724
262875
263031
263188
263343
263501
263628
263816
263945
264127
264282
264436
264569
264747
264895
265057
265212
265367
265489
265679
265822
265993
266151
266307
266438
266620
266759
266927
267082
267236
267375
267545
267702
267856
268010
268127
268323
268456
268638
268785
268958
269116
269270
269404
269584
269726
269892
270048
270203
270356
270473
270669
270801
270983
271129
271298
271455
271613
271748
271921
272073
272227
272382
272498
272692
272827
273009
273164
273316
273457
273631
273785
273942
274077
274260
274405
274577
274733
274889
275022
275198
275345
275508
275664
275820
275959
276129
276285
276442
276580
276754
276912
277067
277223
277339
277530
277671
277838
277988
278144
278298
278416
278604
278751
278910
279060
279212
279362
279483
279659
279809
279957
280102
280223
280396
280544
280690
280841
280960
281146
281293
281458
281616
281773
281907
282094
282230
282414
282572
282731
282861
283048
283182
283367
283526
283687
283813
284009
284143
284329
284481
284647
284805
284962
285100
285275
285429
285577
285735
285851
286037
286179
286345
286498
286652
286794
286964
287120
287279
287412
287596
287734
287918
288075
288241
288366
288560
288695
288873
289031
289188
289342
289460
289656
289795
289969
290127
290285
290423
290601
290760
290917
291073
291191
291386
291524
291700
291859
292015
292149
292325
292483
292640
292773
292956
293116
293274
293409
293589
293746
293902
294032
294218
294359
294535
294684
294839
294990
295109
295294
295438
295595
295750
295903
296057
296175
296358
296500
296664
296817
296970
297125
297244
297432
297561
297740
297895
298047
298200
298321
298509
298651
298816
298969
299119
299269
299388
299568
299716
299865
300015
300135
300313
300463
300614
300767
300921
301077
301235
301393
301521
301709
301845
302031
302165
302353
302503
302673
302831
302990
303114
303307
303440
303626
303767
303941
304100
304258
304384
304571
304702
304886
305027
305202
305361
305517
305644
305840
305972
306158
306298
306478
306635
306793
306922
307106
307243
307416
307572
307725
307858
308036
308191
308344
308499
308655
308812
308929
309126
309259
309448
309591
309766
309925
310083
310207
310401
310536
310722
310867
311041
311198
311360
311483
311683
311812
312004
312143
312326
312483
312641
312769
312958
313092
313277
313437
313595
313722
313916
314051
314237
314381
314560
314721
314881
315005
315203
315332
315517
315660
315834
315992
316152
316277
316468
316604
316787
316936
317102
317261
317418
317553
317729
317882
318035
318185
318307
318485
318632
318785
318931
319054
319234
319381
319533
319681
319804
319985
320136
320286
320437
320553
320732
320879
321031
321182
321335
321488
321642
321761
321951
322083
322263
322419
322575
322705
322890
323028
323204
323359
323514
323640
323825
323961
324134
324290
324443
324574
324755
324898
325066
325221
325377
325510
325691
325834
326002
326157
326307
326440
326617
326771
326920
327073
327197
327383
327520
327687
327838
327994
328146
328267
328459
328591
328766
328922
329074
329214
329379
329530
329682
329836
329988
330138
330291
330412
330600
330741
330909
331059
331218
331366
331485
331673
331805
331981
332136
332292
332450
332602
332730
332919
333052
333234
333377
333550
333704
333858
333992
334168
334318
334471
334620
334777
334930
335044
335235
335369
335544
335694
335847
336004
336122
336311
336447
336619
336767
336917
337067
337218
337366
337524
337643
337835
337967
338146
338304
338458
338590
338773
338928
339082
339243
339398
339553
339705
339866
339985
340180
340307
340499
340633
340812
340956
341123
341278
341430
341563
341743
341882
342051
342202
342357
342509
342666
342821
342973
343129
343254
343447
343572
343759
343892
344066
344213
344376
344526
344679
344825
344978
345129
345276
345427
345585
345741
345858
346052
346177
346366
346498
346677
346815
346990
347137
347300
347452
347609
347730
347917
348045
348223
348357
348525
348672
348817
348962
349107
349252
349396
349542
349690
349840
349986
350132
350277
350420
350564
350710
350854
351000
351143
351286
351428
351569
351710
351852
351995
352140
352285
352425
352573
352722
352869
353013
353161
353306
353446
353595
353745
353892
354033
354182
354303
354473
354620
354767
354915
355060
355206
355338
355484
355640
355779
355928
356074
356217
356367
356513
356659
356805
356951
357099
357249
357397
357545
357694
357841
357993
358137
358282
358431
358576
358726
358847
359019
359167
359313
359465
359613
359757
359907
360054
360200
360347
360467
360646
360792
360942
361088
361234
361378
361521
361638
361808
361953
362092
362233
362376
362524
362661
362782
362947
363086
363225
363368
363509
363652
363792
363929
364067
364207
364346
364472
364624
364762
364904
365043
365182
365323
365463
365600
365728
365886
366024
366165
366300
366439
366579
366716
366854
366972
367131
367267
367406
367541
367681
367814
367948
368084
368199
368363
368498
368636
368774
368911
369045
369179
369312
369441
369583
369715
369847
369982
370114
370245
370376
370508
370641
370773
370903
371037
371172
371304
371434
371569
371702
371834
371966
372097
372229
372366
372496
372634
372766
372900
373028
373172
373307
373441
373576
373709
373844
373981
374116
374243
374384
374515
374653
374782
374916
375056
375191
375323
375445
375596
375727
375864
375998
376135
376271
376404
376542
376666
376815
376950
377084
377222
377353
377494
377631
377768
377884
378049
378188
378328
378466
378606
378746
378884
379018
379162
379301
379441
379580
379720
379860
379974
380137
380279
380409
380559
380699
380832
380987
381130
381272
381418
381540
381717
381841
382022
382150
382319
382449
382623
382741
382920
383044
383221
383347
383524
383646
383825
383946
384126
384250
384426
384552
384729
384851
385033
385159
385330
385458
385631
385760
385925
386054
386220
386354
386509
386656
386802
386947
387071
387242
387380
387536
387684
387832
387978
388122
388274
388423
388579
388733
388881
389032
389170
389337
389460
389643
389774
389949
390072
390259
390389
390564
390694
390871
390992
391173
391296
391480
391594
391787
391909
392091
392213
392396
392520
392698
392834
393004
393159
393309
393428
393612
393747
393914
394064
394218
394342
394521
394654
394819
394973
395123
395274
395390
395581
395701
395886
396019
396186
396336
396487
396638
396749
396937
397062
397247
397384
397550
397702
397855
397975
398160
398298
398456
398618
398769
398885
399074
399208
399374
399517
399685
399836
399989
400114
400297
400426
400606
400742
400914
401067
401225
401374
401530
401645
401840
401965
402146
402279
402458
402594
402764
402910
403067
403224
403378
403494
403689
403808
403998
404131
404303
404446
404609
404763
404916
405039
405226
405351
405533
405669
405843
405997
406152
406273
406466
406589
406774
406916
407082
407235
407384
407513
407699
407821
408009
408148
408317
408471
408626
408752
408936
409063
409249
409386
409557
409711
409862
409991
410174
410299
410487
410625
410798
410955
411111
411268
411420
411545
411741
411866
412058
412184
412370
412504
412682
412838
412992
413148
413304
413423
413615
413741
413932
414055
414246
414376
414564
414708
414875
415030
415185
415307
415496
415624
415811
415942
416123
416252
416435
416577
416747
416905
417062
417186
417381
417507
417691
417825
418004
418158
418312
418469
418625
418744
418934
419055
419244
419373
419557
419713
419866
420026
420179
420307
420492
420618
420802
420946
421112
421264
421419
421548
421733
421856
422044
422196
422354
422487
422669
422814
422980
423135
423289
423411
423600
423729
423913
424055
424224
424375
424533
424660
424846
424974
425158
425300
425472
425625
425782
425906
426092
426221
426405
426544
426718
426872
427023
427154
427340
427471
427650
427804
427960
428119
428275
428400
428584
428714
428893
429037
429201
429357
429512
429638
429821
429956
430134
430288
430443
430569
430759
430903
431068
431222
431376
431504
431685
431819
431995
432150
432305
432430
432617
432758
432927
433083
433240
433364
433555
433686
433866
434003
434176
434331
434485
434613
434800
434925
435108
435252
435426
435581
435738
435868
436054
436187
436370
436512
436680
436836
436992
437118
437306
437435
437622
437762
437934
438092
438249
438375
438564
438694
438881
439026
439193
439347
439504
439627
439815
439947
440124
440271
440438
440593
440747
440873
441060
441187
441374
441517
441691
441845
441999
442128
442313
442439
442622
442765
442937
443091
443248
443376
443561
443688
443878
444018
444195
444354
444513
444666
444826
444949
445143
445270
445459
445586
445778
445919
446092
446252
446410
446533
446728
446860
447044
447183
447365
447508
447679
447836
447994
448119
448311
448440
448627
448755
448943
449086
449260
449418
449577
449703
449896
450019
450209
450338
450524
450664
450840
450996
451148
451275
451468
451595
451780
451909
452097
452242
452413
452572
452727
452850
453038
453165
453351
453488
453665
453822
453977
454105
454291
454418
454603
454747
454920
455077
455232
455357
455545
455676
455854
455996
456166
456321
456475
456604
456788
456914
457097
457249
457409
457564
457721
457878
458032
458185
458341
458495
458648
458804
458961
459106
459271
459427
459583
459709
459897
460026
460214
460366
460528
460686
460841
460967
461153
461283
461464
461607
461777
461934
462089
462214
462403
462531
462717
462856
463032
463189
463343
463470
463654
463787
463963
464109
464274
464429
464583
464737
464892
465046
465201
465320
465513
465637
465829
465967
466141
466294
466450
466603
466756
466883
467070
467196
467379
467520
467690
467845
468000
468130
468316
468448
468631
468760
468943
469082
469255
469403
469566
469722
469880
470002
470191
470319
470507
470637
470821
470955
471139
471267
471452
471590
471765
471904
472076
472218
472389
472532
472702
472852
473014
473168
473324
473445
473639
473768
473955
474089
474267
474404
474578
474733
474888
475041
475201
475323
475511
475638
475825
475960
476135
476292
476449
476605
476761
476915
477069
477222
477377
477533
477688
477845
478001
478141
478312
478457
478627
478783
478939
479066
479258
479384
479571
479726
479883
480039
480195
480322
480512
480640
480826
480977
481141
481297
481455
481579
481771
481899
482090
482230
482402
482552
482715
482869
483021
483143
483341
483464
483653
483781
483967
484115
484281
484439
484595
484718
484912
485040
485223
485351
485536
485691
485847
485975
486162
486293
486473
486620
486785
486941
487097
487225
487413
487539
487724
487865
488033
488186
488342
488474
488654
488791
488964
489113
489276
489432
489587
489716
489904
490036
490222
490358
490532
490679
490846
491001
491156
491284
491471
491593
491783
491918
492097
492232
492411
492557
492728
492884
493044
493199
493353
493472
493668
493794
493982
494110
494299
494436
494611
494755
494926
495082
495240
495364
495557
495682
495870
496008
496181
496335
496492
496648
496803
496958
497114
497270
497421
497581
497709
497896
498030
498212
498354
498522
498677
498833
498958
499143
499271
499456
499601
499764
499920
500075
500230
500384
500541
500697
500852
501009
501165
501319
501440
501631
501762
501946
502089
502262
502419
502575
502695
502892
503018
503207
503359
503524
503682
503840
503962
504153
504282
504465
504604
504779
504934
505090
505246
505401
505556
505711
505830
506026
506156
506341
506486
506649
506802
506956
507109
507262
507417
507573
507687
507881
508012
508194
508336
508507
508664
508819
508977
509133
509289
509443
509553
509753
509879
510066
510193
510381
510509
510693
510837
511008
511159
511323
511482
511641
511760
511954
512080
512269
512395
512581
512717
512895
513038
513209
513365
513521
513648
513837
513965
514155
514291
514472
514625
514782
514941
515099
515220
515415
515545
515736
515867
516046
516193
516373
516519
516689
516833
516990
517139
517289
517436
517586
517700
517886
518022
518186
518342
518493
518647
518800
518957
519110
519270
519428
519588
519747
519881
520064
520200
520376
520525
520684
520838
520995
521149
521304
521460
521614
521769
521924
522079
522234
522391
522547
522697
522850
523009
523162
523301
523470
523627
523783
523905
524093
524226
524406
524553
524719
524877
