peaks
75224
75464
75694
75929
76160
76390
76624
76859
77093
77320
77552
77787
78016
78247
78484
78711
79142
79356
79572
79790
80012
80228
80655
80868
81086
81303
81519
81945
82156
82361
82569
82772
83169
83359
83548
83736
84121
84313
84689
84879
85073
85268
85664
85863
86068
86277
86682
86884
87092
87493
87693
87891
88089
88290
88494
88892
89101
89312
89515
89921
90132
90559
90774
91193
91404
91820
92025
92449
92661
93074
93285
93494
93699
94108
94321
94537
94753
94968
95178
95386
95785
95982
96180
96374
96567
96967
97166
97379
97800
98019
98241
98466
98697
98923
99144
99360
99790
100000
100201
100404
100613
100822
101028
101425
101623
101823
102018
102212
102599
102792
102985
103174
103572
103770
103963
104160
104544
104741
104947
105151
105355
105553
105752
105955
106150
106345
106542
106743
106943
107340
107537
107738
107944
108153
108358
108764
108970
109172
109377
109580
109779
109982
110192
110408
110618
110824
111041
111249
111459
111662
111860
112066
112273
112477
112682
113075
113277
113483
113683
113880
114072
114266
114456
114643
114824
115187
115372
115553
115740
116114
116308
116518
116732
116945
117157
117374
117596
117817
118049
118283
118515
118747
118977
119200
119413
119616
119976
120173
120528
120705
120885
121265
121461
121868
122076
122488
122694
122902
123290
123491
123870
124057
124237
124419
124601
124784
124970
125153
125516
125695
125870
126209
126378
126725
126899
127075
127252
127621
127811
128186
128371
128751
128937
129116
129295
129485
129686
130092
130286
130491
130696
131089
131284
131478
131673
131868
132066
132453
132650
133035
133225
133594
133779
133965
134159
134348
134541
134735
135136
135338
135735
135940
136354
136565
136977
137186
137389
137588
137785
137982
138173
138361
138551
138925
139121
139312
139503
139884
140077
140467
140663
140866
141071
141278
141480
141690
141893
142296
142501
142698
142894
143093
143293
143488
143864
144057
144248
144616
144800
145164
145345
145698
145876
146055
146239
146427
146630
147018
147216
147599
147786
147974
148162
148356
148563
148793
149017
149242
149472
149704
149922
150351
150571
150977
151182
151386
151772
151963
152328
152519
152703
152886
153073
153273
153475
153874
154077
154275
154662
154856
155044
155411
155598
155779
155961
156323
156511
156713
156908
157107
157310
157518
157931
158133
158527
158724
158921
159117
159316
159718
159916
160304
160505
160711
161123
161335
161550
161759
161970
162180
162391
162598
162801
163004
163202
163401
163598
163804
164017
164225
164431
164642
164853
165060
165263
165470
165675
165875
166073
166272
166467
166661
166857
167054
167252
167455
167653
167858
168058
168257
168459
168659
168858
169060
169252
169637
169830
170021
170212
170403
170600
170978
171168
171356
171726
171921
172111
172488
172680
172878
173078
173279
173667
173863
174059
174251
174621
174806
175166
175347
175525
175711
175907
176113
176515
176724
176940
177158
177371
177579
177782
177985
178363
178544
178730
179107
179292
179488
179867
180061
180267
180472
180870
181077
181279
181478
181678
181889
182095
182501
182704
183103
183303
183685
183879
184077
184456
184643
184849
185052
185457
185655
186043
186239
186437
186634
186832
187032
187236
187438
187642
187851
188059
188268
188476
188681
188879
189075
189272
189652
189843
190031
190219
190404
190587
190769
190950
191135
191503
191687
191873
192060
192438
192628
192823
193012
193388
193581
193767
193951
194136
194511
194700
194890
195079
195465
195658
195857
196055
196453
196659
196863
197266
197473
197680
197882
198086
198294
198500
198894
199088
199471
199662
199850
200034
200221
200408
200773
200954
201142
201326
201509
201870
202050
202230
202410
202594
202956
203141
203333
203520
203889
204072
204254
204436
204617
204971
205150
205327
205508
205691
205870
206050
206241
206427
206625
206817
207005
207194
207390
207582
207780
207969
208162
208351
208544
208913
209097
209278
209635
209807
209980
210338
210518
210706
210904
211127
211344
211569
211801
212020
212241
212461
212678
212889
213096
213296
213497
213701
213901
214105
214306
214705
214906
215100
215300
215497
215693
215894
216100
216302
216506
216715
216914
217297
217491
217682
217868
218053
218237
218421
218611
218808
219005
219199
219593
219790
219981
220166
220348
220539
220732
220937
221153
221359
221576
221789
221996
222194
222386
222581
222769
222954
223314
223497
223678
223857
224040
224400
224581
224953
225142
225533
225731
226133
226329
226728
226924
227116
227479
227661
228020
228197
228368
228556
228755
228956
229346
229541
229917
230104
230285
230465
230646
230832
231025
231217
231604
231805
232010
232217
232428
232629
233017
233206
233391
233569
233746
233923
234106
234483
234668
235093
235316
235543
235772
236008
236232
236443
236648
236851
237049
237244
237433
237790
237968
238151
238331
238684
238868
239048
239234
239424
239831
240043
240258
240471
240669
241053
241244
241429
241610
241790
241972
242330
242504
242682
243048
243233
243425
243793
243977
244162
244349
244714
244907
245092
245278
245460
245840
246041
246243
246645
246848
247054
247261
247464
247853
248046
248237
248418
248598
248780
248965
249143
249330
249684
249864
250224
250404
250762
250944
251133
251327
251521
251717
251921
252124
252333
252527
252720
253097
253292
253493
253698
253899
254308
254519
254720
254923
255117
255318
255512
255897
256099
256306
256507
256898
257098
257306
257507
257713
257915
258118
258321
258515
258704
258891
259078
259265
259637
259821
260022
260221
260427
260637
260837
261041
261247
261450
261656
261866
262074
262283
262491
262715
262932
263149
263369
263589
263806
264026
264249
264479
264702
264922
265143
265357
265562
265759
265948
266138
266325
266511
266695
266877
267064
267254
267443
267813
268001
268192
268394
268598
268794
269181
269380
269581
269785
270178
270378
270579
270775
271167
271365
271752
271936
272125
272313
272690
272877
273073
273274
273476
273672
274064
274265
274471
274670
275058
275259
275462
275855
276053
276251
276450
276646
277071
277289
277526
277756
277978
278190
278402
278611
278815
279016
279213
279419
279622
280017
280221
280431
280633
281019
281217
281419
281615
281998
282190
282389
282582
282772
282958
283332
283525
283719
283915
284304
284507
284711
285110
285313
285517
285723
285924
286119
286319
286520
286718
287106
287313
287521
287731
287948
288165
288379
288597
288819
289030
289245
289465
289680
289891
290100
290309
290519
290727
290937
291140
291549
291754
292145
292345
292543
292741
293133
293332
293729
293925
294125
294320
294521
294725
295118
295326
295528
295728
296127
296329
296732
296932
297129
297521
297717
297913
298102
298486
298683
298880
299079
299276
299485
299693
299896
300090
300464
300663
300854
301047
301248
301448
301856
302064
302271
302489
302702
302913
303121
303325
303536
303749
303954
304157
304360
304559
304762
304964
305374
305577
305980
306175
306559
306757
306952
307339
307530
307905
308096
308291
308486
308684
308880
309082
309286
309505
309722
309946
310159
310368
310580
310783
311172
311365
311743
311927
312108
312466
312656
312844
313039
313231
313430
313633
313844
314051
314259
314465
314669
314867
315070
315261
315641
315831
316194
316372
316726
316907
317266
317456
317652
317851
318054
318251
318455
318660
318872
319079
319478
319684
319892
320090
320477
320668
320857
321051
321241
321634
321834
322035
322239
322443
322645
323043
323243
323450
323655
323858
324068
324278
324481
324686
324899
325109
325327
325537
325752
325965
326168
326380
326583
326783
326977
327176
327376
327578
327775
328163
328354
328550
328754
328957
329157
329361
329564
329770
329974
330179
330382
330584
330800
331014
331215
331423
331623
331827
332032
332232
332635
332844
333248
333450
333651
334054
334257
334659
334871
335085
335302
335519
335758
335987
336221
336446
336665
336879
337082
337281
337669
337865
338054
338423
338602
338781
339147
339330
339522
339725
339921
340122
340339
340560
340779
341004
341230
341444
341657
341869
342073
342275
342475
342677
342881
343082
343277
343470
343666
343867
344068
344270
344470
344676
344888
345098
345305
345513
345730
345937
346348
346551
346759
346974
347180
347378
347575
347766
347960
348163
348361
348560
348766
348971
349180
349393
349602
349810
350028
350238
350440
350646
350855
351062
351263
351458
351656
351851
352045
352417
352604
352795
352982
353346
353527
353705
353888
354257
354442
354633
354823
355205
355402
355599
355794
355998
356205
356409
356607
357002
357200
357572
357756
358125
358308
358494
358685
358884
359096
359492
359692
359891
360281
360475
360844
361024
361383
361562
361932
362113
362475
362666
363047
363236
363439
363633
364026
364226
364421
364615
365008
365201
365391
365577
365981
366191
366401
366600
366803
367010
367222
367433
367642
367859
368064
368264
368459
368652
368845
369042
369231
369421
369606
369793
369976
370163
370354
370545
370745
370954
371168
371382
371592
371802
372009
372213
372413
372605
372799
372990
373179
373363
373553
373742
373929
374116
374304
374681
374874
375071
375274
375469
375663
375856
376055
376260
376453
376653
376857
377053
377247
377447
377643
377839
378036
378237
378429
378619
378807
378998
379195
379387
379775
379979
380364
380556
380746
380931
381299
381482
381832
382008
382360
382537
382724
382913
383116
383322
383533
383743
383953
384173
384379
384578
384778
384984
385193
385393
385589
385782
385974
386165
386358
386549
386740
387133
387332
387527
387728
387937
388146
388357
388566
388776
388988
389203
389432
389652
389871
390091
390303
390519
390735
390955
391182
391409
391637
391871
392111
392347
392586
392812
393034
393255
393466
393667
393867
394067
394259
394447
394635
394820
395009
395191
395380
395564
395760
395949
396159
396359
396565
396762
397150
397340
397528
397723
397916
398118
398325
398539
398749
398966
399178
399386
399594
399803
400011
400220
400424
400622
400824
401024
401220
401427
401629
401831
402041
402247
402451
402654
402863
403078
403289
403505
403707
403907
404103
404298
404499
404700
404917
405126
405329
405527
405723
405920
406115
406304
406495
406682
407079
407284
407491
407702
407923
408134
408351
408561
408772
409170
409369
409745
409935
410138
410348
410567
410791
411023
411250
411478
411694
411911
412126
412333
412530
412734
412938
413143
413355
413564
413771
413978
414188
414398
414611
414828
415045
415266
415486
415698
415908
416118
416328
416527
416730
416932
417133
417332
417530
417726
417921
418311
418503
418692
418881
419074
419281
419485
419684
419894
420098
420307
420511
420714
420912
421112
421314
421508
421701
421894
422090
422285
422480
422671
422862
423052
423242
423430
423619
423808
423996
424185
424542
424719
425068
425243
425582
425754
426110
426292
426484
426686
426890
427102
427321
427528
427730
427934
428138
428337
428531
428728
428919
429110
429304
429492
429690
429896
430160
430397
430620
430837
431044
431243
431436
431814
432009
432208
432407
432626
432839
433066
433299
433517
433721
433919
434117
434313
434508
434705
434901
435098
435291
435481
435669
435855
436044
436251
436455
436661
436866
437074
437284
437490
437692
437891
438094
438304
438517
438725
438935
439155
439367
439573
439778
439983
440184
440380
440580
440775
440980
441177
441388
441588
441792
441996
442206
442408
442609
442810
443023
443234
443447
443659
443877
444091
444305
444518
444724
444927
445128
445326
445518
445892
446082
446273
446469
446662
446853
447048
447248
447456
447672
447888
448113
448343
448570
448797
449029
449263
449495
449716
449941
450160
450379
450595
450808
451022
451233
451446
451657
451871
452086
452299
452515
452726
452937
453144
453352
453551
453747
453947
454149
454349
454545
454748
454957
455164
455382
455591
455795
456005
456224
456434
456650
456863
457066
457277
457482
457681
457887
458088
458287
458483
458674
458864
459056
459251
459445
459634
459837
460032
460231
460425
460616
460805
460993
461192
461396
461597
461795
461991
462199
462408
462618
462829
463038
463252
463463
463666
463865
464065
464265
464458
464647
464838
465040
465249
465459
465663
465870
466075
466284
466488
466692
466895
467102
467311
467517
467727
467933
468148
468364
468573
468785
468995
469207
469414
469624
469834
470046
470262
470472
470676
470876
471080
471286
471489
471694
471893
472090
472293
472490
472689
472890
473092
473302
473510
473718
473925
474144
474359
474570
474781
474992
475201
475412
475622
475829
476035
476245
476446
476646
476845
477048
477254
477457
477664
477866
478070
478274
478481
478687
478894
479103
479311
479514
479715
479913
480114
480314
480509
480706
480896
481088
481277
481467
481656
481845
482040
482235
482425
482610
482795
482984
483174
483362
483550
483730
483910
484092
484273
484463
484651
484839
485034
485228
485424
485622
485821
486027
486236
486447
486661
486874
487086
487297
487510
487721
487931
488140
488343
488543
488736
488932
489133
489336
489540
489742
489947
490152
490359
490563
490768
490981
491193
491406
491614
491825
492035
492244
492456
492661
492858
493054
493250
493449
493645
493835
494027
494216
494406
494594
494790
494994
495204
495421
495628
495837
496050
496270
496485
496696
496912
497130
497351
497570
497787
498015
498239
498466
498686
498899
499112
499327
499536
499735
499948
500162
500372
500575
500773
500969
501165
501361
501551
501736
501919
502107
502297
502492
502691
502901
503111
503323
503535
503745
503953
504163
504374
504574
504767
504968
505169
505371
505570
505769
505976
506178
506381
506584
506785
506984
507187
507391
507588
507786
507986
508190
508390
508594
508793
508988
509190
509391
509593
509794
509995
510194
510397
510589
510779
510967
511159
511351
511543
511737
511934
512134
512335
512533
512728
512923
513120
513320
513516
513711
513901
514096
514293
514487
514676
514868
515055
515245
515435
515626
515819
516014
516215
516414
516609
516803
516997
517192
517382
517570
517760
517948
518136
518321
518505
518691
518876
519067
519267
519464
519660
519854
520051
520254
520456
520652
520849
521044
521236
521428
521620
521811
522004
522204
522402
522599
522798
523000
523206
523413
523615
523818
524025
524236
524441
524644
524848
