peaks
75145
75522
75708
75900
76091
76287
76692
76891
77089
77292
77500
77713
78137
78342
78743
78940
79137
79533
79730
79930
80335
80530
80725
81120
81314
81510
81909
82105
82305
82711
82906
83097
83483
83673
83861
84252
84444
84629
85010
85194
85375
85758
85949
86138
86334
86539
86745
86950
87161
87374
87587
87800
88009
88214
88415
88612
89006
89193
89383
89576
89765
89957
90148
90335
90520
90889
91077
91262
91647
91838
92037
92454
92658
93061
93265
93465
93863
94058
94251
94640
94837
95032
95418
95612
95808
96211
96415
96616
97012
97209
97399
97789
97982
98177
98576
98771
98965
99364
99557
99751
100155
100353
100552
100959
101156
101554
101749
101939
102322
102508
102696
103088
103282
103676
103873
104279
104482
104896
105100
105515
105717
106120
106309
106682
106853
107031
107375
107551
107721
108059
108229
108398
108744
108920
109098
109457
109637
109819
110003
110187
110375
110566
110758
110949
111337
111531
111721
111908
112100
112487
112676
112867
113239
113418
113602
113965
114141
114318
114680
114859
115038
115403
115580
115754
116106
116281
116458
116840
117025
117214
117610
117803
118198
118390
118771
118959
119334
119518
119706
120090
120281
120473
120860
121053
121248
121635
121830
122024
122412
122607
122799
123189
123383
123574
123948
124135
124321
124704
124892
125080
125463
125656
125848
126236
126429
126622
127013
127210
127404
127802
127999
128193
128584
128780
128975
129370
129569
129765
130172
130373
130569
130970
131167
131360
131765
131965
132165
132573
132773
132971
133381
133579
133772
134169
134363
134556
134939
135125
135310
135697
135886
136075
136468
136660
136855
137257
137455
137654
138052
138247
138443
138836
139025
139218
139605
139790
139979
140373
140563
140756
140960
141166
141587
141794
141998
142207
142418
142829
143036
143241
143438
143635
144024
144214
144596
144783
145153
145341
145527
145713
145904
146305
146501
146702
146904
147106
147312
147531
147750
147969
148191
148417
148637
148842
149043
149428
149614
149800
149985
150169
150539
150724
150906
151092
151283
151673
151865
152061
152261
152462
152865
153066
153265
153467
153671
153874
154078
154292
154507
154720
154936
155152
155365
155573
155781
155985
156185
156386
156590
156791
157182
157376
157564
157751
157936
158321
158505
158694
158883
159073
159457
159644
159831
160021
160217
160413
160610
160812
161024
161236
161449
161665
161881
162090
162303
162513
162720
163115
163310
163499
163679
163857
164044
164239
164636
164833
165027
165212
165391
165573
165757
165950
166149
166353
166559
166759
166958
167159
167355
167549
167747
167953
168161
168383
168607
168832
169055
169278
169500
169713
169926
170137
170344
170549
170753
170959
171158
171357
171555
171751
171944
172135
172327
172523
172721
172920
173128
173336
173541
173746
173952
174158
174364
174576
174790
174999
175211
175423
175633
175840
176046
176255
176461
176665
176871
177076
177276
177473
177669
177861
178047
178227
178406
178592
178773
178954
179137
179321
179505
179700
179905
180111
180313
180508
180712
180913
181114
181315
181515
181712
181903
182094
182287
182474
182661
182853
183048
183246
183442
183639
183839
184036
184229
184425
184623
184817
185014
185218
185425
185632
185841
186049
186253
186456
186660
186860
187057
187252
187452
187651
187837
188040
188237
188429
188621
188814
189010
189207
189398
189591
189787
189982
190173
190363
190555
190748
190944
191146
191352
191560
191762
191968
192174
192377
192578
192779
192980
193177
193374
193570
193765
193956
194148
194344
194541
194739
194938
195143
195348
195556
195768
195980
196190
196398
196600
196798
196985
197167
197345
197524
197706
197891
198079
198274
198470
198668
198868
199065
199260
199461
199661
199861
200055
200254
200455
200653
200850
201054
201256
201455
201658
201867
202077
202282
202487
202691
202891
203085
203277
203460
203634
203817
204176
204351
204516
204686
204863
205053
205256
205471
205688
205907
206126
206348
206568
206784
206995
207200
207395
207587
207776
207965
208148
208521
208710
208897
209085
209279
209482
209694
209911
210135
210363
210587
210820
211046
211267
211484
211699
211906
212110
212314
212517
212714
212909
213107
213306
213505
213709
213918
214127
214335
214544
214754
215153
215355
215552
215743
215930
216121
216313
216510
216709
216913
217114
217309
217506
217705
217899
218091
218292
218498
218702
218906
219112
219312
219523
219729
219935
220323
220514
220706
220892
221078
221467
221658
221844
222037
222232
222431
222808
222996
223181
223364
223552
223744
224135
224328
224515
224695
224869
225229
225409
225591
225778
225972
226170
226370
226567
226771
227177
227379
227583
227776
228162
228352
228539
228927
229115
229306
229712
229910
230115
230332
230760
230977
231194
231406
231822
232033
232243
232452
232862
233050
233240
233429
233806
233983
234165
234546
234735
234932
235331
235527
235723
235916
236104
236497
236693
236884
237077
237274
237661
237853
238048
238420
238604
238789
239161
239344
239533
239917
240108
240310
240515
240930
241137
241530
241725
242112
242297
242489
242873
243061
243254
243633
243817
244011
244403
244592
244789
245174
245359
245548
245936
246126
246322
246723
246916
247108
247489
247678
247866
248241
248421
248604
248981
249174
249374
249764
249954
250137
250498
250677
250859
251238
251432
251632
251839
252051
252469
252672
252867
253261
253441
253619
253982
254154
254328
254697
254878
255054
255425
255610
255792
256173
256360
256544
256934
257120
257312
257725
257929
258134
258541
258739
258936
259332
259522
259717
260121
260314
260515
260913
261113
261316
261718
261915
262116
262507
262693
262882
263276
263462
263657
264053
264251
264649
264834
265023
265404
265583
265765
266129
266310
266498
266883
267073
267271
267683
267879
268278
268465
268650
269044
269246
269455
269879
270087
270293
270697
270893
271086
271478
271671
271865
272261
272450
272644
273038
273231
273427
273814
274001
274197
274411
274822
275022
275414
275604
275991
276181
276573
276766
276957
277358
277549
277938
278127
278321
278733
278934
279320
279515
279915
280113
280512
280708
281109
281306
281702
281896
282087
282477
282672
282864
283270
283475
283877
284077
284471
284661
284854
285054
285488
285699
285905
286309
286510
286711
287123
287314
287508
287906
288106
288308
288711
288907
289296
289490
289684
290081
290275
290465
290847
291037
291221
291609
291802
292200
292394
292589
293004
293204
293601
293801
294192
294385
294772
294956
295344
295531
295723
296126
296323
296518
296922
297121
297320
297521
297716
298102
298298
298488
298867
299055
299240
299623
299814
300011
300404
300600
300792
300982
301170
301554
301743
301933
302326
302513
302704
303095
303289
303691
303883
304270
304461
304829
305010
305379
305556
305733
306088
306263
306442
306804
306979
307155
307515
307693
307872
308235
308414
308590
308953
309130
309306
309676
309858
310041
310423
310609
310792
310983
311171
311355
311531
311894
312076
312255
312614
312789
312963
313137
313316
313493
313671
313850
314036
314225
314408
314593
314777
314961
315145
315321
315498
315674
315846
316019
316198
316380
316555
316735
316906
317079
317254
317434
317617
317804
317989
318173
318353
318528
318719
319083
319266
319451
319634
319815
320182
320366
320544
320914
321099
321281
321659
321845
322033
322424
322615
322802
323191
323386
323583
323983
324183
324379
324575
324773
325163
325358
325551
325741
325931
326320
326509
326697
327088
327276
327465
327846
328031
328216
328399
328581
328946
329127
329308
329674
329856
330036
330402
330584
330773
331169
331362
331560
331756
331954
332149
332340
332528
332710
332894
333078
333438
333617
333799
334163
334343
334523
334892
335075
335259
335629
335816
336005
336380
336566
336753
337123
337311
337500
337889
338078
338268
338653
338846
339040
339429
339623
339816
340201
340394
340590
340980
341176
341370
341749
341938
342126
342507
342694
342879
343256
343446
343632
344010
344199
344389
344769
344957
345142
345512
345700
345891
346275
346471
346666
347051
347240
347435
347824
348018
348210
348600
348797
349001
349390
349573
349754
350116
350296
350472
350840
351029
351216
351594
351780
351968
352342
352525
352711
353092
353285
353479
353872
354063
354259
354649
354839
355031
355417
355606
355794
355974
356160
356541
356724
356912
357298
357487
357679
358071
358257
358447
358831
359017
359205
359603
359792
359987
360386
360579
360779
361178
361368
361561
361962
362157
362352
362746
362944
363144
363524
363709
363903
364283
364470
364651
365017
365201
365392
365585
365781
365980
366180
366376
366571
366759
366949
367323
367509
367690
368054
368239
368428
368814
369009
369402
369591
369981
370173
370564
370763
371155
371346
371529
371922
372112
372305
372706
372902
373105
373516
373715
373917
374321
374519
374720
375137
375335
375523
375908
376100
376296
376703
376903
377102
377510
377707
377904
378302
378497
378697
379116
379321
379520
379929
380130
380323
380720
380919
381121
381518
381714
382107
382289
382473
382829
383004
383180
383553
383741
383934
384337
384537
384736
385129
385327
385525
385923
386119
386326
386740
386939
387142
387531
387723
387917
388306
388493
388680
389064
389253
389462
389695
389926
390162
390399
390631
390861
391077
391284
391688
391891
392272
392464
392840
393027
393407
393587
393769
394157
394353
394549
394753
394965
395179
395402
395620
395830
396041
396259
396680
396892
397097
397296
397489
397870
398059
398248
398443
398647
399058
399265
399467
399666
399862
400056
400430
400612
400797
400987
401188
401403
401608
401801
401994
402192
402394
402589
402780
402977
403180
403390
403604
403813
404025
404231
404438
404643
404843
405037
405231
405422
405607
405787
405967
406148
406337
406539
406760
406971
407180
407395
407612
407824
408030
408224
408427
408617
408805
408994
409180
409361
409540
409726
409918
410116
410312
410512
410715
410915
411114
411315
411510
411698
411885
412070
412436
412614
412793
412973
413153
413337
413538
413765
414003
414239
414473
414695
414909
415117
415317
415510
415696
415883
416065
416243
416424
416613
416806
417002
417197
417396
417596
417802
418013
418225
418440
418657
418874
419087
419296
419504
419717
419928
420140
420350
420559
420761
420970
421185
421401
421616
421830
422034
422235
422436
422642
422843
423044
423251
423462
423674
423882
424099
424312
424520
424727
424933
425132
425330
425527
425725
425918
426109
426303
426498
426689
426885
427095
427318
427534
427754
427979
428200
428419
428638
428851
429057
429261
429457
429651
429845
430041
430238
430437
430644
430853
431060
431265
431467
431668
431868
432067
432264
432468
432669
432868
433068
433268
433465
433657
433845
434029
434212
434396
434591
434797
435012
435230
435443
435649
435855
436064
436271
436476
436682
436885
437090
437294
437499
437709
437921
438120
438319
438519
438715
438910
439104
439297
439481
439667
439861
440066
440274
440490
440707
440924
441142
441361
441584
441805
442026
442251
442476
442693
442913
443129
443343
443553
443766
443972
444180
444393
444607
444820
445037
445255
445473
445688
445905
446119
446330
446537
446748
446958
447169
447385
447604
447828
448047
448270
448494
448710
448924
449131
449329
449516
449710
449897
450079
450259
450440
450620
450798
450974
451152
451327
451497
451664
451833
451998
452165
452498
452655
452818
452982
453149
453521
453701
453883
454082
454307
454539
454767
454994
455222
455440
455650
455852
456051
456247
456443
456634
456820
457003
457192
457390
457591
457795
458006
458222
458431
458642
458847
459050
459440
459636
459826
460015
460216
460422
460638
460855
461074
461291
461513
461738
461957
462169
462381
462591
462802
463009
463221
463431
463635
463840
464052
464264
464469
464672
464874
465074
465268
465654
465843
466026
466408
466597
466786
466983
467383
467581
467787
467998
468401
468606
468808
469002
469407
469606
469989
470178
470363
470543
470733
470925
471321
471517
471716
471914
472115
472324
472539
472751
473169
473373
473567
473766
473963
474357
474549
474738
474922
475103
475287
475688
475883
476069
476262
476464
476670
477071
477275
477476
477674
477873
478274
478477
478678
478882
479088
479297
479717
479933
480336
480541
480749
480961
481176
481596
481803
482002
482400
482596
482800
483204
483401
483605
484021
484228
484436
484833
485030
485229
485629
485827
486027
486427
486629
486833
487252
487471
487687
487900
488119
488553
488765
488980
489192
489406
489831
490038
490442
490646
490845
491256
491460
491664
492074
492271
492663
492863
493060
493456
493655
493860
494078
494299
494721
494933
495333
495531
495724
495921
496120
496328
496541
496753
497161
497361
497560
497762
497966
498368
498567
498767
498964
499154
499535
499724
499913
500308
500507
500707
500914
501325
501531
501738
501942
502349
502553
502757
502964
503182
503411
503642
504086
504313
504534
504752
505172
505377
505582
505784
506201
506410
506622
506837
507273
507496
507720
507940
508366
508584
508797
509011
509438
509647
509858
510074
510296
510520
510756
510996
511235
511476
511715
511952
512185
512412
512634
512847
513053
513447
513639
513824
513996
514358
514536
514707
514877
515045
515215
515387
515557
515724
515892
516058
516224
516388
516546
516709
516880
517055
517230
517412
517613
517825
518048
518281
518513
518749
518983
519179
519448
519682
519896
520093
520284
520475
520668
520858
521037
521217
521398
521586
521782
521989
522195
522395
522596
522803
523009
523215
523420
523629
523839
524052
524268
524486
524706
524921
