peaks
75037
75296
75550
75800
76052
76304
76553
76799
77049
77301
77554
77808
78052
78280
78511
78738
78956
79178
79401
79619
79843
80075
80307
80533
80772
81012
81241
81477
81717
81951
82187
82431
82674
82914
83163
83409
83655
83909
84153
84398
84648
84895
85149
85415
85672
85920
86167
86425
86689
86952
87187
87425
87677
87945
88200
88447
88683
88921
89160
89401
89653
89920
90179
90437
90699
90948
91198
91448
91692
91934
92171
92403
92628
92862
93099
93330
93568
93807
94043
94283
94520
94753
94987
95226
95456
95689
95931
96167
96406
96651
96894
97137
97388
97634
97882
98137
98399
98652
98915
99188
99440
99692
99947
100196
100448
100701
100945
101198
101454
101699
101952
102203
102451
102701
102945
103185
103430
103677
103923
104175
104422
104670
104921
105178
105429
105681
105930
106186
106450
106709
106968
107226
107477
107723
107974
108221
108461
108710
108953
109196
109448
109699
109948
110210
110468
110719
110970
111220
111470
111729
111986
112253
112525
112784
113046
113313
113568
113826
114081
114327
114571
114812
115048
115298
115552
115803
116051
116310
116567
116823
117080
117331
117588
117849
118111
118381
118661
118934
119208
119490
119750
120013
120288
120530
120770
121006
121242
121482
121723
121969
122221
122472
122718
122973
123223
123466
123711
123955
124199
124446
124697
124946
125204
125465
125719
125973
126232
126479
126731
126987
127229
127475
127730
127974
128222
128472
128718
128967
129218
129469
129721
129977
130234
130484
130741
131001
131251
131509
131757
132007
132262
132511
132761
133013
133266
133513
133762
134015
134259
134505
134751
134992
135242
135491
135736
135984
136231
136484
136743
136994
137248
137507
137760
138014
138271
138528
138770
139011
139236
139458
139685
139905
140325
140540
140747
140951
141160
141368
141578
141797
142023
142247
142476
142714
142947
143180
143418
143653
143883
144119
144357
144584
144810
145039
145260
145484
145713
145947
146180
146424
146672
146911
147161
147414
147657
147902
148157
148400
148653
148907
149136
149392
149638
149885
150131
150382
150637
150886
151143
151394
151653
151909
152160
152422
152676
152932
153208
153476
153745
154026
154297
154572
154850
155111
155385
155654
155911
156176
156444
156695
156953
157215
157462
157721
157991
158258
158516
158776
159037
159305
159561
159822
160102
160368
160641
160924
161189
161459
161730
161990
162263
162529
162993
163244
163483
163723
163979
164222
164471
164722
164968
165224
165484
165743
166011
166274
166535
166811
167084
167351
167638
167928
168207
168487
168771
169045
169313
169579
169846
170103
170568
170824
171068
171318
171568
171817
172079
172329
172570
172820
173069
173320
173584
173851
174105
174370
174635
174892
175159
175423
175668
175910
176137
176361
176593
176829
177063
177310
177560
177797
178036
178271
178519
178772
179016
179252
179501
179750
180002
180264
180525
180769
181029
181280
181513
181754
182014
182263
182504
182750
182992
183229
183474
183716
183962
184212
184463
184717
184967
185219
185473
185724
185974
186232
186484
186737
186991
187244
187496
187753
188012
188265
188527
188785
189034
189284
189543
189793
190047
190313
190561
190813
191073
191301
191573
191830
192063
192296
192534
192773
193006
193242
193458
193681
193910
194141
194386
194614
194842
195062
195277
195491
195709
195928
196154
196391
196628
196876
197134
197392
197661
197931
198194
198449
198694
198932
199172
199409
199648
199889
200130
200373
200609
200851
201097
201331
201569
201809
202044
202277
202506
202724
202943
203162
203374
203597
203829
204070
204321
204584
204844
205103
205368
205622
205882
206140
206396
206669
206933
207194
207466
207728
207987
208256
208512
208772
209036
209290
209543
209808
210066
210313
210565
210823
211070
211329
211599
211855
212121
212387
212650
212931
213202
213476
213755
214020
214287
214541
214785
215025
215267
215505
215749
215989
216225
216475
216729
216974
217229
217495
217761
218023
218287
218545
218807
219063
219316
219581
219849
220115
220379
220653
220930
221202
221476
221759
222033
222301
222585
222853
223109
223378
223632
223882
224142
224412
224665
224928
225199
225458
225721
225986
226244
226514
226778
227035
227296
227561
227835
228110
228387
228671
228944
229216
229468
229711
229954
230201
230453
230705
230964
231222
231474
231939
232189
232433
232679
232924
233173
233422
233671
233931
234183
234444
234720
234983
235254
235541
235811
236077
236356
236633
236897
237164
237436
237703
237965
238219
238479
238727
238972
239229
239484
239735
239996
240259
240513
240780
241049
241310
241580
241846
242320
242581
242843
243110
243379
243658
243928
244185
244452
244725
244994
245268
245539
245794
246062
246331
246594
246860
247122
247395
247652
247900
248151
248410
248661
248920
249159
249397
249655
249915
250189
250465
250735
251005
251290
251574
251847
252138
252425
252698
252977
253250
253514
253767
254010
254254
254496
254722
254953
255188
255418
255647
255880
256114
256349
256593
256843
257084
257330
257580
257834
258298
258444
258798
259049
259297
259557
259821
260077
260343
260609
260874
261154
261438
261713
261992
262265
262549
262824
263100
263387
263665
263935
264221
264486
264748
265019
265278
265535
265797
266064
266330
266593
266854
267113
267370
267630
267898
268160
268422
268701
268968
269236
269517
269782
270061
270349
270621
270891
271169
271448
271719
271988
272259
272528
272797
273073
273343
273611
273866
274110
274365
274620
274881
275136
275398
275658
275923
276200
276463
276726
276990
277243
277469
277712
277933
278141
278350
278555
278754
278950
279147
279350
279548
279754
279965
280185
280407
280646
280895
281145
281393
281644
281897
282155
282415
282672
282936
283197
283456
283732
283992
284253
284516
284765
285009
285262
285507
285749
286001
286259
286516
286781
287040
287300
287576
288046
288318
288578
288840
289117
289393
289668
289935
290207
290483
290735
290989
291244
291486
291725
291979
292225
292461
292704
292942
293177
293416
293662
293900
294143
294392
294632
294876
295130
295396
295656
295927
296193
296460
296746
297021
297300
297572
297847
298133
298616
298908
299175
299436
299705
299958
300209
300461
300715
300962
301213
301454
301701
301951
302202
302460
302723
302978
303250
303521
303776
304045
304329
304594
304865
305140
305410
305680
305947
306220
306501
306780
307069
307344
307620
307900
308169
308432
308717
309004
309276
309559
309834
310103
310367
310629
310901
311162
311419
311688
311965
312225
312504
312765
313019
313283
313542
313801
314053
314306
314573
314834
315089
315354
315616
315874
316056
316398
316646
316900
317159
317416
317678
317939
318197
318456
318719
318982
319250
319508
319772
320038
320293
320550
320823
321082
321344
321616
321880
322357
322618
322876
323130
323381
323637
323893
324150
324420
324692
325163
325432
325688
325955
326223
326495
326761
327026
327288
327558
327814
328075
328343
328596
328862
329144
329408
329891
330160
330424
330689
330949
331211
331464
331716
331991
332256
332522
332790
333054
333321
333493
333861
334119
334390
334666
335138
335400
335655
335909
336164
336425
336681
336929
337183
337450
337706
337971
338236
338496
338762
339035
339302
339574
339849
340129
340404
340674
340952
341242
341509
341979
342225
342463
342700
342935
343172
343420
343675
343926
344186
344452
344712
344972
345233
345498
345760
346019
346281
346544
346799
346906
347282
347537
347795
348051
348312
348573
348835
348942
349298
349552
349802
350061
350318
350565
350820
351082
351337
351598
351877
352138
352410
352886
353151
353402
353650
353908
354159
354412
354671
354924
355172
355432
355690
355937
356194
356452
356716
356983
357253
357524
357795
358064
358343
358624
358891
359171
359447
359707
359974
360236
360504
360761
361008
361254
361506
361748
361995
362248
362495
362752
363027
363298
363575
363860
364135
364404
364687
364959
365223
365493
365759
366023
366284
366544
366816
367074
367338
367605
367867
368120
368379
368635
368901
369163
369416
369682
369954
370214
370481
370751
371010
371267
371530
371786
372043
372299
372563
372832
373089
373348
373620
373887
374145
374405
374669
374949
375218
375483
375766
376037
376297
376569
376837
377101
377370
377650
377914
378186
378460
378740
379013
379288
379571
379844
380113
380393
380666
380941
381229
381496
381757
382024
382290
382557
382826
383099
383384
383658
383930
384206
384474
384734
385004
385261
385518
385783
386055
386318
386577
386838
387093
387342
387592
387843
388096
388352
388627
389105
389377
389634
389890
390153
390412
390672
390944
391217
391482
391747
392012
392277
392533
392786
393044
393306
393562
393831
394107
394373
394644
394915
395178
395447
395715
395986
396254
396520
396780
397050
397301
397553
397805
398050
398295
398544
398799
399059
399323
399585
399849
400113
400370
400640
400909
401182
401466
401732
402218
402493
402757
403034
403310
403576
403841
404104
404375
404640
404903
405180
405458
405731
406010
406287
406559
406830
407101
407363
407621
407878
408141
408403
408662
408930
409185
409430
409699
409979
410244
410510
410782
411047
411322
411575
411819
412059
412297
412536
412777
413020
413275
413558
413824
414100
414375
414635
414900
415178
415443
415710
415989
416266
416538
416806
417080
417358
417618
417882
418153
418423
418687
418965
419243
419511
419784
420046
420307
420563
420825
421101
421367
421640
421923
422195
422482
422767
423036
423145
423524
423785
424045
424312
424578
424841
425093
425350
425611
425866
426123
426393
426655
426911
427176
427447
427701
427953
428189
428421
428660
428902
429150
429420
429696
430159
430398
430629
430859
431086
431319
431541
431768
431981
432194
432403
432611
432811
433010
433204
433392
433581
433767
433951
434129
434305
434478
434658
434830
434999
435166
435337
435507
435674
435840
436008
436180
436352
436522
436872
437051
437222
437396
437571
437749
437922
438094
438269
438452
438633
438816
439003
439196
439390
439583
439778
439976
440170
440360
440552
440746
440854
441137
441334
441527
441899
442088
442271
442453
442634
442816
443000
443182
443364
443547
443733
443915
444095
444278
444459
444640
444821
445000
445182
445363
445543
445724
445910
446285
446473
446662
447037
447222
447407
447592
447775
447960
448152
448347
448539
448736
448944
449156
449367
449579
449796
450008
450210
450413
450610
450800
450986
451175
451360
451546
451737
451933
452134
452334
452533
452733
452930
453125
453321
453515
453708
453895
454082
454273
454465
454651
454839
455025
455210
455394
455576
455763
455950
456132
456320
456515
456710
456906
457106
457310
457513
457719
457933
458142
458352
458566
458782
459001
459226
459450
459672
459886
460102
460314
460517
460717
460919
461126
461321
461514
461714
461915
462103
462290
462477
462663
462844
463025
463211
463400
463771
463961
464150
464338
464527
464721
464921
465117
465322
465529
465737
465947
466156
466367
466576
466777
466982
467181
467378
467571
467770
467970
468174
468378
468593
468808
469030
469257
469475
469684
470093
470294
470488
470678
470868
471053
471236
471419
471606
471798
471994
472197
472405
472615
472826
473036
473255
473475
473701
473937
474174
474411
474655
474897
475139
475386
475618
475843
476064
476280
476495
476728
476961
477059
477399
477644
477885
478118
478365
478601
478829
479062
479285
479503
479725
479954
480057
480389
480613
480833
481053
481279
481509
481726
481944
482167
482383
482592
482799
483005
483209
483409
483615
483821
484026
484231
484440
484650
484860
485069
485286
485508
485723
485949
486168
486379
486592
486806
487019
487232
487446
487664
487877
488093
488308
488523
488738
488956
489177
489393
489611
489830
490050
490272
490501
490719
490944
491176
491406
491632
491866
492097
492319
492536
492757
492977
493191
493407
493622
493827
494030
494240
494454
494658
494868
495085
495292
495500
495713
495920
496120
496320
496526
496730
496931
497138
497350
497562
497774
497990
498202
498413
498624
498836
499053
499269
499491
499710
499928
500157
500401
500629
500850
501083
501310
501532
501771
501999
502226
502458
502684
502903
503126
503349
503569
503784
504003
504222
504433
504641
504852
505055
505260
505470
505683
505900
506120
506339
506565
506790
507014
507243
507472
507706
507947
508181
508409
508643
508873
509096
509329
509552
509767
509989
510208
510422
510633
510850
511278
511498
511718
511935
512151
512584
512797
513017
513239
513456
513680
513909
514134
514358
514586
514820
515047
515273
515510
515744
515973
516212
516452
516685
516920
517151
517382
517626
517863
518096
518337
518572
518800
519026
519248
519465
519673
519883
520089
520285
520484
520685
520884
521089
521295
521501
521704
521905
522108
522310
522506
522702
522900
523097
523294
523493
523699
523911
524125
524351
524581
524808
524920
