peaks
75098
75316
75529
75746
75963
76178
76390
76611
76831
77048
77259
77479
77684
77889
78272
78490
78701
78910
79112
79311
79511
79707
80082
80299
80520
80745
80964
81179
81392
81607
81821
82033
82238
82442
82599
82823
83032
83240
83447
83657
83865
84023
84249
84459
84668
84879
85082
85241
85472
85681
85889
86100
86312
86527
86738
86903
87152
87375
87594
87810
88027
88248
88461
88673
88831
89064
89276
89484
89694
89903
90108
90273
90500
90708
90924
91128
91334
91534
91738
91942
92144
92347
92559
92763
92966
93168
93371
93575
93784
93989
94192
94394
94603
94812
95016
95227
95433
95635
95843
96047
96254
96459
96664
96867
97075
97277
97484
97692
97899
98104
98309
98516
98729
98935
99140
99351
99559
99769
99975
100180
100388
100595
100796
101003
101208
101417
101615
101814
102017
102224
102421
102624
102833
103035
103237
103443
103643
103848
104060
104272
104478
104685
104892
105097
105307
105512
105715
105918
106120
106323
106530
106730
106936
107142
107344
107554
107762
107926
108164
108383
108604
108820
109039
109249
109462
109675
109835
110062
110281
110502
110719
110943
111166
111391
111608
111824
112052
112273
112493
112709
112936
113157
113363
113565
113764
113964
114159
114355
114553
114749
114952
115151
115308
115543
115762
115979
116183
116383
116579
116776
116974
117175
117344
117593
117814
118035
118243
118432
118851
119060
119267
119426
119647
119867
120079
120295
120506
120723
120931
121132
121338
121537
121701
121936
122150
122362
122574
122787
122997
123202
123410
123617
123779
124013
124236
124453
124675
124893
125117
125341
125528
125764
125981
126147
126390
126606
126836
127058
127275
127436
127674
127892
128102
128314
128495
128718
128924
129127
129329
129534
129734
129939
130141
130345
130522
130770
130993
131204
131408
131617
131996
132215
132434
132646
132842
133083
133301
133488
133746
133985
134217
134450
134643
134890
135108
135325
135544
135757
135924
136167
136386
136599
136813
137032
137254
137472
137688
137922
138144
138362
138575
138780
138956
139192
139396
139600
139800
139958
140186
140399
140600
140798
140998
141198
141380
141611
141827
142036
142246
142447
142654
142860
143066
143272
143480
143689
143894
144104
144273
144517
144748
144973
145198
145378
145623
145841
146008
146248
146470
146683
146905
147124
147345
147567
147797
148014
148227
148444
148654
148858
149062
149223
149437
149649
149861
150083
150289
150489
150691
150890
151088
151276
151498
151722
151899
152160
152386
152603
152819
153032
153241
153406
153648
153879
154057
154306
154532
154751
154965
155131
155363
155575
155764
156211
156429
156640
156857
157072
157290
157492
157718
157929
158313
158538
158761
158981
159201
159424
159636
159847
160061
160271
160479
160688
160896
161105
161488
161698
161927
162142
162348
162564
162778
162933
163162
163384
163599
163806
164007
164167
164398
164612
164827
165046
165253
165456
165664
165846
166070
166276
166483
166684
166887
167092
167301
167483
167721
167933
168137
168345
168551
168762
168974
169371
169596
169823
170047
170208
170446
170667
170887
171114
171334
171553
171774
172002
172231
172391
172623
172848
173074
173288
173495
173703
173861
174080
174279
174465
174646
174824
175000
175171
175345
175510
175687
175863
176034
176209
176382
176554
176734
176915
177095
177275
177455
177636
177819
177999
178186
178374
178565
178755
178947
179143
179338
179537
179730
179929
180129
180330
180532
180742
180959
181183
181399
181618
181777
182050
182298
182550
182742
183020
183258
183499
183736
183976
184211
184448
184684
184915
185131
185345
185546
185745
185951
186149
186345
186542
186744
186947
187151
187355
187570
187778
187995
188211
188424
188651
188873
189095
189310
189532
189751
189966
190189
190406
190631
190848
191072
191288
191516
191737
191955
192173
192403
192626
192850
193075
193298
193515
193732
193948
194164
194378
194602
194819
195048
195269
195487
195704
195920
196141
196347
196549
196743
196929
197122
197304
197485
197665
197843
198020
198196
198371
198546
198725
198904
199086
199246
199464
199659
199849
200041
200233
200426
200624
200826
201024
201224
201423
201621
201826
202027
202236
202447
202657
202869
203083
203295
203521
203737
203952
204168
204385
204593
204999
205201
205455
205684
205902
206125
206285
206532
206754
206978
207196
207408
207626
207851
208071
208281
208490
208690
209088
209241
209462
209655
209874
210090
210299
210501
210705
210910
211116
211324
211487
211751
211993
212249
212497
212666
212936
213177
213414
213648
213879
214114
214347
214578
214806
215038
215268
215509
215745
215978
216211
216445
216675
216902
217133
217357
217579
217795
218014
218232
218448
218668
218890
219102
219319
219540
219759
219977
220191
220398
220614
220827
221030
221448
221634
222044
222236
222429
222603
222807
223006
223204
223398
223600
223802
224014
224228
224394
224667
224916
225155
225400
225568
225839
226080
226315
226562
226794
227027
227259
227490
227722
227952
228178
228405
228632
228857
229079
229301
229526
229746
229971
230187
230405
230620
230837
231047
231257
231469
231680
231894
232105
232328
232549
232777
232994
233219
233448
233671
233891
234121
234346
234566
234999
235221
235410
235631
235840
236042
236245
236457
236670
236879
237083
237292
237500
237707
237864
238091
238300
238511
238721
238929
239138
239314
239545
239763
239954
240187
240404
240616
240837
241052
241246
241472
241685
241863
242088
242295
242466
242692
242901
243104
243315
243525
243732
243939
244143
244350
244520
244755
244963
245170
245384
245597
245805
245964
246199
246419
246632
246842
247068
247288
247450
247684
247913
248138
248355
248572
248795
249014
249233
249624
249847
250067
250282
250440
250667
250878
251064
251499
251711
251926
252136
252327
252559
252776
252993
253214
253435
253651
253868
254085
254295
254510
254725
254941
255158
255379
255597
255815
256025
256238
256445
256651
256855
257074
257289
257504
257714
257936
258155
258365
258583
258806
259020
259227
259443
259663
259880
260089
260305
260519
260726
260930
261143
261351
261558
261762
261973
262177
262384
262592
262793
262998
263210
263421
263632
263845
264061
264274
264485
264698
264907
265116
265323
265532
265738
265943
266149
266354
266561
266768
266973
267181
267387
267593
267799
268009
268178
268415
268628
268836
269042
269250
269468
269679
269884
270096
270308
270523
270731
270897
271143
271362
271570
271777
271988
272198
272400
272746
272989
273172
273409
273619
273818
274014
274170
274390
274607
274822
275035
275247
275454
275657
275860
276021
276240
276455
276671
276888
277099
277317
277529
277749
277963
278178
278393
278605
278809
279014
279176
279414
279631
279845
280062
280275
280491
280707
280918
281092
281325
281541
281749
281960
282178
282393
282607
282773
283012
283237
283455
283678
283905
284114
284320
284520
284681
284909
285127
285338
285550
285769
285982
286196
286360
286594
286812
287029
287249
287461
287681
287902
288290
288513
288736
288953
289165
289379
289589
289751
289983
290194
290397
290605
290809
291014
291174
291391
291600
291811
292016
292226
292428
292640
292844
293059
293277
293494
293708
293926
294092
294336
294550
294767
294986
295205
295419
295627
295848
296070
296292
296511
296738
296957
297174
297385
297603
297811
298024
298233
298438
298641
298845
299053
299253
299457
299661
299869
300077
300284
300492
300701
300920
301129
301336
301545
301760
301972
302182
302390
302591
302789
302981
303169
303359
303543
303733
303921
304105
304297
304492
304687
304883
305082
305233
305458
305635
305879
306064
306319
306498
306757
306956
307228
307437
307668
307900
308114
308344
308570
308731
308974
309195
309411
309625
309841
310053
310261
310464
310663
310858
311051
311245
311433
311618
311764
311967
312164
312357
312540
312724
312903
313079
313259
313441
313630
313823
314022
314229
314430
314633
314834
315039
315238
315444
315644
315848
316052
316456
316641
316890
317125
317347
317563
317781
317997
318164
318385
318601
318818
319033
319240
319451
319666
319878
320091
320293
320493
320699
320860
321087
321309
321539
321755
321973
322191
322416
322637
322850
323068
323287
323500
323713
323926
324142
324359
324572
324791
325012
325231
325448
325667
325887
326102
326325
326541
326760
326977
327179
327386
327592
327800
328006
328214
328419
328622
328830
329038
329244
329453
329658
329862
330066
330270
330478
330678
330874
331075
331275
331477
331680
331877
332079
332279
332479
332680
332880
333078
333279
333482
333684
333887
334091
334251
334491
334707
334916
335137
335354
335566
335773
335986
336148
336368
336579
336796
337018
337233
337444
337645
337848
338049
338254
338455
338662
339055
339279
339495
339710
339921
340111
340337
340547
340757
340969
341133
341360
341573
341791
342000
342217
342431
342644
342862
343077
343295
343514
343727
343941
344155
344372
344585
344748
344992
345208
345429
345648
345862
346084
346297
346514
346731
346949
347163
347375
347599
347824
348046
348265
348488
348706
348913
349119
349318
349521
349720
349918
350121
350328
350531
350736
350941
351153
351358
351566
351774
351979
352204
352410
352624
352833
353048
353262
353474
353682
353893
354101
354310
354523
354737
354954
355167
355374
355584
355793
355999
356208
356411
356615
356826
357035
357241
357448
357655
357866
358074
358282
358495
358706
358908
359113
359321
359531
359737
359944
360148
360350
360554
360761
360970
361175
361378
361586
361789
361993
362194
362398
362597
362799
362998
363196
363397
363599
363797
364001
364202
364402
364604
364807
365010
365212
365414
365614
365816
366016
366219
366422
366627
366830
367035
367238
367440
367644
367840
368049
368249
368451
368651
368851
369055
369254
369457
369660
369863
370070
370272
370478
370684
370886
371085
371282
371481
371678
371871
372066
372260
372457
372648
372840
373030
373225
373414
373604
373794
373985
374135
374333
374530
374732
374933
375134
375330
375489
375705
375915
376125
376332
376515
376743
376951
377152
377361
377566
377770
377972
378139
378364
378569
378773
378976
379181
379384
379584
379750
379975
380181
380383
380588
380792
380998
381202
381383
381605
381819
382025
382235
382448
382664
382878
383089
383305
383524
383745
383959
384174
384393
384604
384818
385028
385242
385454
385662
385866
386073
386281
386487
386690
386894
387102
387306
387509
387717
387925
388131
388339
388550
388762
388971
389180
389390
389596
389802
390013
390221
390424
390634
390845
391056
391267
391484
391698
391913
392123
392334
392553
392765
392984
393193
393404
393619
393834
394043
394257
394455
394685
394900
395116
395332
395521
395750
395965
396178
396387
396599
396815
397022
397231
397443
397653
397864
398073
398281
398489
398694
398900
399105
399307
399513
399717
399918
400120
400326
400528
400731
400935
401141
401346
401545
401747
401953
402152
402352
402553
402758
402965
403166
403368
403568
403773
403980
404188
404393
404599
404811
405028
405241
405446
405654
405861
406069
406271
406477
406678
406875
407073
407267
407460
407655
407847
408037
408228
408418
408609
408802
408993
409191
409384
409579
409773
409975
410171
410372
410569
410770
410968
411168
411369
411565
411762
411966
412163
412359
412560
412759
412965
413162
413364
413575
413778
413981
414186
414391
414594
414796
414999
415203
415402
415602
415805
416008
416214
416415
416616
416819
417027
417231
417438
417638
417846
418051
418256
418465
418668
418870
419079
419280
419484
419684
419890
420091
420291
420492
420694
420899
421105
421306
421506
421707
421907
422110
422311
422511
422715
422917
423117
423317
423518
423718
423919
424074
424281
424482
424682
424883
425048
425272
425484
425689
425897
426100
426324
426540
426756
426974
427189
427399
427614
427828
428039
428248
428463
428673
428881
429093
429306
429513
429722
429931
430142
430346
430552
430761
430970
431179
431385
431596
431800
432004
432210
432417
432624
432837
433045
433259
433478
433695
433909
434129
434346
434557
434769
434987
435198
435405
435614
435824
436031
436243
436453
436657
436861
437065
437272
437476
437674
437870
438063
438262
438458
438652
438850
439044
439243
439441
439635
439832
440013
440434
440636
440833
440992
441213
441420
441621
441825
442022
442211
442399
442584
442740
442947
443140
443320
443502
443682
443861
444040
444219
444371
444569
444754
444934
445116
445301
445485
445673
445860
446048
446238
446426
446617
446808
447000
447194
447387
447537
447771
447929
448165
448337
448584
448743
448975
449147
449391
449551
449777
449936
450169
450328
450555
450724
450964
451122
451358
451531
451775
451937
452168
452337
452578
452803
453024
453240
453457
453675
453888
454098
454302
454510
454716
454917
455119
455322
455527
455731
455935
456141
456351
456558
456769
456983
457196
457406
457615
457829
458044
458256
458464
458679
458893
459109
459321
459536
459753
459966
460173
460383
460595
460794
460994
461194
461390
461771
461993
462215
462435
462598
462825
463048
463267
463487
463701
463911
464125
464341
464558
464768
464984
465199
465414
465623
465841
466055
466264
466467
466673
466878
467082
467287
467491
467693
467899
468106
468308
468513
468716
468917
469117
469313
469498
469694
469874
470053
470233
470404
470573
470744
470908
471071
471240
471405
471572
471734
471899
472064
472228
472387
472550
472713
472875
473041
473206
473367
473534
473702
473868
474037
474208
474380
474553
474728
474901
475079
475259
475441
475621
475805
475987
476167
476350
476528
476709
476891
477073
477258
477443
477625
477814
478001
478186
478371
478558
478746
478927
479115
479299
479482
479667
479856
480047
480244
480441
480639
480837
481035
481234
481430
481624
481822
482017
482211
482399
482587
482774
483114
483314
483519
483710
483896
484087
484275
484464
484655
484845
485040
485234
485619
485834
486037
486405
486577
486816
486983
487241
487456
487663
487867
488063
488261
488458
488847
489065
489270
489474
489678
489873
490072
490454
490630
490862
491111
491331
491538
491742
491944
492150
492349
492557
492761
492967
493172
493380
493584
493787
493988
494194
494396
494599
494802
495009
495212
495416
495620
495828
496036
496240
496439
496642
496845
497043
497239
497429
497620
497803
497984
498161
498337
498511
498685
498856
499028
499203
499375
499534
499726
499902
500083
500264
500444
500626
500810
500996
501180
501368
501554
501741
501925
502079
502296
502459
502681
502886
503089
503287
503486
503689
503895
504097
504302
504510
504714
504900
505344
505557
505761
505963
506165
506367
506765
506990
507211
507432
507653
507871
508087
508310
508529
508746
508964
509192
509414
509630
509862
510082
510293
510493
510690
510889
511083
511278
511472
511663
511858
512054
512251
512452
512655
512855
513065
513268
513470
513671
513871
514073
514272
514476
514676
514877
515075
515276
515479
515675
515873
516079
516285
516491
516701
516902
517111
517321
517536
517749
517967
518175
518384
518592
518804
519010
519215
519420
519625
519831
520035
520240
520444
520644
520843
521039
521241
521435
521641
521837
522034
522238
522438
522638
522837
523036
523212
523464
523679
523853
524102
524328
524554
524770
524976
