peaks
75031
75198
75373
75544
75717
75887
76059
76228
76403
76578
76749
76920
77088
77256
77426
77596
77769
77939
78109
78277
78448
78620
78795
78965
79135
79304
79475
79648
79823
79997
80173
80341
80512
80687
80860
81035
81210
81382
81559
81683
81892
82078
82251
82422
82594
82766
82938
83113
83284
83454
83625
83801
83970
84143
84313
84483
84652
84821
84993
85165
85335
85504
85674
85845
86020
86194
86366
86537
86707
86880
87056
87232
87407
87578
87751
87925
88101
88277
88454
88628
88802
88975
89154
89326
89459
89680
89849
90023
90196
90374
90548
90719
90893
91065
91238
91411
91585
91759
91935
92102
92275
92449
92624
92797
92969
93141
93315
93490
93665
93839
94012
94185
94360
94536
94711
94886
95058
95235
95407
95583
95756
95932
96104
96276
96449
96622
96799
96973
97146
97317
97491
97664
97839
97979
98179
98352
98524
98697
98869
99043
99215
99386
99558
99732
99906
100079
100251
100422
100592
100768
100946
101120
101294
101467
101638
101815
101991
102167
102346
102517
102692
102867
102959
103214
103390
103569
103745
103920
104096
104271
104443
104616
104788
104967
105137
105311
105487
105655
105826
105999
106175
106348
106522
106695
106868
107042
107218
107392
107567
107741
107916
108092
108270
108449
108624
108798
108974
109151
109330
109510
109688
109864
110040
110215
110391
110566
110740
110914
111087
111264
111442
111617
111792
111965
112137
112310
112484
112658
112831
113003
113174
113347
113523
113697
113869
114041
114214
114388
114564
114739
114914
115088
115263
115443
115617
115794
115970
116146
116321
116498
116677
116856
117033
117208
117381
117556
117733
117913
118085
118261
118435
118610
118740
118963
119140
119314
119487
119660
119834
120009
120183
120356
120531
120705
120881
121057
121233
121411
121581
121757
121934
122112
122290
122465
122640
122817
122995
123174
123353
123532
123710
123887
124066
124243
124418
124593
124767
124942
125120
125299
125475
125649
125824
125998
126174
126349
126525
126702
126870
127044
127221
127398
127571
127745
127917
128093
128269
128445
128621
128796
128972
129148
129326
129459
129680
129856
130030
130204
130383
130563
130742
130919
131096
131271
131446
131623
131798
131972
132146
132324
132505
132678
132853
133026
133200
133375
133550
133725
133899
134074
134247
134421
134597
134771
134946
135119
135293
135468
135647
135823
136001
136177
136351
136528
136706
136884
137061
137238
137416
137594
137776
137958
138136
138312
138487
138662
138839
139016
139196
139372
139548
139725
139904
140080
140255
140428
140602
140777
140954
141129
141305
141480
141655
141829
142005
142183
142320
142532
142708
142885
143064
143244
143422
143599
143775
143954
144138
144313
144493
144670
144848
145028
145209
145390
145567
145743
145919
146098
146277
146455
146633
146806
146981
147157
147334
147511
147687
147862
148036
148214
148391
148566
148741
148917
149091
149268
149445
149624
149806
149978
150155
150334
150516
150697
150875
151052
151231
151412
151594
151778
151960
152139
152319
152496
152675
152851
153029
153206
153383
153562
153746
153922
154097
154272
154446
154624
154802
154978
155154
155329
155505
155682
155859
156035
156212
156386
156567
156743
156923
157100
157278
157454
157632
157813
157996
158176
158356
158535
158715
158898
159079
159264
159436
159613
159791
159970
160151
160336
160511
160688
160868
161046
161224
161402
161582
161755
161934
162113
162292
162468
162644
162821
162998
163178
163355
163534
163711
163890
164070
164253
164433
164615
164792
164972
165158
165339
165530
165714
165896
166078
166261
166445
166625
166804
166983
167164
167347
167530
167712
167892
168069
168250
168431
168607
168787
168965
169142
169320
169499
169679
169856
170033
170211
170391
170572
170752
170931
171109
171287
171469
171649
171831
172011
172191
172371
172553
172737
172920
173102
173283
173464
173644
173825
174004
174183
174361
174542
174723
174904
175083
175260
175435
175613
175793
175972
176150
176328
176504
176683
176862
177041
177218
177395
177572
177752
177934
178115
178294
178474
178652
178834
179017
179200
179381
179562
179744
179927
180114
180300
180483
180664
180846
181028
181211
181393
181573
181752
181933
182114
182294
182475
182653
182831
183010
183189
183369
183548
183724
183902
184080
184259
184439
184615
184797
184973
185152
185333
185514
185694
185873
186052
186234
186416
186597
186777
186958
187136
187319
187505
187683
187861
188039
188219
188398
188581
188762
188940
189116
189294
189472
189650
189829
190007
190185
190363
190542
190721
190898
191074
191251
191429
191610
191791
191970
192148
192327
192508
192690
192871
193052
193232
193412
193593
193777
193907
194130
194323
194504
194687
194870
195051
195230
195409
195590
195773
195956
196137
196317
196494
196673
196854
197035
197214
197392
197570
197750
197929
198108
198288
198465
198642
198822
199003
199184
199362
199541
199720
199900
200084
200267
200447
200629
200810
200992
201176
201359
201542
201722
201904
202087
202268
202450
202629
202809
202988
203168
203350
203529
203709
203886
204067
204248
204428
204606
204784
204963
205144
205326
205506
205685
205864
206044
206224
206406
206586
206767
206949
207131
207315
207497
207680
207860
208040
208222
208404
208588
208772
208954
209133
209313
209496
209680
209862
210043
210222
210404
210586
210768
210949
211130
211309
211491
211672
211851
212029
212206
212386
212566
212748
212930
213110
213289
213468
213651
213833
214016
214198
214381
214565
214749
214934
215117
215300
215482
215664
215850
216034
216217
216396
216576
216758
216943
217127
217309
217489
217670
217851
218034
218213
218391
218570
218750
218932
219113
219290
219468
219644
219824
220005
220186
220364
220542
220722
220902
221086
221268
221449
221630
221811
221995
222178
222363
222547
222726
222908
223091
223274
223455
223635
223815
223995
224177
224360
224542
224722
224902
225081
225263
225445
225624
225801
225977
226156
226337
226518
226699
226877
227054
227235
227416
227599
227780
227961
228142
228326
228510
228694
228876
229058
229240
229425
229612
229798
229984
230167
230350
230532
230717
230900
231082
231264
231447
231631
231813
231996
232175
232354
232534
232716
232895
233075
233252
233430
233612
233793
233975
234156
234334
234513
234695
234876
235056
235237
235417
235599
235783
235966
236146
236327
236508
236693
236880
237066
237250
237431
237610
237791
237973
238155
238336
238517
238697
238879
239061
239241
239419
239597
239775
239955
240134
240315
240492
240670
240850
241029
241212
241393
241572
241751
241931
242113
242297
242479
242660
242842
243023
243205
243388
243572
243753
243936
244122
244308
244491
244673
244853
245032
245213
245395
245578
245758
245937
246116
246298
246479
246660
246837
247014
247192
247374
247554
247733
247912
248092
248284
248466
248644
248822
249000
249181
249362
249546
249728
249908
250087
250266
250448
250630
250813
250996
251178
251360
251544
251724
251905
252085
252263
252444
252626
252809
252990
253170
253348
253529
253710
253891
254070
254248
254425
254605
254785
254967
255145
255324
255504
255684
255865
256047
256227
256407
256587
256772
256955
257137
257318
257497
257677
257861
258046
258230
258412
258592
258772
258954
259135
259316
259496
259674
259856
260037
260219
260399
260577
260754
260933
261113
261292
261473
261652
261831
262012
262193
262373
262551
262730
262909
263091
263274
263456
263636
263816
263996
264179
264363
264545
264727
264909
265093
265226
265428
265645
265827
266007
266189
266372
266556
266739
266919
267099
267281
267464
267606
267801
268003
268183
268365
268549
268731
268911
269091
269272
269453
269634
269816
269996
270176
270357
270542
270728
270911
271093
271275
271458
271642
271826
272011
272196
272379
272563
272746
272928
273108
273286
273465
273648
273831
274014
274194
274372
274551
274730
274912
275090
275267
275445
275624
275805
275986
276164
276342
276520
276699
276881
277061
277242
277420
277599
277779
277965
278148
278330
278510
278691
278874
279058
279242
279425
279607
279790
279952
280141
280338
280520
280701
280883
281067
281251
281433
281612
281791
281970
282151
282332
282511
282689
282867
283047
283228
283408
283586
283765
283944
284124
284307
284489
284669
284849
285028
285211
285395
285578
285758
285941
286124
286310
286495
286679
286859
287038
287219
287399
287581
287762
287944
288123
288305
288487
288666
288846
289021
289202
289382
289563
289744
289920
290098
290279
290460
290641
290820
290999
291178
291358
291541
291722
291904
292084
292263
292443
292623
292804
292985
293163
293344
293526
293708
293890
294071
294251
294435
294616
294801
294996
295176
295359
295541
295724
295908
296091
296272
296453
296636
296819
297000
297181
297360
297543
297719
297908
298094
298276
298457
298638
298818
299001
299184
299369
299546
299726
299908
300092
300275
300457
300639
300822
301005
301187
301367
301545
301724
301902
302084
302265
302446
302624
302800
302979
303157
303336
303514
303689
303867
304044
304223
304402
304579
304755
304932
305111
305290
305473
305651
305829
306007
306189
306370
306550
306730
306908
307087
307271
307455
307637
307818
307998
308177
308356
308536
308716
308894
309073
309253
309434
309615
309794
309970
310147
310326
310505
310685
310863
311039
311215
311395
311576
311756
311933
312109
312288
312468
312650
312830
313010
313188
313369
313552
313735
313915
314098
314277
314457
314642
314826
315008
315189
315368
315546
315728
315910
316090
316273
316452
316634
316813
316991
317169
317346
317524
317703
317885
318065
318243
318420
318597
318775
318954
319134
319312
319489
319669
319850
320032
320215
320395
320575
320756
320940
321123
321305
321485
321665
321848
321988
322216
322399
322579
322759
322942
323124
323307
323486
323666
323846
324025
324206
324386
324566
324745
324925
325105
325286
325466
325645
325822
325998
326179
326358
326540
326720
326900
327080
327262
327445
327626
327807
327937
328172
328352
328535
328716
328897
329078
329258
329440
329622
329806
329983
330171
330354
330535
330715
330895
331071
331250
331429
331609
331787
331965
332143
332322
332501
332681
332861
333040
333217
333396
333579
333759
333937
334116
334296
334476
334660
334843
335026
335207
335388
335573
335760
335947
336142
336325
336508
336693
336877
337058
337240
337421
337603
337785
337967
338145
338322
338501
338680
338863
339044
339220
339398
339576
339755
339935
340115
340294
340471
340650
340831
341012
341193
341372
341551
341734
341918
342103
342287
342467
342647
342830
343014
343199
343383
343563
343743
343924
344109
344291
344472
344652
344832
345011
345194
345374
345552
345730
345908
346087
346268
346446
346624
346803
346982
347162
347342
347521
347700
347877
348057
348238
348418
348596
348775
348956
349137
349322
349506
349690
349872
350055
350240
350424
350609
350790
350971
351151
351334
351517
351697
351878
352057
352240
352418
352598
352776
352954
353131
353309
353488
353666
353842
354017
354194
354373
354553
354732
354912
355089
355268
355450
355629
355811
355992
356169
356348
356529
356713
356895
357076
357257
357439
357622
357806
357987
358168
358355
358536
358719
358902
359084
359260
359438
359617
359797
359977
360155
360331
360507
360685
360863
361041
361217
361395
361573
361753
361934
362114
362292
362469
362647
362827
363006
363186
363365
363544
363723
363905
364089
364274
364455
364636
364817
365001
365183
365363
365542
365720
365899
366082
366262
366441
366630
366810
366990
367171
367351
367528
367705
367883
368062
368243
368421
368598
368776
368955
369136
369314
369499
369679
369860
370039
370222
370405
370586
370766
370946
371127
371311
371494
371676
371857
372038
372220
372403
372585
372765
372944
373123
373304
373486
373665
373845
374023
374110
374380
374562
374741
374917
375093
375273
375453
375633
375813
375990
376168
376347
376529
376710
376890
377070
377250
377431
377614
377795
377976
378155
378337
378520
378706
378890
379072
379253
379432
379614
379795
379976
380157
380336
380517
380698
380882
381058
381237
381413
381590
381769
381948
382124
382301
382476
382655
382837
383017
383196
383374
383553
383736
383918
384100
384281
384412
384600
384824
385008
385188
385368
385549
385731
385917
386103
386285
386466
386645
386826
387008
387190
387370
387549
387729
387911
388093
388275
388454
388631
388810
388989
389171
389351
389528
389707
389886
390065
390247
390427
390606
390787
390970
391152
391338
391520
391701
391883
392065
392249
392434
392568
392765
392983
393171
393357
393544
393722
393902
394087
394278
394460
394644
394821
395000
395182
395318
395546
395728
395906
396085
396265
396447
396626
396805
396983
397162
397342
397522
397701
397879
398059
398240
398422
398608
398791
398972
399152
399333
399515
399606
399879
400065
400248
400431
400614
400795
400976
401157
401338
401520
401703
401885
402018
402221
402422
402603
402784
402963
403142
403319
403500
403682
403868
404046
404224
404402
404580
404761
404941
405122
405302
405485
405617
405815
406036
406220
406401
406582
406766
406953
407137
407322
407503
407687
407872
408056
408240
408422
408603
408785
408971
409153
409334
409512
409692
409872
410054
410234
410414
410593
410773
410954
411136
411316
411495
411674
411853
412035
412218
412398
412579
412761
412943
413127
413309
413491
413673
413855
414037
414223
414408
414590
414771
414949
415131
415314
415495
415676
415854
416033
416215
416396
416575
416752
416929
417107
417287
417466
417645
417823
418000
418180
418362
418542
418722
418899
419078
419259
419439
419622
419804
419986
420168
420352
420534
420717
420898
421081
421265
421450
421635
421816
421994
422172
422353
422535
422720
422903
423084
423263
423444
423624
423710
423977
424157
424333
424514
424696
424876
425055
425234
425411
425591
425771
425950
426127
426305
426395
426665
426852
427034
427215
427397
427580
427763
427947
428130
428312
428496
428585
428861
429002
429228
429407
429587
429771
429953
430137
430318
430497
430676
430856
431037
431215
431393
431570
431748
431931
432111
432291
432418
432623
432825
433007
433187
433365
433545
433726
433907
434091
434274
434456
434636
434819
435001
435188
435372
435557
435740
435921
436106
436288
436467
436648
436829
437010
437194
437376
437555
437734
437912
438092
438272
438450
438627
438804
438982
439164
439346
439525
439705
439882
440063
440244
440425
440605
440785
440966
441149
441333
441517
441699
441880
442063
442247
442434
442620
442806
442989
443171
443353
443539
443718
443901
444082
444265
444451
444634
444814
444993
445171
445350
445530
445712
445889
446066
446246
446426
446606
446787
446965
447142
447320
447501
447683
447864
448044
448225
448408
448592
448775
448958
449140
449320
449506
449640
449856
450062
450244
450425
450605
450786
450968
451151
451331
451511
451694
451876
452058
452235
452412
452591
452771
452950
453131
453308
453485
453665
453846
454026
454205
454384
454564
454746
454930
455113
455295
455477
455659
455841
456025
456207
456388
456571
456755
456941
457127
457310
457491
457670
457853
457983
458220
458403
458583
458765
458946
459127
459308
459487
459667
459846
460025
460206
460386
460563
460742
460921
461102
461283
461462
461640
461819
462000
462182
462366
462548
462729
462909
463090
463272
463455
463637
463820
464005
464191
464375
464557
464739
464917
465099
465282
465464
465646
465770
466003
466182
466364
466546
466726
466906
467085
467266
467447
467629
467797
467984
468164
468345
468529
468711
468892
469072
469256
469441
469626
469810
469992
470174
470355
470540
470722
470909
471092
471272
471459
471644
471826
472007
472188
472369
472552
472735
472917
473096
473274
473454
473636
473816
473996
474176
474355
474535
474718
474898
475077
475255
475432
475612
475796
475977
476159
476338
476519
476704
476887
477071
477254
477434
477618
477804
477991
478177
478360
478542
478725
478907
479089
479270
479450
479631
479812
479998
480177
480356
480534
480712
480892
481073
481254
481432
481610
481790
481971
482152
482278
482500
482692
482874
483059
483244
483427
483611
483794
483977
484162
484344
484525
484707
484890
485076
485265
485391
485635
485821
486005
486190
486376
486558
486744
486928
487110
487294
487477
487656
487835
488016
488200
488384
488569
488750
488928
489111
489294
489475
489657
489837
490016
490200
490384
490567
490752
490936
491119
491305
491491
491676
491860
492043
492228
492414
492601
492786
492968
493148
493329
493512
493699
493883
494064
494247
494431
494614
494797
494976
495156
495336
495518
495701
495882
496062
496239
496417
496598
496779
496960
497140
497320
497503
497689
497874
498056
498237
498420
498603
498788
498973
499156
499339
499525
499712
499900
500085
500266
500452
500636
500821
501010
501193
501374
501555
501737
501920
502103
502287
502467
502648
502830
503014
503197
503378
503558
503740
503863
504081
504291
504474
504658
504842
505030
505218
505403
505585
505770
505955
506142
506328
506512
506695
506883
507068
507253
507436
507619
507803
507988
508175
508361
508542
508723
508903
509083
509266
509447
509627
509806
509986
510170
510353
510535
510715
510895
511077
511263
511448
511629
511812
511994
512178
512365
512549
512731
512914
513098
513285
513473
513660
513846
514031
514217
514399
514585
514769
514952
515137
515322
515509
515692
515874
516054
516233
516417
516600
516783
516965
517146
517328
517513
517696
517877
518057
518239
518423
518607
518793
518975
519157
519341
519528
519715
519902
520087
520270
520458
520648
520834
521024
521209
521393
521580
521765
521952
522137
522320
522505
522689
522875
523057
523238
523420
523604
523789
523974
524155
524336
524518
524702
524886
