peaks
75003
75164
75329
75491
75655
75821
75967
76092
76308
76471
76635
76798
76961
77128
77272
77454
77617
77781
77944
78113
78279
78419
78607
78771
78936
79103
79269
79397
79595
79759
79905
80086
80248
80411
80573
80735
80898
81064
81224
81389
81555
81701
81885
82033
82207
82366
82526
82686
82848
83009
83174
83339
83501
83662
83827
83992
84135
84321
84483
84649
84812
84977
85144
85250
85470
85633
85799
85961
86126
86292
86453
86616
86781
86945
87090
87221
87437
87585
87762
87927
88089
88251
88411
88576
88698
88904
89069
89203
89394
89557
89724
89889
90053
90216
90378
90540
90708
90871
91017
91141
91361
91510
91690
91852
92015
92177
92340
92505
92669
92831
92992
93155
93300
93483
93647
93808
93969
94130
94296
94444
94617
94778
94938
95100
95261
95421
95579
95737
95898
96059
96217
96375
96534
96694
96839
97009
97168
97329
97488
97649
97809
97974
98137
98306
98471
98637
98799
98965
99132
99302
99470
99634
99800
99968
100137
100306
100474
100590
100806
100971
101140
101306
101470
101633
101798
101963
102130
102297
102459
102621
102784
102950
103094
103275
103440
103604
103769
103937
104102
104266
104431
104597
104764
104901
105099
105263
105427
105591
105758
105923
106069
106250
106415
106580
106747
106914
107079
107242
107409
107576
107743
107853
108076
108242
108406
108572
108737
108899
109061
109223
109355
109548
109712
109859
110036
110199
110365
110530
110693
110855
111004
111185
111353
111520
111684
111847
112012
112177
112344
112509
112673
112838
113001
113168
113334
113480
113620
113827
113964
114156
114320
114466
114645
114808
114972
115109
115297
115460
115608
115788
115953
116120
116283
116446
116610
116776
116942
117107
117272
117434
117596
117760
117925
118075
118220
118416
118579
118743
118911
119076
119239
119401
119566
119730
119894
120042
120172
120381
120543
120709
120872
121034
121196
121361
121525
121690
121856
122020
122184
122349
122519
122665
122794
123012
123176
123337
123501
123666
123828
123989
124154
124317
124480
124627
124757
124972
125136
125304
125468
125629
125794
125961
126126
126296
126463
126629
126792
126959
127127
127271
127407
127619
127784
127944
128110
128274
128436
128597
128763
128927
129093
129241
129371
129583
129746
129912
130076
130238
130401
130565
130729
130895
131061
131207
131331
131551
131715
131881
132044
132208
132370
132536
132700
132868
133034
133198
133363
133528
133693
133838
134028
134195
134359
134524
134692
134860
135029
135195
135361
135527
135693
135858
136024
136161
136350
136511
136675
136841
137006
137166
137331
137496
137659
137825
137971
138154
138317
138483
138650
138817
138981
139146
139309
139471
139636
139784
139964
140126
140292
140455
140620
140786
140951
141112
141277
141392
141607
141771
141934
142097
142258
142423
142570
142698
142916
143079
143241
143403
143566
143729
143875
144000
144213
144376
144540
144702
144866
145028
145174
145306
145524
145688
145850
146012
146175
146337
146482
146669
146832
146993
147158
147321
147485
147631
147759
147978
148140
148306
148471
148635
148774
148965
149128
149293
149459
149626
149789
149952
150115
150277
150441
150588
150719
150933
151096
151261
151425
151589
151752
151913
152073
152234
152398
152550
152723
152883
153046
153207
153374
153540
153703
153864
154028
154192
154339
154525
154689
154853
155015
155179
155345
155496
155678
155844
156007
156170
156333
156500
156645
156827
156991
157158
157324
157493
157660
157824
157987
158153
158318
158485
158653
158819
158981
159148
159316
159482
159650
159800
159928
160145
160307
160473
160635
160797
160958
161122
161284
161450
161614
161759
161886
162099
162264
162425
162587
162746
162907
163051
163174
163394
163558
163718
163881
164044
164208
164356
164533
164695
164860
165027
165191
165354
165517
165683
165846
166011
166159
166336
166497
166661
166826
166990
167153
167316
167481
167644
167812
167958
168142
168304
168471
168639
168804
168967
169132
169296
169458
169620
169780
169895
170101
170264
170423
170582
170742
170904
171049
171226
171386
171548
171708
171874
172039
172200
172363
172528
172694
172838
173023
173185
173349
173514
173680
173844
173989
174116
174332
174476
174659
174825
174988
175149
175312
175453
175556
175799
175917
176124
176284
176431
176607
176768
176930
177092
177253
177413
177559
177741
177905
178067
178230
178395
178559
178705
178834
179060
179226
179393
179558
179723
179890
180041
180171
180383
180549
180713
180878
181045
181211
181356
181536
181701
181866
182030
182193
182356
182518
182682
182849
183015
183161
183346
183509
183678
183844
184013
184182
184327
184513
184678
184845
185011
185181
185347
185512
185678
185844
186008
186154
186280
186503
186611
186829
186993
187155
187317
187479
187624
187800
187962
188127
188290
188451
188613
188777
188938
189086
189271
189433
189596
189761
189926
190090
190237
190418
190578
190741
190903
191068
191233
191378
191558
191721
191885
192053
192219
192383
192545
192709
192873
193038
193184
193316
193534
193700
193827
194027
194163
194356
194521
194665
194844
195008
195169
195333
195496
195658
195818
195981
196146
196310
196455
196643
196805
196968
197132
197299
197468
197612
197797
197959
198125
198290
198458
198621
198785
198951
199117
199283
199429
199616
199780
199943
200106
200270
200431
200578
200762
200924
201089
201256
201423
201590
201756
201870
202087
202251
202416
202583
202748
202911
203074
203236
203399
203565
203672
203891
204056
204220
204381
204491
204706
204869
205027
205188
205350
205513
205663
205837
205997
206159
206321
206487
206652
206797
206982
207143
207307
207473
207641
207805
207967
208128
208292
208454
208599
208732
208944
209106
209268
209431
209594
209758
209910
210031
210245
210407
210574
210738
210901
211064
211216
211357
211558
211724
211877
212049
212214
212378
212545
212709
212860
213037
213201
213369
213535
213700
213865
214005
214191
214353
214521
214685
214848
214980
215175
215336
215483
215667
215827
215987
216151
216315
216480
216627
216809
216969
217132
217295
217461
217625
217772
217951
218115
218277
218441
218603
218762
218925
219087
219255
219416
219561
219742
219904
220069
220236
220400
220564
220726
220891
221056
221220
221368
221551
221714
221877
222043
222206
222374
222524
222707
222870
223036
223203
223370
223537
223682
223824
224031
224172
224368
224531
224671
224864
225028
225195
225363
225530
225693
225854
226016
226501
226660
226976
227137
227298
227460
227620
227778
227937
228093
228252
228413
228559
228731
228906
229055
229216
229378
229537
229692
229857
230018
230176
230333
230490
230649
230795
230958
231121
231278
231424
231590
231751
231911
232068
232225
232387
232545
232704
232866
233028
233187
233349
233510
233673
233819
233999
234161
234320
234481
234644
234807
234969
235131
235291
235451
235611
235775
235885
236097
236258
236419
236580
236742
236904
237063
237221
237380
237543
237690
237862
238022
238182
238341
238501
238664
238821
238981
239143
239306
239450
239631
239790
239952
240114
240278
240442
240602
240763
240925
241089
241235
241415
241576
241734
241891
242051
242208
242339
242521
242680
242839
242977
243153
243311
243469
243628
243775
243946
244103
244262
244424
244586
244746
244895
245069
245228
245392
245556
245718
245879
246028
246204
246366
246529
246661
246853
247013
247176
247342
247505
247665
247789
247991
248152
248316
248478
248637
248768
248962
249124
249278
249448
249608
249772
249935
250100
250242
250425
250585
250748
250911
251070
251229
251390
251551
251710
251856
252033
252193
252358
252521
252681
252843
252987
253168
253331
253496
253657
253820
253982
254129
254312
254471
254635
254797
254963
255126
255273
255451
255611
255774
255938
256069
256261
256421
256582
256743
256890
257064
257222
257379
257539
257651
257863
258024
258174
258348
258509
258672
258832
258993
259155
259262
259480
259643
259804
259964
260127
260288
260452
260612
260774
260934
261100
261262
261421
261583
261730
261896
262068
262224
262391
262549
262710
262871
263027
263183
263341
263500
263656
263813
263971
264133
264292
264437
264613
264771
264932
265094
265255
265413
265573
265737
265898
266058
266165
266380
266539
266637
266866
267027
267184
267344
267507
267668
267824
267985
268144
268305
268416
268628
268788
268947
269108
269271
269430
269587
269747
269909
270071
270182
270393
270554
270712
270877
271030
271182
271342
271502
271660
271816
271978
272136
272285
272442
272600
272745
272910
273064
273220
273378
273534
273690
273847
274003
274162
274310
274478
274635
274793
274956
275116
275273
275435
275594
275754
275917
276024
276237
276394
276554
276715
276877
277038
277195
277354
277513
277674
277837
277982
278156
278316
278477
278640
278801
278960
279120
279281
279444
279607
279751
279883
280086
280218
280410
280570
280719
280889
281048
281219
281373
281532
281658
281854
282010
282145
282338
282499
282658
282820
282970
283140
283304
283466
283624
283783
283943
284102
284264
284407
284530
284742
284901
285063
285170
285382
285542
285701
285864
286027
286184
286331
286503
286664
286826
286987
287145
287304
287449
287630
287792
287949
288109
288271
288434
288578
288757
288917
289077
289241
289406
289566
289727
289890
290052
290214
290359
290491
290696
290856
291020
291180
291339
291500
291646
291826
291986
292147
292307
292466
292630
292777
292950
293110
293271
293434
293596
293758
293917
294077
294238
294402
294554
294677
294880
295040
295205
295364
295524
295682
295826
295958
296162
296324
296480
296639
296797
296958
297118
297261
297434
297592
297752
297914
298076
298234
298376
298555
298715
298859
299037
299190
299341
299511
299628
299831
299987
300134
300307
300465
300623
300781
300944
301104
301264
301422
301581
301740
301900
302063
302219
302327
302539
302701
302859
303017
303189
303337
303481
303656
303814
303970
304132
304293
304450
304608
304767
304875
305088
305250
305397
305566
305722
305883
306044
306204
306361
306517
306677
306843
307004
307162
307319
307484
307641
307795
307967
308124
308288
308453
308609
308769
308930
309086
309249
309411
309563
309731
309888
310051
310210
310371
310484
310692
310850
311009
311169
311329
311485
311636
311800
311962
312122
312280
312434
312593
312704
312915
313074
313229
313388
313550
313708
313850
314021
314178
314340
314501
314662
314813
314971
315139
315301
315459
315599
315772
315938
316096
316257
316413
316570
316679
316894
317056
317215
317369
317524
317692
317847
318007
318168
318330
318481
318653
318813
318969
319124
319282
319442
319616
319780
319942
320094
320263
320413
320584
320729
320852
321065
321224
321385
321545
321703
321852
321998
322183
322343
322502
322655
322813
322978
323091
323307
323456
323628
323779
323950
324110
324256
324375
324584
324750
324917
325078
325236
325399
325540
325693
325882
326044
326204
326362
326520
326683
326843
326985
327161
327315
327473
327645
327807
327970
328125
328284
328434
328606
328766
328924
329073
329243
329405
329554
329722
329880
330040
330203
330365
330524
330684
330845
331006
331168
331329
331487
331648
331810
331973
332117
332239
332451
332611
332773
332933
333093
333252
333396
333531
333735
333896
334056
334215
334375
334538
334689
334863
335020
335182
335345
335509
335671
335832
335994
336155
336320
336466
336646
336805
336968
337132
337295
337457
337617
337779
337941
338106
338251
338430
338589
338754
338918
339079
339240
339400
339562
339723
339883
340042
340204
340368
340530
340640
340853
341015
341179
341341
341502
341662
341824
341986
342150
342313
342472
342633
342796
342960
343113
343269
343441
343585
343764
343928
344073
344252
344410
344572
344740
344902
345065
345207
345387
345548
345676
345876
346038
346197
346331
346520
346681
346829
347002
347162
347322
347487
347647
347807
347968
348131
348294
348457
348617
348777
348938
349104
349254
349427
349587
349750
349914
350077
350241
350401
350562
350672
350887
351051
351194
351367
351525
351687
351848
352007
352167
352311
352490
352654
352799
352976
353137
353297
353429
353622
353784
353944
354104
354265
354429
354592
354754
354913
355021
355236
355400
355552
355720
355878
356039
356203
356363
356525
356670
356842
357002
357149
357328
357485
357644
357775
357966
358127
358289
358447
358605
358769
358931
359092
359249
359402
359556
359736
359899
360058
360217
360378
360541
360688
360861
361019
361182
361341
361500
361661
361819
361978
362138
362303
362447
362622
362782
362942
363105
363264
363421
363583
363742
363906
364069
364214
364385
364544
364707
364869
365031
365190
365350
365510
365673
365835
365980
366154
366312
366475
366635
366795
366954
367114
367275
367436
367598
367742
367913
368074
368237
368395
368551
368711
368818
369029
369191
369351
369508
369669
369828
369988
370148
370305
370466
370577
370788
370951
371098
371266
371425
371587
371747
371905
372063
372170
372382
372543
372704
372862
373020
373181
373344
373502
373659
373822
373982
374142
374303
374462
374618
374782
374892
375105
375263
375408
375583
375744
375899
376058
376220
376381
376540
376699
376859
377020
377170
377339
377493
377648
377783
377979
378138
378297
378457
378615
378776
378938
379097
379254
379412
379541
379739
379899
380056
380213
380374
380536
380680
380856
381010
381168
381335
381495
381652
381809
381970
382133
382294
382451
382607
382717
382927
383087
383234
383399
383562
383722
383880
384031
384193
384347
384519
384679
384840
385000
385165
385330
385494
385657
385816
385977
386139
386302
386463
386611
386783
386940
387107
387267
387426
387584
387728
387907
388068
388215
388386
388545
388707
388871
389030
389189
389336
389507
389669
389815
389991
390150
390310
390473
390636
390795
390936
391039
391276
391395
391598
391757
391916
392077
392237
392385
392549
392717
392878
393038
393190
393356
393509
393679
393839
394001
394145
394321
394472
394647
394810
394971
395132
395241
395457
395621
395781
395939
396097
396261
396424
396567
396738
396895
397062
397220
397381
397538
397647
397859
398023
398184
398343
398494
398664
398809
398982
399137
399292
399462
399621
399780
399936
400093
400263
400425
400570
400745
400906
401072
401233
401394
401553
401664
401880
402045
402202
402363
402524
402685
402835
403003
403158
403312
403466
403621
403775
403922
404055
404243
404397
404550
404703
404858
405016
405166
405327
405485
405643
405801
405960
406120
406280
406440
406599
406760
406865
407079
407240
407402
407559
407717
407876
408036
408195
408304
408519
408681
408838
408997
409156
409316
409460
409641
409797
409955
410116
410277
410437
410599
410756
410915
411077
411223
411400
411557
411717
411876
412038
412176
412358
412515
412674
412834
412996
413154
413310
413470
413615
413794
413951
414111
414270
414427
414590
414735
414911
415069
415229
415390
415551
415712
415870
416028
416185
416347
416497
416668
416825
416987
417146
417311
417471
417631
417791
417950
418113
418269
418436
418594
418755
418915
419079
419212
419403
419561
419705
419884
420047
420210
420369
420529
420688
420833
420963
421171
421310
421490
421649
421812
421972
422132
422289
422449
422609
422773
422933
423093
423250
423410
423562
423732
423894
424053
424210
424370
424533
424692
424854
425014
425171
425331
425493
425655
425810
425968
426129
426261
426437
426596
426753
426908
427064
427217
427366
427500
427681
427836
427993
428141
428292
428450
428595
428758
428915
429074
429226
429378
429537
429680
429823
430010
430161
430320
430480
430634
430790
430944
431099
431255
431414
431568
431727
431872
432003
432195
432349
432507
432664
432823
432979
433136
433291
433446
433602
433760
433918
434078
434233
434390
434546
434703
434863
435022
435176
435320
435493
435648
435806
435965
436125
436282
436437
436559
436754
436911
437071
437228
437382
437539
437683
437856
438014
438168
438326
438485
438640
438786
438957
439112
439270
439428
439587
439741
439891
440054
440210
440367
440525
440680
440837
440980
441149
441306
441465
441621
441778
441934
442045
442247
442403
442554
442709
442865
443022
443178
443325
443496
443654
443802
443966
444122
444279
444439
444600
444752
444904
445047
445221
445383
445533
445691
445844
445997
446150
446306
446461
446617
446771
446926
447083
447238
447395
447517
447711
447864
448013
448181
448339
448497
448655
448815
448972
449133
449294
449455
449616
449778
449938
450047
450261
450425
450535
450743
450904
451064
451224
451384
451545
451696
451866
452024
452183
452344
452503
452665
452826
452983
453124
453304
453462
453620
453781
453940
454099
454243
454416
454575
454733
454891
455048
455206
455364
455522
455681
455839
455984
456159
456317
456476
456635
456745
456954
457113
457265
457439
457589
457732
457908
458067
458229
458389
458543
458701
458844
458971
459184
459338
459496
459654
459813
459971
460116
460240
460449
460609
460768
460927
461083
461243
461388
461514
461726
461878
462035
462192
462350
462507
462666
462808
462979
463136
463279
463454
463613
463778
463930
464091
464252
464401
464574
464737
464899
465059
465221
465383
465529
465659
465867
466029
466189
466349
466511
466672
466783
466995
467157
467300
467478
467641
467803
467962
468125
468289
468451
468618
468776
468938
469050
469263
469428
469571
469748
469911
470075
470237
470399
470561
470722
470885
471030
471161
471372
471534
471663
471856
471996
472177
472300
472498
472657
472814
472982
473140
473290
473463
473624
473767
473946
474108
474252
474427
474589
474733
474910
475073
475235
475395
475557
475719
475882
476043
476205
476355
476482
476691
476853
477014
477175
477337
477500
477643
477822
477986
478149
478312
478476
478639
478785
478913
479132
479277
479449
479611
479773
479933
480094
480255
480408
480579
480740
480902
481064
481223
481385
481546
481705
481864
482026
482174
482310
482507
482667
482825
482984
483150
483311
483464
483626
483768
483948
484109
484271
484434
484597
484759
484904
485085
485247
485408
485573
485737
485897
486043
486226
486387
486552
486717
486888
487044
487194
487372
487535
487699
487864
488027
488190
488338
488520
488684
488847
489011
489175
489338
489484
489672
489828
489991
490157
490319
490484
490647
490810
490971
491133
491281
491460
491622
491783
491945
492107
492269
492415
492599
492757
492921
493085
493246
493409
493556
493732
493894
494056
494219
494383
494545
494692
494876
495038
495185
495367
495530
495697
495870
496034
496192
496340
496526
496691
496855
497018
497186
497351
497496
497682
497846
498010
498175
498340
498502
498666
498830
498990
499153
499300
499482
499643
499806
499969
500131
500292
500458
500619
500778
500941
501103
501269
501427
501587
501746
501905
502051
502220
502379
502523
502695
502855
503012
503171
503331
503490
503648
503808
503966
504124
504270
504409
504605
504765
504926
505089
505251
505412
505574
505737
505898
506059
506222
506367
506547
506709
506873
507034
507197
507344
507524
507685
507850
508014
508176
508326
508503
508665
508827
508990
509153
509317
509479
509643
509806
509966
510128
510274
510456
510618
510782
510944
511107
511269
511416
511547
511758
511923
512086
512246
512408
512571
512733
512895
513057
513220
513381
513543
513705
513868
514013
514140
514353
514501
514675
514838
514983
515161
515322
515484
515646
515808
515971
516134
516295
516456
516619
516766
516899
517107
517256
517429
517590
517734
517912
518073
518236
518397
518558
518720
518866
519044
519206
519366
519529
519688
519851
519998
520124
520336
520493
520658
520820
520964
521143
521307
521467
521629
521791
521953
522101
522230
522441
522601
522763
522926
523086
523245
523407
523570
523731
523893
524056
524217
524373
524542
524704
524866
