peaks
75001
75224
75445
75669
75794
76120
76347
76488
76804
77033
77257
77485
77613
77935
78159
78381
78602
78726
79035
79255
79473
79689
79815
80127
80353
80496
80791
81015
81238
81460
81593
81901
82127
82352
82577
82699
82828
83192
83423
83556
83857
84082
84208
84519
84744
84867
85178
85404
85524
85841
86066
86194
86508
86732
86860
87180
87406
87538
87853
88073
88194
88514
88737
88856
89171
89394
89517
89824
90044
90167
90467
90684
90803
91106
91325
91449
91751
91968
92092
92398
92621
92739
93046
93269
93399
93705
93931
94052
94371
94597
94719
95034
95252
95373
95684
95904
96054
96339
96562
96781
96912
97226
97453
97672
97895
98024
98331
98547
98761
98980
99107
99423
99652
99870
100091
100220
100539
100763
100981
101210
101440
101663
101891
102122
102356
102588
102813
103043
103272
103498
103725
103951
104180
104409
104634
104860
104990
105311
105537
105754
105895
106194
106417
106633
106848
106991
107279
107498
107716
107866
108147
108371
108589
108806
109023
109243
109399
109683
109905
110125
110347
110487
110788
111005
111224
111445
111586
111884
112107
112332
112551
112693
112991
113214
113436
113654
113793
114095
114321
114544
114766
114900
115212
115439
115657
115875
116013
116313
116538
116755
116979
117115
117427
117655
117876
118101
118238
118547
118774
118992
119218
119352
119656
119881
120100
120321
120454
120762
120989
121205
121426
121561
121703
122063
122291
122411
122731
122948
123078
123385
123609
123743
124040
124264
124390
124698
124918
125046
125345
125568
125685
125992
126215
126339
126646
126865
126990
127300
127520
127640
127949
128171
128298
128610
128832
128954
129267
129492
129620
129927
130155
130276
130583
130802
131016
131240
131465
131688
131818
132150
132384
132527
132841
133071
133299
133528
133756
133982
134214
134449
134684
134920
135157
135395
135629
135864
136001
136334
136519
136794
136921
137253
137479
137705
137926
138151
138372
138594
138729
139041
139268
139489
139708
139846
140154
140380
140607
140825
140962
141271
141499
141721
141939
142072
142387
142612
142830
143052
143188
143501
143725
143952
144175
144310
144627
144854
145076
145301
145437
145751
145976
146199
146425
146560
146871
147097
147316
147539
147669
147977
148203
148427
148652
148780
149109
149341
149503
149790
150016
150244
150471
150603
150918
151149
151373
151596
151729
152047
152274
152498
152725
152851
153177
153406
153622
153843
153973
154123
154478
154704
154830
155139
155357
155502
155784
155999
156133
156424
156645
156768
157069
157291
157419
157722
157946
158076
158388
158615
158737
159061
159286
159415
159734
159953
160078
160390
160615
160742
161050
161277
161402
161717
161944
162069
162386
162615
162739
163056
163281
163412
163732
163957
164081
164407
164638
164770
165085
165316
165442
165763
165990
166120
166434
166662
166788
167103
167328
167463
167778
168002
168128
168455
168677
168812
169113
169337
169461
169769
169995
170127
170432
170661
170796
171104
171327
171450
171770
171993
172213
172437
172575
172879
173104
173324
173543
173674
173985
174212
174430
174653
174872
175095
175317
175543
175704
175988
176216
176438
176637
176878
177102
177243
177434
177775
178005
178228
178361
178681
178908
179062
179359
179587
179813
180035
180171
180486
180717
180944
181170
181301
181627
181855
182010
182311
182540
182768
182992
183126
183453
183689
183914
184139
184272
184594
184828
184972
185267
185494
185713
185925
186073
186349
186567
186780
186992
187133
187431
187656
187874
188097
188233
188544
188775
189001
189220
189357
189672
189897
190121
190342
190478
190653
190999
191230
191360
191669
191893
192110
192246
192545
192767
192983
193198
193332
193638
193862
194084
194309
194443
194764
194992
195224
195453
195681
195912
196140
196373
196606
196772
197076
197311
197545
197772
197916
198221
198447
198670
198813
199115
199344
199563
199784
200008
200222
200445
200664
200880
201099
201313
201525
201739
201941
202088
202356
202568
202773
202980
203187
203400
203543
203819
204038
204250
204467
204682
204894
205020
205325
205547
205763
205907
206195
206417
206631
206850
207070
207293
207516
207661
207963
208190
208412
208639
208781
209080
209305
209524
209744
209891
210181
210407
210622
210843
210982
211278
211501
211714
211932
212076
212370
212595
212811
213025
213168
213471
213690
213903
214122
214263
214562
214783
215004
215222
215363
215659
215880
216097
216313
216458
216753
216971
217188
217405
217551
217830
218047
218265
218487
218629
218923
219145
219365
219585
219727
220024
220249
220379
220690
220909
221127
221351
221572
221794
221941
222244
222474
222693
222921
223060
223366
223592
223709
224030
224251
224467
224687
224905
225125
225269
225575
225798
226019
226239
226383
226680
226906
227035
227342
227565
227781
227991
228205
228414
228623
228826
229029
229164
229445
229619
229862
230071
230282
230495
230708
230922
231144
231360
231495
231804
232025
232246
232466
232606
232908
233128
233352
233571
233710
233892
234225
234445
234629
234872
235014
235304
235521
235736
235948
236092
236384
236604
236819
237034
237175
237471
237690
237908
238124
238267
238562
238777
238984
239193
239399
239606
239736
240018
240233
240447
240658
240796
241083
241305
241519
241729
241871
242161
242377
242593
242808
242943
243239
243459
243674
243888
244028
244324
244543
244757
244975
245118
245405
245627
245842
246058
246202
246491
246711
246923
247137
247283
247567
247785
247998
248215
248357
248648
248867
249086
249302
249448
249732
249952
250169
250382
250535
250816
251032
251248
251463
251616
251894
252111
252324
252538
252748
252964
253097
253271
253611
253829
254048
254181
254487
254709
254923
255138
255276
255426
255771
255992
256111
256422
256637
256759
257068
257283
257403
257711
257929
258141
258356
258575
258792
258931
259228
259451
259669
259885
260028
260326
260552
260766
260989
261126
261431
261659
261875
262096
262318
262468
262763
262983
263200
263421
263640
263863
264085
264305
264524
264734
264944
265126
265358
265488
265777
265986
266194
266402
266547
266820
267031
267243
267456
267663
267877
268008
268306
268526
268740
268957
269098
269394
269619
269837
270052
270199
270503
270727
270943
271163
271307
271481
271812
272036
272211
272464
272590
272902
273124
273341
273558
273692
273989
274213
274429
274644
274776
275077
275299
275519
275733
275868
276167
276389
276607
276824
276961
277270
277496
277719
277939
278078
278387
278610
278828
279047
279184
279491
279712
279926
280143
280279
280587
280811
281026
281250
281383
281697
281922
282143
282368
282501
282809
283034
283252
283474
283604
283904
284126
284336
284549
284688
284972
285190
285408
285622
285764
286053
286277
286496
286709
286848
287152
287373
287592
287810
287949
288247
288470
288687
288900
289044
289332
289553
289766
289980
290196
290414
290542
290845
291067
291281
291501
291642
291937
292164
292380
292603
292744
292896
293257
293482
293674
293922
294147
294294
294605
294832
295055
295278
295412
295730
295949
296167
296386
296528
296826
297046
297270
297493
297627
297936
298157
298375
298593
298804
299020
299152
299336
299671
299888
300090
300244
300530
300747
300902
301173
301297
301612
301832
302047
302261
302397
302561
302908
303135
303309
303570
303699
304006
304231
304446
304659
304793
305091
305312
305528
305741
305886
306177
306401
306621
306841
306979
307282
307510
307731
307948
308091
308392
308615
308838
309059
309195
309506
309729
309950
310167
310307
310612
310834
311050
311188
311495
311718
311934
312152
312371
312587
312806
312955
313242
313467
313686
313808
314126
314351
314491
314799
315021
315152
315465
315688
315811
316118
316341
316553
316763
316975
317183
317318
317608
317829
318051
318277
318412
318742
318974
319201
319430
319560
319888
320122
320350
320577
320705
320864
321236
321468
321661
321918
322146
322370
322502
322828
323058
323287
323511
323641
323964
324194
324428
324659
324786
325126
325358
325589
325820
325946
326277
326499
326719
326849
327044
327380
327596
327810
328022
328236
328452
328595
328881
329106
329326
329547
329690
329989
330220
330440
330658
330799
331099
331330
331549
331768
331907
332221
332450
332669
332890
333029
333332
333559
333778
333992
334135
334436
334661
334882
335100
335240
335546
335772
335997
336219
336356
336670
336896
337118
337342
337564
337787
338007
338191
338462
338587
338919
339151
339379
339609
339740
339928
340292
340523
340714
340966
341190
341414
341550
341861
342091
342323
342550
342685
343012
343241
343377
343680
343902
344125
344340
344563
344699
345007
345232
345453
345677
345895
346117
346343
346567
346694
347010
347234
347457
347601
347894
348121
348345
348567
348715
349011
349244
349466
349687
349827
350129
350358
350581
350803
350946
351254
351486
351710
351936
352160
352387
352612
352737
353057
353289
353514
353736
353958
354182
354409
354634
354858
355085
355309
355488
355759
355957
356202
356432
356669
356904
357141
357382
357615
357761
358078
358255
358539
358685
358986
359212
359435
359659
359874
360096
360321
360541
360758
360979
361202
361346
361507
361860
362089
362226
362537
362766
362903
363215
363440
363574
363884
364111
364252
364556
364780
364903
365220
365453
365673
365899
366127
366355
366496
366816
367054
367282
367515
367751
367983
368221
368407
368688
368816
369150
369384
369612
369833
369968
370136
370493
370719
370936
371156
371375
371598
371737
372044
372279
372504
372730
372959
373186
373421
373581
373881
374115
374341
374573
374799
375029
375258
375403
375565
375936
376170
376399
376620
376844
377069
377297
377524
377676
377973
378197
378421
378643
378802
379081
379307
379527
379748
379971
380193
380330
380642
380873
381097
381319
381464
381763
381991
382212
382431
382579
382873
383096
383321
383540
383685
383983
384212
384435
384662
384799
385112
385341
385568
385791
385934
386117
386462
386693
386866
387135
387365
387589
387817
388043
388275
388505
388648
388960
389191
389414
389641
389782
390096
390327
390554
390783
390921
391249
391483
391708
391937
392074
392247
392620
392855
393026
393312
393540
393766
393900
394218
394446
394671
394893
395030
395353
395580
395771
396026
396157
396476
396705
396926
397149
397286
397585
397808
398020
398248
398384
398689
398914
399036
399359
399580
399797
400023
400242
400370
400684
400910
401131
401354
401579
401806
401939
402253
402482
402701
402921
403056
403361
403584
403799
404017
404162
404454
404681
404896
405120
405258
405568
405797
406017
406239
406383
406691
406921
407143
407371
407510
407659
408035
408269
408399
408728
408956
409096
409412
409646
409771
410095
410327
410468
410776
411005
411130
411459
411689
411821
412149
412380
412509
412840
413071
413206
413527
413760
413880
414209
414443
414574
414874
415098
415231
415531
415746
415869
416174
416395
416607
416823
417038
417257
417397
417685
417905
418120
418341
418487
418777
419004
419222
419445
419593
419881
420109
420330
420550
420695
420993
421216
421438
421656
421803
422092
422319
422534
422744
422960
423180
423309
423623
423851
424075
424236
424529
424759
424980
425206
425435
425661
425804
426110
426345
426575
426802
426944
427262
427497
427725
427948
428086
428402
428632
428853
429072
429214
429521
429747
429970
430192
430337
430637
430859
431075
431288
431451
431707
431915
432118
432322
432521
432724
432857
433115
433319
433523
433724
433925
434128
434276
434526
434731
434936
435143
435351
435562
435702
435896
436213
436433
436644
436786
437072
437294
437510
437723
437863
438161
438385
438605
438821
438967
439142
439477
439703
439888
440137
440279
440581
440802
441018
441235
441377
441670
441888
442109
442319
442528
442737
442866
443154
443359
443559
443759
443957
444161
444302
444565
444766
444966
445081
445371
445579
445744
445984
446192
446396
446606
446817
447027
447155
447458
447678
447893
448104
448245
448537
448749
448962
449175
449323
449607
449825
450043
450259
450404
450698
450919
451043
451357
451577
451792
452003
452215
452432
452577
452702
453054
453281
453496
453649
453926
454149
454366
454584
454732
455022
455181
455471
455690
455870
456118
456335
456499
456754
456968
457115
457394
457614
457753
458040
458262
458403
458697
458912
459054
459347
459565
459705
459996
460213
460355
460644
460860
461006
461292
461512
461659
461938
462156
462302
462587
462806
462949
463246
463472
463614
463924
464151
464295
464605
464828
464973
465270
465491
465639
465919
466137
466286
466563
466777
466928
467189
467402
467554
467814
468022
468174
468437
468646
468797
469063
469275
469425
469697
469911
470063
470336
470553
470707
470980
471192
471349
471618
471828
471997
472255
472470
472645
472895
473108
473290
473537
473673
473967
474184
474400
474614
474751
475053
475273
475491
475707
475848
476147
476363
476581
476795
476938
477224
477441
477656
477867
478015
478296
478509
478716
478850
479144
479357
479563
479773
479985
480196
480403
480617
480830
480975
481103
481450
481667
481875
482083
482298
482426
482722
482938
483150
483361
483507
483678
484013
484229
484440
484583
484861
485074
485286
485495
485701
485914
486047
486350
486568
486785
487010
487151
487452
487676
487896
488118
488262
488566
488788
489002
489225
489368
489663
489883
490099
490316
490461
490738
490955
491166
491373
491588
491796
491936
492218
492431
492640
492848
493054
493267
493402
493566
493897
494113
494321
494471
494740
494954
495166
495377
495595
495815
495941
496256
496480
496699
496914
497053
497350
497565
497772
497985
498195
498406
498543
498833
499051
499264
499480
499627
499915
500135
500353
500568
500708
501005
501227
501448
501663
501811
502101
502318
502533
502747
502895
503182
503402
503618
503832
503992
504270
504486
504613
504905
505123
505256
505540
505750
505870
506166
506378
506502
506794
507005
507158
507425
507635
507842
508051
508263
508480
508694
508914
509135
509356
509580
509736
510027
510152
510475
510702
510917
511135
511274
511453
511784
511995
512161
512410
512533
512824
513044
513262
513404
513701
513922
514141
514358
514581
514802
515023
515175
515473
515700
515924
516146
516295
516601
516758
517051
517272
517491
517706
517920
518139
518356
518578
518714
519026
519247
519466
519680
519826
520102
520326
520543
520756
520974
521195
521325
521628
521848
522068
522285
522440
522728
522953
523176
523308
523619
523841
524057
524276
524498
524715
524937
