peaks
75059
75218
75380
75545
75663
75883
75997
76211
76327
76535
76657
76854
77014
77177
77342
77510
77683
77861
77971
78229
78338
78585
78707
78939
79057
79283
79453
79620
79786
79955
80127
80305
80436
80666
80787
81027
81147
81374
81491
81714
81884
82053
82223
82398
82576
82754
82933
83110
83288
83465
83644
83824
84002
84179
84358
84535
84713
84892
85068
85243
85420
85596
85772
85945
86118
86287
86457
86629
86801
86976
87152
87329
87506
87681
87857
88031
88201
88374
88546
88721
88895
89070
89247
89425
89602
89776
89949
90120
90290
90460
90629
90799
90969
91139
91310
91481
91651
91822
91993
92164
92335
92507
92681
92855
93031
93206
93382
93559
93735
93911
94087
94258
94430
94600
94770
94938
95107
95276
95446
95617
95788
95960
96128
96298
96468
96638
96807
96974
97144
97314
97484
97654
97822
97990
98159
98326
98493
98658
98828
98999
99170
99337
99509
99675
99840
100008
100179
100348
100517
100688
100857
101025
101193
101365
101538
101713
101888
102060
102231
102401
102572
102742
102914
103082
103255
103427
103596
103765
103931
104099
104267
104435
104603
104768
104933
105097
105258
105420
105586
105754
105923
106091
106261
106431
106605
106782
106959
107132
107303
107471
107636
107804
107975
108139
108308
108478
108648
108820
108982
109147
109314
109480
109646
109815
109983
110152
110326
110501
110676
110848
111020
111190
111358
111527
111692
111857
112024
112188
112356
112525
112694
112862
113029
113197
113363
113529
113697
113867
114037
114208
114381
114555
114731
114904
115076
115248
115418
115584
115757
115926
116098
116270
116444
116618
116791
116963
117127
117300
117468
117637
117807
117977
118148
118320
118493
118667
118842
119017
119192
119366
119535
119708
119877
120046
120213
120380
120547
120715
120882
121051
121219
121390
121559
121731
121906
122079
122253
122428
122603
122778
122951
123122
123293
123463
123635
123805
123976
124146
124317
124490
124659
124832
125007
125172
125341
125509
125680
125846
126012
126173
126332
126492
126650
126807
126964
127121
127278
127437
127598
127757
127915
128074
128237
128402
128516
128740
128857
129072
129194
129399
129558
129716
129874
130036
130197
130358
130520
130689
130864
131044
131169
131398
131514
131734
131899
132059
132218
132380
132547
132718
132887
133053
133220
133381
133548
133709
133869
134026
134187
134343
134501
134664
134782
134992
135107
135318
135479
135638
135795
135952
136112
136275
136443
136608
136776
136943
137114
137283
137452
137624
137794
137960
138128
138295
138465
138631
138798
138965
139123
139287
139442
139602
139758
139911
140065
140220
140374
140538
140700
140865
141031
141198
141365
141532
141703
141878
142050
142222
142396
142566
142744
142918
143091
143266
143441
143619
143797
143975
144152
144326
144507
144685
144862
145044
145225
145408
145591
145773
145952
146125
146303
146478
146657
146835
147014
147192
147372
147551
147729
147908
148081
148261
148435
148610
148784
148956
149128
149299
149469
149643
149816
149992
150165
150338
150512
150683
150855
151026
151198
151371
151543
151716
151889
152062
152235
152404
152581
152751
152922
153094
153262
153430
153599
153768
153937
154108
154277
154447
154615
154785
154957
155128
155300
155473
155645
155817
155989
156158
156326
156493
156661
156829
156996
157165
157331
157497
157667
157834
158000
158168
158337
158507
158678
158850
159022
159193
159366
159540
159714
159887
160060
160233
160405
160577
160750
160920
161089
161260
161432
161606
161780
161950
162122
162292
162462
162632
162802
162972
163142
163311
163483
163653
163825
163997
164167
164338
164509
164679
164849
165018
165186
165354
165524
165695
165866
166036
166209
166384
166558
166731
166907
167084
167259
167427
167602
167772
167941
168111
168280
168452
168622
168793
168958
169128
169296
169465
169636
169809
169981
170154
170324
170493
170662
170828
170993
171156
171320
171485
171654
171824
171996
172172
172347
172523
172700
172871
173050
173220
173396
173566
173736
173905
174070
174239
174407
174576
174693
174909
175022
175238
175402
175564
175721
175880
176040
176195
176349
176504
176655
176807
176959
177111
177262
177410
177565
177716
177867
178019
178173
178328
178489
178653
178817
178982
179152
179321
179486
179655
179820
179985
180149
180316
180485
180652
180816
180978
181139
181300
181464
181626
181798
181970
182143
182316
182488
182660
182828
182996
183164
183332
183505
183680
183855
184031
184208
184385
184561
184738
184915
185089
185263
185436
185608
185780
185951
186122
186292
186464
186636
186808
186981
187156
187326
187502
187672
187843
188010
188177
188342
188471
188675
188798
189004
189168
189329
189492
189651
189814
189979
190144
190309
190474
190640
190806
190973
191137
191299
191461
191621
191783
191946
192108
192269
192434
192597
192759
192920
193079
193236
193394
193550
193705
193856
194011
194159
194310
194460
194613
194761
194911
195059
195209
195355
195509
195659
195810
195956
196108
196259
196411
196564
196673
196867
197021
197172
197323
197472
197621
197770
197917
198067
198217
198368
198520
198673
198824
198977
199131
199285
199436
199587
199741
199894
200044
200194
200342
200491
200639
200789
200935
201078
201226
201368
201513
201656
201797
201938
202082
202227
202369
202510
202650
202792
202933
203073
203214
203356
203496
203636
203776
203916
204053
204192
204328
204470
204606
204747
204882
205020
205154
205293
205427
205565
205700
205836
205973
206109
206227
206381
206494
206655
206793
206928
207062
207197
207308
207467
207605
207742
207881
208019
208156
208292
208403
208564
208700
208838
208948
209111
209248
209383
209518
209654
209790
209928
210060
210197
210331
210467
210603
210738
210849
211009
211125
211283
211400
211557
211693
211831
211970
212109
212248
212389
212531
212674
212814
212955
213096
213235
213377
213517
213627
213797
213913
214076
214188
214353
214491
214627
214763
214903
215014
215180
215319
215460
215575
215739
215857
216021
216129
216299
216437
216576
216716
216857
216964
217139
217252
217421
217562
217704
217847
217990
218134
218280
218422
218566
218714
218860
218967
219151
219262
219438
219582
219724
219865
220007
220148
220292
220408
220586
220702
220878
221023
221162
221305
221448
221592
221737
221856
222034
222145
222321
222464
222605
222750
222893
223036
223183
223290
223475
223589
223770
223918
224062
224206
224352
224464
224649
224765
224945
225091
225236
225376
225522
225634
225811
225932
226101
226244
226390
226536
226687
226795
226993
227098
227288
227435
227580
227723
227866
228009
228156
228264
228458
228566
228756
228869
229046
229191
229333
229473
229614
229757
229903
230010
230193
230303
230481
230624
230765
230907
231048
231187
231328
231437
231613
231726
231896
232037
232178
232318
232458
232572
232742
232852
233027
233168
233310
233452
233594
233705
233882
233986
234164
234305
234443
234584
234722
234829
235002
235098
235284
235424
235565
235708
235855
236001
236147
236251
236444
236554
236740
236847
237030
237174
237317
237460
237610
237725
237915
238026
238221
238373
238522
238671
238825
238933
239134
239242
239438
239554
239741
239851
240033
240180
240329
240483
240639
240795
240950
241106
241264
241376
241585
241699
241898
242053
242205
242358
242515
242672
242824
242974
243125
243276
243427
243577
243726
243872
244020
244164
244311
244424
244602
244712
244890
245033
245173
245312
245456
245598
245743
245888
246033
246176
246323
246436
246618
246728
246908
247033
247192
247303
247473
247611
247753
247891
248028
248168
248310
248421
248593
248708
248875
249014
249151
249261
249427
249539
249703
249816
249976
250111
250247
250382
250516
250653
250788
250900
251061
251170
251333
251445
251605
251709
251873
251985
252137
252244
252400
252510
252663
252768
252923
253054
253182
253296
253441
253549
253699
253803
253959
254088
254216
254344
254473
254581
254731
254839
254988
255115
255242
255367
255493
255618
255743
255868
255992
256117
256241
256364
256490
256597
256738
256851
256988
257097
257233
257336
257474
257596
257718
257840
257964
258085
258207
258328
258450
258556
258694
258802
258940
259063
259183
259305
259430
259553
259676
259800
259923
260044
260165
260287
260408
260530
260652
260771
260896
261003
261138
261247
261381
261490
261626
261748
261870
261979
262115
262222
262361
262472
262609
262721
262859
262970
263106
263211
263352
263457
263598
263722
263846
263952
264095
264194
264344
264452
264594
264695
264845
264970
265095
265220
265346
265474
265601
265730
265834
265989
266119
266247
266374
266501
266628
266755
266858
267005
267111
267255
267380
267506
267608
267671
267738
267889
267982
268065
268259
268350
268419
268472
268628
268712
268776
268992
269087
269161
269349
269449
269585
269703
269820
269938
270062
270168
270314
270441
270568
270675
270825
270927
271079
271189
271329
271428
271582
271692
271834
271929
272085
272189
272333
272427
272582
272687
272833
272926
273085
273189
273336
273430
273590
273703
273843
273940
274094
274199
274346
274445
274597
274703
274849
274955
275104
275209
275361
275466
275619
275725
275879
275973
276136
276241
276394
276495
276654
276754
276919
277016
277185
277283
277450
277548
277714
277817
277978
278076
278240
278347
278505
278607
278772
278871
279037
279139
279301
279432
279564
279696
279828
279960
280095
280199
280369
280486
280642
280744
280913
281032
281181
281279
281448
281582
281715
281852
281986
282090
282252
282356
282521
282632
282790
282889
283057
283189
283321
283450
283583
283687
283851
283964
284118
284227
284385
284500
284653
284757
284923
285035
285189
285298
285452
285582
285712
285821
285978
286073
286243
286377
286511
286620
286779
286878
287048
287156
287314
287413
287578
287695
287843
287939
288107
288218
288372
288468
288635
288744
288900
289009
289162
289271
289422
289551
289682
289812
289945
290055
290212
290320
290475
290607
290737
290848
291000
291099
291262
291394
291520
291655
291781
291886
292041
292168
292293
292398
292544
292645
292797
292906
293048
293141
293297
293405
293549
293647
293801
293907
294052
294149
294306
294410
294561
294656
294817
294920
295071
295165
295326
295437
295579
295675
295833
295937
296088
296183
296344
296455
296600
296694
296858
296967
297112
297209
297367
297479
297623
297721
297880
297986
298054
298262
298357
298425
298640
298735
298892
299014
299138
299261
299387
299494
299641
299756
299902
300010
300165
300295
300428
300530
300697
300797
300964
301067
301230
301330
301493
301596
301758
301854
302024
302138
302290
302386
302556
302659
302821
302918
303082
303193
303342
303441
303602
303713
303860
303987
304116
304229
304374
304473
304635
304752
304897
304996
305156
305271
305415
305513
305673
305788
305934
306031
306195
306304
306458
306556
306723
306828
306987
307082
307248
307350
307505
307601
307765
307871
308024
308123
308282
308394
308542
308646
308803
308913
309061
309158
309318
309428
309576
309678
309833
309938
310087
310194
310340
310447
310594
310701
310853
310962
311109
311208
311364
311471
311619
311720
311874
311981
312127
312255
312380
312509
312637
312764
312890
313019
313147
313276
313405
313535
313664
313793
313922
314051
314180
314308
314438
314569
314698
314800
314958
315064
315216
315325
315474
315603
315732
315861
315989
316095
316249
316356
316508
316610
316766
316880
317023
317131
317277
317404
317531
317659
317786
317900
318045
318150
318305
318435
318564
318674
318824
318932
319082
319200
319339
319435
319598
319712
319857
319958
320117
320227
320373
320472
320632
320743
320891
320985
321147
321255
321403
321498
321659
321768
321915
322013
322169
322278
322423
322524
322675
322785
322927
323052
323176
323285
323427
323539
323679
323791
323934
324034
324187
324292
324438
324538
324693
324802
324948
325074
325201
325328
325456
325584
325712
325840
325967
326095
326223
326352
326481
326611
326742
326875
327006
327136
327266
327396
327528
327659
327791
327922
328056
328187
328319
328450
328582
328714
328845
328975
329106
329236
329368
329500
329632
329731
329896
330010
330158
330262
330418
330547
330676
330781
330936
331040
331194
331303
331451
331558
331709
331813
331968
332065
332225
332327
332484
332584
332741
332847
332995
333094
333248
333358
333498
333603
333748
333857
334000
334099
334252
334359
334504
334603
334758
334867
335012
335113
335264
335373
335515
335615
335767
335872
336020
336121
336274
336377
336528
336622
336783
336893
337037
337131
337292
337393
337545
337641
337799
337911
338053
338151
338308
338419
338566
338662
338827
338929
339087
339181
339342
339452
339601
339698
339861
339971
340119
340230
340377
340478
340634
340742
340890
340998
341140
341265
341390
341515
341643
341747
341901
342011
342156
342283
342410
342539
342666
342773
342924
343036
343183
343293
343440
343536
343701
343801
343961
344055
344221
344321
344482
344577
344745
344847
345005
345100
345265
345376
345526
345624
345787
345890
346044
346171
346300
346408
346561
346653
346824
346955
347087
347216
347347
347478
347609
347710
347871
347984
348131
348239
348392
348519
348650
348757
348913
349006
349176
349307
349438
349569
349702
349803
349966
350068
350229
350334
350490
350594
350753
350855
351015
351145
351274
351403
351534
351637
351799
351910
352060
352189
352321
352425
352588
352686
352855
352965
353123
353223
353386
353518
353650
353782
353913
354020
354176
354284
354438
354569
354702
354808
354934
355103
355205
355372
355467
355637
355739
355904
356005
356168
356267
356431
356526
356691
356796
356952
357050
357210
357315
357466
357572
357726
357834
357984
358084
358239
358355
358502
358604
358760
358862
359014
359139
359263
359385
359509
359632
359751
359876
359994
360116
360235
360340
360474
360581
360709
360826
360942
361040
361174
361288
361402
361517
361632
361746
361861
361976
362092
362194
362325
362430
362561
362667
362800
362905
363040
363150
363282
363383
363525
363630
363768
363872
364012
364117
364257
364352
364504
364614
364751
364848
365000
365102
365246
365342
365492
365600
365739
365862
365983
366105
366226
366332
366473
366582
366724
366850
366976
367105
367232
367360
367488
367616
367745
367874
368002
368129
368256
368382
368510
368638
368766
368894
369023
369152
369281
369409
369539
369669
369800
369929
370058
370187
370316
370415
370573
370682
370831
370959
371084
371186
371338
371448
371591
371701
371846
371949
372099
372209
372351
372445
372605
372715
372860
372955
373114
373223
373366
373461
373619
373725
373870
373976
374121
374230
374371
374475
374623
374727
374877
374977
375132
375241
375360
375522
375651
375780
375908
376040
376171
376302
376434
376567
376701
376834
376966
377099
377232
377365
377497
377630
377730
377897
377993
378161
378265
378421
378556
378686
378816
378947
379079
379210
379343
379475
379608
379742
379875
380010
380143
380277
380411
380545
380679
380811
380944
381077
381210
381343
381477
381609
381742
381873
382006
382139
382272
382405
382536
382667
382798
382931
383064
383196
383328
383461
383595
383728
383862
383996
384100
384260
384362
384522
384654
384784
384916
385047
385154
385311
385412
385573
385705
385837
385946
386103
386203
386366
386497
386629
386762
386895
386998
387161
387261
387427
387532
387600
387660
387730
387946
388045
388204
388314
388459
388563
388719
388850
388980
389093
389241
389344
389504
389637
389767
389871
390031
390128
390291
390424
390555
390687
390819
390922
391084
391187
391348
391457
391614
391710
391878
391985
392144
392238
392408
392511
392677
392779
392945
393044
393211
393316
393478
393580
393745
393850
394013
394114
394280
394382
394551
394652
394819
394925
395087
395190
395352
395451
395618
395728
395884
395990
396147
396258
396410
396518
396671
396785
396933
397063
397193
397322
397452
397562
397719
397818
397983
398115
398245
398375
398506
398638
398770
398875
399032
399134
399294
399401
399559
399661
399828
399962
400095
400229
400360
400494
400627
400729
400899
400999
401167
401267
401432
401540
401698
401799
401962
402091
402221
402352
402483
402617
402750
402885
403020
403156
403291
403427
403564
403702
403837
403973
404108
404243
404374
404508
404643
404779
404914
405047
405180
405315
405453
405589
405727
405865
406004
406141
406278
406414
406551
406687
406823
406960
407096
407232
407369
407507
407643
407779
407916
408051
408185
408321
408456
408590
408725
408859
408993
409125
409256
409387
409518
409649
409781
409913
410046
410176
410308
410440
410572
410705
410839
410975
411110
411245
411379
411515
411652
411791
411928
412066
412203
412338
412473
412607
412743
412878
413014
413148
413282
413416
413551
413684
413818
413951
414085
414191
414350
414455
414613
414743
414873
414990
415134
415235
415395
415508
415657
415759
415921
416024
416183
416283
416443
416552
416704
416799
416965
417069
417224
417320
417483
417594
417744
417838
418005
418114
418268
418363
418528
418635
418790
418887
419051
419156
419311
419411
419572
419672
419837
419935
420100
420203
420361
420469
420626
420725
420894
421031
421165
421301
421439
421574
421711
421844
421985
422088
422258
422362
422532
422669
422805
422938
423072
423202
423342
423444
423614
423717
423882
423991
424148
424282
424415
424551
424688
424825
424962
425099
425235
425371
425507
425645
425783
425923
426062
426202
426342
426480
426618
426757
426896
427034
427169
427305
427443
427551
427717
427817
427990
428125
428260
428394
428533
428637
428807
428924
429084
429196
429360
429477
429637
429741
429913
430050
430185
430322
430460
430598
430736
430842
431018
431123
431295
431436
431574
431715
431855
431961
432135
432239
432414
432553
432692
432830
432968
433073
433246
433349
433523
433661
433798
433934
434070
434205
434343
434447
434619
434736
434894
435027
435161
435295
435432
435535
435710
435819
435986
436123
436260
436395
436533
436638
436811
436914
437085
437223
437359
437494
437630
437734
437903
438021
438173
438282
438442
438556
438715
438821
438987
439123
439260
439396
439535
439675
439813
439953
440090
440198
440366
440465
440643
440782
440917
441052
441186
441289
441455
441555
441722
441856
441988
442120
442251
442357
442517
442619
442782
442917
443049
443161
443316
443420
443584
443687
443851
443985
444119
444227
444387
444490
444656
444793
444929
445064
445200
445306
445472
445577
445743
445880
446015
446149
446283
446388
446559
446661
446837
446976
447115
447253
447394
447496
447663
447815
447957
448097
448236
448376
448516
448657
448799
448906
449084
449191
449366
449507
449645
449784
449923
450063
450202
450306
450487
450597
450770
450910
451049
451187
451326
451465
451607
451715
451796
452031
452126
452200
452275
452453
452555
452727
452828
452998
453131
453266
453403
453542
453652
453826
453929
454109
454227
454389
454493
454673
454814
454955
455097
455238
455380
455523
455668
455810
455953
456099
456204
456375
456539
456683
456826
456969
457112
457255
457399
457544
457688
457834
457980
458125
458270
458415
458559
458704
458850
458993
459137
459282
459424
459566
459709
459853
459995
460137
460280
460421
460563
460706
460848
460991
461134
461275
461416
461557
461700
461841
461984
462126
462266
462409
462550
462692
462834
462977
463116
463257
463396
463535
463674
463816
463953
464091
464227
464364
464498
464635
464741
464905
465005
465168
465300
465430
465548
465691
465797
465951
466081
466208
466312
466463
466569
466722
466827
466981
467110
467241
467352
467505
467606
467776
467912
468048
468185
468323
468462
468601
468740
468879
469019
469157
469296
469434
469535
469710
469813
469984
470092
470255
470389
470524
470661
470796
470901
471071
471174
471345
471452
471618
471729
471890
472004
472159
472272
472430
472538
472699
472813
472968
473078
473237
473340
473508
473618
473781
473877
474051
474187
474324
474429
474605
474711
474885
475023
475160
475299
475440
475545
475724
475827
476009
476152
476294
476438
476584
476690
476878
476979
477149
477316
477459
477603
477747
477890
478032
478175
478319
478465
478611
478760
478910
479058
479205
479352
479499
479646
479793
479940
480081
480229
480372
480517
480660
480802
480944
481086
481227
481368
481510
481648
481790
481933
482073
482212
482353
482494
482634
482772
482916
483056
483195
483332
483476
483617
483758
483897
484037
484178
484319
484460
484602
484744
484888
485031
485175
485314
485460
485604
485747
485888
486029
486168
486308
486448
486588
486726
486866
487005
487142
487282
487421
487559
487696
487835
487942
488117
488223
488398
488536
488674
488810
488947
489051
489221
489327
489494
489601
489766
489901
490037
490173
490310
490414
490585
490688
490862
491002
491141
491249
491419
491520
491697
491836
491974
492114
492250
492389
492529
492638
492816
492916
493098
493239
493379
493518
493659
493803
493945
494051
494231
494337
494517
494626
494806
494907
495089
495200
495370
495474
495648
495786
495923
496063
496205
496315
496496
496599
496784
496927
497069
497209
497353
497463
497643
497747
497929
498070
498210
498350
498492
498596
498763
498920
499062
499202
499343
499485
499627
499769
499914
500061
500207
500355
500504
500653
500804
500955
501108
501254
501402
501550
501698
501845
501991
502138
502284
502430
502575
502721
502866
503011
503154
503297
503441
503584
503725
503863
504001
504138
504277
504416
504557
504696
504837
504977
505116
505255
505391
505533
505672
505811
505950
506089
506227
506365
506504
506642
506781
506920
507058
507196
507333
507472
507610
507750
507887
508026
508164
508302
508440
508579
508717
508855
508993
509130
509266
509403
509540
509677
509814
509950
510086
510220
510356
510492
510628
510765
510901
511036
511173
511310
511447
511583
511721
511858
511994
512129
512266
512402
512539
512677
512813
512950
513088
513227
513366
513505
513644
513785
513926
514069
514211
514312
514497
514606
514784
514927
515069
515211
515354
515496
515639
515784
515928
516032
516212
516316
516499
516642
516783
516925
517067
517208
517352
517462
517643
517748
517932
518076
518218
518361
518503
518648
518793
518938
519080
519226
519369
519511
519655
519800
519946
520059
520238
520341
520528
520671
520813
520958
521102
521248
521392
521538
521684
521831
521977
522125
522270
522416
522562
522710
522856
523004
523151
523298
523445
523590
523737
523883
524024
524168
524308
524453
524597
524742
524887
