peaks
75081
75268
75362
75450
75637
75727
76003
76196
76291
76387
76511
76768
76949
77050
77302
77478
77578
77822
77996
78095
78342
78514
78613
78856
79026
79128
79217
79388
79483
79744
79928
80029
80295
80488
80582
80684
80870
80964
81242
81436
81536
81827
82016
82107
82208
82403
82496
82766
82956
83052
83151
83362
83560
83656
83744
83979
84197
84291
84387
84594
84683
84973
85170
85266
85364
85554
85644
85927
86122
86217
86318
86516
86609
86884
87080
87176
87275
87482
87571
87876
88074
88172
88273
88488
88725
88821
88914
89170
89429
89686
89919
90170
90416
90656
90902
91125
91219
91315
91425
91722
91914
92010
92108
92225
92478
92653
92754
92996
93165
93265
93352
93545
93729
93829
94134
94363
94602
94865
95151
95431
95666
95899
96121
96364
96593
96799
96894
96989
97101
97385
97578
97677
97769
97950
98044
98311
98497
98592
98692
98859
98951
99214
99396
99497
99761
99951
100047
100144
100266
100530
100717
100818
100914
101029
101309
101495
101594
101685
101800
102082
102274
102373
102467
102587
102866
103059
103156
103254
103372
103650
103835
103938
104225
104419
104512
104608
104721
105010
105210
105307
105400
105519
105786
105976
106076
106171
106290
106553
106733
106838
107097
107280
107378
107475
107585
107846
108026
108128
108407
108595
108693
108792
108903
109173
109355
109456
109727
109915
110012
110104
110220
110480
110662
110765
110860
110982
111229
111409
111512
111778
111964
112066
112158
112273
112528
112706
112808
113076
113261
113361
113453
113566
113824
114010
114114
114378
114565
114663
114758
114874
115128
115310
115414
115523
115682
115783
116042
116228
116327
116418
116539
116797
116977
117081
117189
117347
117444
117700
117879
117978
118257
118440
118541
118641
118743
119016
119195
119301
119395
119516
119765
119947
120050
120320
120507
120604
120700
120813
121067
121251
121352
121449
121570
121816
121998
122102
122371
122563
122664
122751
122866
123129
123311
123414
123508
123621
123886
124067
124168
124268
124381
124629
124811
124914
125015
125130
125395
125576
125678
125806
126097
126310
126402
126495
126607
126881
127064
127164
127264
127370
127619
127794
127899
128004
128164
128260
128520
128703
128805
128899
129014
129259
129439
129543
129647
129747
129997
130174
130279
130375
130477
130732
130905
131008
131108
131210
131319
131431
131525
131779
131957
132072
132175
132264
132516
132696
132804
132905
133006
133078
133253
133365
133474
133621
133724
133974
134156
134260
134529
134718
134820
134912
135022
135283
135463
135570
135671
135769
136017
136192
136300
136392
136496
136754
136929
137039
137142
137236
137342
137483
137600
137835
138013
138124
138224
138327
138437
138519
138783
138967
139079
139187
139277
139390
139523
139690
139783
140047
140232
140336
140440
140545
140776
140948
141059
141155
141248
141375
141656
141849
141956
142211
142312
142406
142573
142675
142774
142936
143038
143298
143487
143588
143683
143802
144063
144243
144350
144453
144551
144660
144741
144986
145084
145332
145510
145614
145698
145875
145972
146233
146417
146518
146611
146729
147004
147194
147296
147390
147509
147789
147987
148088
148178
148299
148568
148752
148857
148949
149052
149308
149486
149594
149699
149799
149904
150031
150224
150318
150581
150771
150876
150957
151157
151255
151362
151534
151632
151725
151913
152011
152283
152473
152577
152671
152846
152940
153203
153387
153489
153751
153850
153960
154111
154223
154478
154658
154764
154868
154967
155074
155225
155340
155585
155766
155874
155976
156085
156197
156280
156486
156581
156859
157042
157145
157406
157505
157601
157770
157868
157961
158135
158233
158501
158689
158794
158887
159003
159270
159454
159559
159830
160018
160120
160208
160324
160595
160780
160887
160978
161083
161181
161471
161664
161771
162015
162191
162297
162389
162495
162607
162691
162937
163031
163288
163469
163574
163666
163770
163981
164073
164347
164538
164637
164731
164846
165112
165298
165401
165499
165602
165862
166045
166151
166237
166543
166732
166838
166933
167029
167134
167251
167373
167464
167635
167747
167858
167996
168100
168346
168523
168632
168731
168832
168946
169039
169264
169360
169610
169789
169893
169990
170090
170291
170387
170658
170843
170945
171043
171156
171402
171583
171690
171790
171890
171999
172083
172273
172376
172639
172822
172928
173011
173197
173297
173557
173742
173846
173943
174046
174309
174494
174598
174682
174869
174965
175230
175414
175517
175611
175732
175970
176150
176261
176358
176454
176563
176652
176948
177123
177234
177330
177432
177540
177626
177833
177934
178190
178369
178476
178573
178676
178955
179161
179264
179361
179476
179756
179955
180059
180149
180250
180469
180563
180838
181035
181134
181226
181414
181507
181778
181969
182068
182160
182277
182543
182723
182829
182914
183117
183214
183312
183493
183591
183685
183895
183988
184091
184300
184516
184615
184708
184934
185166
185264
185355
185580
185783
185882
185974
186195
186293
186389
186582
186675
186959
187149
187256
187349
187452
187710
187893
187997
188084
188263
188359
188624
188812
188913
189008
189123
189402
189590
189692
189783
189903
190164
190345
190450
190547
190649
190751
190835
191050
191147
191419
191607
191709
191801
191919
192181
192359
192464
192545
192723
192819
193078
193261
193364
193461
193562
193817
193998
194104
194196
194306
194416
194501
194748
194842
195112
195299
195402
195496
195613
195879
196070
196174
196271
196384
196654
196840
196948
197039
197142
197249
197330
197540
197637
197898
198076
198182
198266
198436
198535
198785
198964
199071
199162
199264
199520
199701
199807
199894
200004
200116
200210
200473
200670
200778
200873
200977
201200
201295
201407
201488
201761
201951
202052
202149
202321
202415
202682
202876
202977
203070
203191
203460
203643
203750
203843
203953
204055
204169
204365
204475
204729
204912
205018
205281
205467
205568
205660
205771
206040
206233
206341
206433
206526
206792
206978
207085
207186
207287
207387
207477
207663
207770
208025
208203
208309
208395
208569
208663
208926
209114
209221
209312
209428
209690
209874
209980
210067
210254
210354
210451
210622
210718
210815
210987
211081
211340
211523
211625
211719
211841
212078
212256
212364
212468
212554
212804
212983
213092
213184
213290
213397
213541
213660
213749
213912
214018
214276
214458
214562
214650
214829
214927
215193
215384
215484
215580
215695
215948
216130
216238
216328
216436
216553
216653
216873
216964
217227
217414
217520
217786
217974
218074
218165
218280
218539
218722
218829
218914
219099
219196
219314
219399
219649
219832
219939
220023
220211
220306
220572
220666
220767
220939
221034
221136
221312
221409
221509
221684
221781
222045
222235
222337
222607
222799
222899
222989
223105
223369
223551
223656
223743
223848
223961
224059
224277
224369
224630
224811
224916
225180
225366
225467
225560
225670
225936
226121
226225
226315
226432
226706
226897
227004
227092
227211
227481
227667
227773
227866
227967
228072
228161
228459
228642
228751
228846
228952
229058
229148
229392
229487
229739
229919
230028
230113
230223
230340
230432
230678
230771
231031
231214
231319
231583
231776
231883
231974
232079
232349
232539
232643
232912
233101
233206
233293
233409
233671
233857
233961
234052
234151
234260
234345
234555
234653
234943
235130
235232
235326
235428
235695
235883
235987
236092
236193
236298
236383
236592
236690
236971
237158
237262
237359
237460
237568
237656
237899
237993
238094
238254
238350
238445
238613
238710
238809
238975
239071
239169
239340
239436
239705
239904
240008
240097
240297
240388
240676
240771
240873
241061
241156
241255
241431
241525
241626
241831
241920
242027
242227
242317
242414
242596
242689
242965
243056
243160
243332
243427
243526
243696
243794
243890
244062
244159
244258
244434
244529
244804
245003
245103
245194
245382
245475
245573
245753
245846
246115
246301
246399
246491
246601
246709
246808
246930
247063
247175
247417
247603
247708
247804
247914
248030
248122
248350
248442
248700
248886
248990
249090
249195
249309
249404
249644
249735
250002
250187
250293
250392
250504
250615
250709
250947
251037
251145
251309
251410
251500
251680
251775
251875
252053
252148
252247
252428
252524
252624
252801
252895
252994
253192
253283
253559
253655
253750
253926
254025
254116
254288
254384
254483
254654
254753
255018
255205
255308
255391
255572
255670
255768
255936
256032
256127
256306
256401
256500
256678
256773
256870
257048
257143
257245
257421
257520
257614
257791
257886
258156
258346
258448
258710
258900
259005
259096
259275
259365
259640
259835
259940
260036
260137
260403
260590
260696
260795
260896
260979
261287
261475
261586
261679
261779
261881
261977
262234
262331
262591
262777
262884
262979
263076
263342
263528
263638
263734
263832
263936
264027
264277
264371
264629
264814
264921
265005
265184
265282
265379
265546
265642
265900
266080
266185
266271
266445
266546
266641
266801
266898
267155
267337
267445
267526
267704
267804
267896
268058
268156
268404
268580
268687
268773
268950
269046
269145
269307
269403
269656
269834
269939
270028
270136
270255
270351
270563
270659
270919
271102
271207
271293
271483
271580
271677
271848
271945
272041
272212
272306
272406
272580
272675
272945
273139
273241
273332
273453
273735
273921
274027
274111
274303
274396
274670
274766
274868
275045
275139
275241
275426
275519
275804
275898
275995
276193
276287
276387
276582
276676
276775
276969
277058
277160
277363
277455
277558
277737
277833
278113
278206
278308
278488
278581
278680
278865
278961
279244
279442
279546
279636
279834
279927
280025
280210
280304
280580
280680
280777
280950
281045
281142
281315
281410
281675
281771
281871
282042
282139
282237
282408
282504
282603
282776
282872
282973
283148
283244
283512
283701
283804
283895
284008
284125
284213
284453
284547
284803
284988
285097
285179
285354
285455
285551
285721
285818
286082
286292
286390
286484
286673
286766
286866
287044
287137
287233
287415
287509
287615
287795
287888
288175
288269
288370
288549
288644
288742
288920
289018
289281
289472
289576
289666
289777
289886
289988
290101
290241
290351
290593
290681
290784
290953
291051
291145
291320
291418
291513
291685
291780
292040
292225
292329
292588
292775
292878
292974
293094
293333
293423
293524
293693
293788
293884
294049
294153
294244
294407
294503
294600
294773
294872
294967
295140
295235
295502
295688
295792
296061
296248
296351
296442
296565
296810
296991
297099
297195
297294
297400
297488
297734
297824
298083
298261
298372
298468
298573
298643
298968
299159
299266
299365
299466
299582
299670
299928
300020
300298
300506
300605
300700
300823
301087
301275
301385
301475
301576
301675
301793
301907
301995
302233
302326
302593
302780
302884
302981
303083
303345
303527
303639
303737
303836
303938
304031
304242
304341
304606
304789
304899
304981
305158
305255
305352
305522
305619
305720
305893
305988
306285
306490
306594
306682
306866
306961
307054
307230
307326
307425
307590
307691
307785
307952
308051
308310
308499
308602
308872
309067
309168
309262
309378
309657
309841
309948
310034
310217
310312
310429
310516
310762
310854
310958
311122
311218
311315
311484
311582
311679
311850
311946
312209
312398
312500
312773
312961
313058
313148
313267
313523
313708
313815
313908
314015
314091
314416
314606
314716
314813
314914
315020
315107
315296
315404
315667
315852
315961
316059
316160
316255
316378
316568
316679
316942
317131
317236
317331
317436
317700
317887
317993
318095
318193
318305
318395
318642
318733
318998
319185
319291
319558
319748
319853
319940
320055
320308
320490
320599
320695
320786
320906
321044
321123
321425
321636
321742
321834
321956
322239
322427
322534
322622
322799
322899
322994
323157
323256
323354
323512
323612
323706
323873
323971
324227
324406
324513
324599
324767
324870
324958
325121
325219
325475
325656
325762
325847
326028
326126
326223
326415
326510
326809
327028
327131
327214
327317
327597
327794
327899
327988
328097
328364
328557
328666
328758
328861
328963
329151
329261
329542
329751
329856
329942
330066
330334
330527
330632
330740
330838
330953
331042
331294
331391
331647
331834
331937
332045
332157
332273
332356
332561
332665
332920
333107
333211
333320
333411
333669
333862
333968
334054
334241
334345
334453
334548
334797
334892
334991
335155
335253
335347
335516
335614
335709
335884
335981
336081
336262
336361
336461
336632
336727
336826
337001
337097
337364
337558
337660
337757
337857
338117
338302
338413
338510
338611
338714
338799
339044
339140
339403
339586
339693
339781
339952
340055
340146
340448
340636
340743
340834
340937
341207
341406
341513
341599
341702
341996
342202
342309
342397
342514
342793
342987
343095
343187
343291
343392
343513
343782
343877
343981
344162
344258
344360
344544
344638
344740
344926
345021
345315
345511
345617
345709
345829
346096
346283
346391
346477
346664
346761
346877
346966
347217
347309
347414
347574
347671
347767
347932
348034
348129
348295
348392
348488
348661
348761
348854
349031
349132
349228
349407
349503
349777
349978
350079
350172
350365
350461
350558
350739
350834
351108
351204
351303
351473
351569
351668
351836
351936
352031
352199
352297
352391
352564
352666
352925
353130
353233
353324
353511
353605
353705
353913
354007
354108
354320
354408
354510
354720
354809
354914
355118
355211
355313
355529
355621
355719
355940
356032
356132
356348
356440
356542
356763
356851
356957
357174
357263
357366
357589
357817
357915
358005
358221
358312
358416
358593
358687
358789
358966
359061
359162
359339
359435
359705
359896
359999
360127
360276
360378
360643
360831
360933
361209
361408
361506
361595
361716
361992
362180
362285
362374
362478
362746
362932
363041
363141
363239
363343
363442
363557
363840
364030
364141
364241
364344
364460
364552
364795
364889
365154
365340
365445
365716
365906
366008
366100
366218
366488
366679
366788
366877
366980
367242
367427
367535
367630
367732
367840
367926
368137
368244
368336
368506
368609
368866
369046
369150
369238
369433
369529
369810
369904
370002
370211
370303
370405
370581
370677
370775
370949
371045
371301
371486
371593
371686
371795
372039
372222
372334
372424
372532
372635
372753
372963
373065
373320
373507
373613
373697
373911
374006
374106
374309
374399
374503
374713
374807
374909
375107
375199
375298
375490
375583
375890
376092
376196
376285
376476
376566
376681
376841
376940
377207
377396
377503
377781
377977
378078
378168
378291
378558
378746
378854
378937
379125
379221
379320
379496
379592
379692
379872
379967
380246
380437
380538
380636
380756
380994
381175
381284
381381
381478
381583
381688
381788
381936
382040
382313
382493
382602
382696
382805
382926
383010
383265
383357
383629
383819
383923
384018
384121
384392
384582
384688
384776
384984
385075
385192
385290
385402
385563
385682
385944
386133
386241
386510
386706
386807
386896
387016
387294
387500
387604
387692
387819
388097
388302
388405
388496
388619
388883
389074
389181
389267
389376
389492
389592
389849
389941
390048
390211
390309
390405
390577
390676
390776
390944
391046
391137
391313
391409
391508
391683
391779
391880
392044
392146
392241
392415
392511
392784
392983
393086
393181
393302
393568
393753
393862
393958
394049
394168
394250
394499
394681
394767
395032
395220
395330
395412
395592
395694
395784
395966
396062
396334
396430
396527
396713
396811
396910
397089
397183
397280
397466
397565
397844
398046
398147
398238
398422
398517
398611
398793
398891
398986
399164
399260
399360
399538
399632
399730
399911
400007
400108
400288
400383
400485
400681
400772
401071
401269
401370
401462
401590
401861
402049
402157
402257
402354
402442
402622
402727
402985
403175
403283
403385
403482
403746
403933
404046
404141
404243
404359
404445
404685
404780
405040
405222
405329
405415
405605
405702
405803
405977
406078
406172
406359
406456
406740
406831
406931
407115
407209
407307
407484
407580
407681
407856
407957
408050
408230
408330
408427
408635
408730
408832
409044
409137
409239
409452
409545
409643
409864
409957
410056
410273
410365
410462
410688
410780
410880
411104
411196
411298
411517
411608
411707
411931
412022
412121
412343
412434
412534
412757
412849
412949
413173
413388
413489
413577
413779
413873
413975
414180
414273
414553
414646
414743
414932
415028
415127
415304
415400
415496
415678
415775
415874
416046
416143
416238
416414
416516
416774
416961
417070
417149
417336
417436
417533
417707
417805
417898
418075
418172
418272
418444
418544
418811
419000
419106
419212
419315
419427
419529
419760
419851
419958
420117
420218
420480
420666
420776
420858
421056
421152
421271
421359
421480
421637
421755
421869
422033
422148
422268
422383
422482
422637
422730
422991
423083
423186
423350
423446
423701
423792
424050
424144
424246
424409
424506
424599
424772
424870
425141
425336
425441
425715
425911
426013
426108
426227
426509
426704
426809
426901
427002
427115
427203
427457
427546
427657
427817
427920
428178
428366
428474
428570
428671
428777
428889
429003
429109
429211
429472
429563
429669
429834
429930
430202
430404
430509
430600
430716
430989
431180
431288
431373
431585
431680
431783
431969
432064
432179
432270
432526
432622
432721
432893
432990
433087
433270
433370
433467
433669
433763
433864
434074
434166
434267
434482
434574
434676
434893
434985
435087
435305
435395
435497
435713
435802
435903
436126
436223
436322
436539
436631
436733
436956
437047
437148
437369
437457
437561
437784
437875
437976
438205
438296
438397
438615
438703
438807
439032
439122
439224
439448
439543
439640
439860
439953
440053
440278
440370
440472
440690
440780
440882
441105
441194
441297
441520
441614
441714
441934
442026
442126
442350
442442
442544
442761
442854
442956
443174
443266
443367
443590
443681
443784
444001
444089
444192
444410
444499
444603
444795
444887
445173
445267
445367
445543
445638
445738
445915
446011
446111
446289
446389
446484
446671
446770
446868
447046
447143
447243
447442
447533
447840
448047
448146
448236
448453
448544
448649
448837
448931
449029
449216
449315
449412
449593
449689
449785
449970
450065
450163
450374
450468
450568
450785
450874
450981
451197
451290
451387
451615
451702
451806
452028
452117
452223
452447
452539
452639
452865
452955
453057
453279
453370
453473
453699
453790
453891
454115
454206
454307
454531
454623
454724
454948
455040
455144
455361
455451
455553
455771
455863
455961
456173
456262
456368
456569
456663
456763
456950
457045
457143
457327
457422
457520
457700
457796
458070
458267
458369
458464
458651
458746
458848
459024
459120
459217
459396
459493
459594
459769
459866
460134
460325
460428
460697
460887
460992
461082
461206
461466
461652
461762
461850
461958
462072
462179
462299
462447
462556
462813
462904
463006
463180
463277
463375
463553
463649
463929
464139
464243
464332
464553
464760
464860
464952
465070
465362
465561
465667
465778
465885
465983
466104
466300
466403
466671
466865
466970
467064
467167
467452
467658
467763
467858
467965
468235
468425
468533
468624
468731
468843
468936
469192
469290
469551
469738
469845
469948
470048
470167
470262
470501
470593
470864
471056
471160
471427
471609
471714
471805
471932
472168
472259
472360
472535
472632
472729
472940
473036
473134
473337
473428
473533
473735
473826
473930
474112
474208
474307
474487
474583
474683
474857
474955
475225
475415
475520
475604
475799
475894
476013
476106
476364
476462
476563
476736
476836
477099
477286
477393
477491
477599
477719
477814
478063
478156
478262
478431
478532
478629
478838
478931
479244
479471
479569
479660
479762
479871
480077
480177
480264
480446
480535
480801
480983
481093
481180
481291
481406
481505
481710
481809
482064
482155
482259
482420
482519
482615
482770
482872
483112
483205
483306
483454
483553
483793
483885
483988
484135
484238
484328
484448
484660
484755
484858
485009
485110
485352
485444
485540
485686
485788
485887
486015
486200
486304
486531
486627
486724
486864
486968
487064
487178
487352
487459
487699
487790
487893
488041
488140
488225
488389
488491
488724
488812
488916
489057
489156
489395
489483
489588
489741
489838
490087
490175
490276
490443
490537
490632
490808
490905
491165
491349
491455
491539
491721
491822
492065
492153
492256
492409
492507
492758
492851
492953
493126
493221
493316
493494
493590
493852
494041
494147
494232
494410
494507
494765
494856
494959
495126
495220
495312
495490
495587
495849
495941
496041
496215
496309
496584
496786
496883
496978
497164
497259
497360
497543
497640
497737
497920
498015
498119
498298
498391
498490
498674
498771
499047
499139
499245
499429
499525
499625
499808
499902
500002
500183
500282
500376
500562
500660
500933
501027
501132
501308
501403
501501
501680
501780
501876
502055
502151
502252
502433
502527
502805
503005
503109
503383
503575
503681
503769
503892
504148
504330
504419
504708
504892
505000
505091
505189
505296
505392
505649
505741
505850
506007
506106
506198
506326
506425
506571
506658
506919
507011
507121
507282
507380
507477
507638
507739
507989
508081
508187
508337
508437
508528
508641
508855
508948
509192
509281
509385
509531
509630
509727
509850
510035
510131
510382
510473
510574
510742
510837
510938
511110
511205
511304
511481
511576
511678
511857
511951
512247
512442
512548
512824
513020
513122
513216
513404
513496
513775
513973
514079
514166
514295
514554
514746
514851
514936
515044
515144
515259
515522
515612
515894
516089
516192
516289
516392
516662
516849
516958
517053
517157
517263
517357
517614
517708
517817
517977
518074
518172
518348
518446
518548
518728
518824
518923
519107
519203
519305
519482
519578
519679
519856
519951
520053
520228
520325
520425
520601
520699
520793
520973
521074
521336
521524
521629
521712
521900
521999
522097
522268
522365
522464
522637
522732
522830
523008
523107
523206
523383
523480
523754
523950
524054
524331
524526
524630
524722
524840
