peaks
75055
75167
75263
75545
75652
75877
75990
76203
76311
76400
76511
76645
76832
76934
77168
77298
77502
77610
77703
77807
77952
78157
78260
78495
78663
78767
79003
79173
79276
79516
79686
79792
80028
80196
80367
80485
80601
80877
81047
81145
81387
81557
81659
81898
82070
82169
82421
82599
82778
82886
82992
83084
83318
83449
83682
83794
84045
84157
84404
84533
84762
84876
85122
85247
85478
85593
85838
85952
86193
86316
86545
86659
86899
87014
87250
87365
87604
87719
87959
88075
88315
88429
88667
88780
89017
89131
89365
89477
89708
89822
90049
90162
90389
90502
90727
90838
91062
91182
91396
91512
91729
91849
92059
92171
92386
92509
92713
92827
92916
93025
93161
93345
93449
93674
93839
93942
94167
94301
94398
94661
94827
94993
95098
95218
95489
95615
95820
95954
96153
96287
96484
96599
96691
96980
97150
97250
97485
97651
97819
97924
98035
98320
98490
98595
98833
99005
99176
99280
99395
99695
99869
100041
100144
100234
100416
100524
100621
100721
100954
101063
101300
101433
101645
101776
101988
102122
102330
102444
102671
102802
103009
103145
103345
103459
103682
103814
104019
104153
104357
104495
104694
104861
104966
105195
105363
105531
105638
105749
106032
106158
106366
106500
106700
106815
107033
107168
107362
107501
107691
107827
108022
108162
108350
108458
108550
108649
108843
108951
109175
109292
109509
109620
109845
109978
110183
110309
110520
110644
110855
110986
111188
111301
111523
111656
111861
111994
112200
112311
112544
112676
112890
113024
113234
113369
113470
113756
113929
114028
114273
114443
114544
114787
114958
115130
115237
115343
115644
115748
115992
116125
116338
116476
116682
116789
117027
117141
117371
117484
117714
117829
118058
118184
118399
118528
118737
118853
119072
119195
119409
119538
119743
119871
120076
120203
120407
120536
120737
120866
121066
121194
121390
121519
121713
121843
122038
122168
122364
122493
122692
122823
123024
123156
123354
123484
123684
123815
124013
124143
124340
124470
124668
124799
124992
125122
125318
125450
125646
125776
125973
126104
126304
126432
126631
126763
126961
127090
127289
127418
127618
127748
127953
128084
128285
128415
128620
128752
128953
129083
129281
129411
129609
129740
129941
130071
130269
130403
130600
130732
130929
131063
131261
131394
131592
131726
131922
132055
132251
132385
132578
132715
132908
133042
133236
133374
133569
133705
133900
134036
134232
134367
134503
134730
134875
134979
135116
135390
135520
135720
135827
135921
136016
136147
136360
136463
136693
136825
137027
137134
137223
137323
137523
137632
137854
137964
138185
138294
138379
138481
138625
138827
138933
139162
139291
139499
139606
139696
139795
139890
140166
140333
140436
140568
140696
140976
141107
141321
141450
141647
141753
141845
141948
142076
142176
142431
142538
142756
142863
142953
143054
143184
143291
143532
143638
143854
143960
144051
144153
144279
144387
144516
144792
144958
145119
145240
145356
145608
145768
145931
146039
146149
146282
146577
146693
146909
147016
147237
147349
147569
147694
147897
148003
148091
148194
148383
148489
148704
148813
148904
148999
149143
149342
149444
149668
149831
149937
150160
150324
150426
150652
150815
150916
151139
151300
151459
151570
151682
151940
152067
152263
152369
152458
152733
152898
153002
153217
153378
153480
153697
153856
154015
154129
154236
154490
154649
154808
154917
155023
155281
155407
155599
155710
155918
156049
156230
156336
156426
156702
156858
157021
157125
157218
157491
157616
157809
157934
158032
158140
158282
158380
158518
158792
158940
159144
159274
159467
159571
159785
159914
160103
160228
160417
160524
160614
160895
161013
161216
161322
161539
161667
161859
161965
162053
162149
162342
162447
162662
162775
162984
163107
163308
163412
163504
163792
163909
164119
164223
164443
164572
164762
164866
164960
165230
165397
165502
165715
165874
165976
166193
166330
166420
166674
166833
166994
167105
167214
167485
167649
167815
167923
168031
168134
168448
168566
168785
168892
169116
169228
169445
169570
169775
169881
169972
170262
170432
170534
170764
170931
171033
171260
171426
171527
171757
171922
172022
172254
172422
172591
172698
172809
173105
173233
173451
173584
173796
173932
174136
174242
174335
174644
174772
174984
175089
175179
175472
175645
175747
175972
176135
176235
176456
176620
176783
176895
177004
177275
177403
177606
177716
177817
178096
178262
178362
178587
178749
178850
179071
179233
179331
179557
179720
179882
179991
180102
180371
180500
180700
180812
180900
181187
181352
181513
181622
181736
181870
181988
182256
182448
182551
182653
182922
183047
183250
183378
183568
183695
183883
184023
184203
184340
184524
184664
184849
184990
185178
185318
185506
185648
185836
185970
186163
186306
186492
186633
186821
186963
187152
187258
187361
187654
187824
187922
188165
188333
188433
188677
188848
188947
189188
189358
189457
189698
189870
190041
190150
190382
190556
190658
190907
191082
191183
191425
191599
191700
191945
192116
192216
192452
192620
192788
192894
193005
193289
193418
193628
193759
193961
194096
194294
194430
194631
194768
194966
195102
195303
195440
195639
195776
195976
196112
196312
196447
196647
196785
196983
197119
197312
197452
197643
197785
197972
198110
198303
198444
198631
198776
198961
199098
199293
199435
199623
199766
199954
200098
200280
200390
200484
200775
200941
201105
201213
201434
201567
201765
201900
202093
202198
202293
202574
202748
202848
203072
203235
203333
203560
203694
203782
204054
204218
204382
204491
204591
204880
205010
205218
205352
205459
205727
205842
206067
206202
206410
206518
206755
206886
207102
207239
207447
207556
207791
207920
208130
208260
208470
208601
208806
208936
209138
209271
209467
209602
209799
209934
210126
210264
210451
210595
210778
210890
210983
211264
211373
211592
211700
211918
212026
212244
212352
212568
212676
212890
212998
213210
213319
213528
213637
213845
213952
214159
214269
214472
214596
214790
214899
214985
215247
215409
215580
215684
215778
216035
216156
216360
216465
216671
216796
216981
217086
217292
217416
217602
217713
217918
218042
218230
218338
218425
218703
218854
219026
219129
219347
219461
219669
219793
219922
220021
220303
220428
220635
220742
220955
221072
221272
221380
221590
221708
221909
222014
222105
222200
222337
222446
222549
222649
222779
222887
223139
223243
223467
223589
223797
223896
223996
224089
224286
224392
224609
224728
224933
225030
225128
225415
225532
225738
225842
226063
226189
226383
226490
226581
226854
226973
227181
227286
227502
227621
227819
227923
228014
228115
228242
228361
228478
228761
228924
229083
229194
229402
229507
229725
229852
230046
230150
230242
230531
230659
230862
230970
231196
231319
231527
231633
231722
231821
232023
232128
232349
232459
232676
232784
233002
233108
233325
233433
233650
233757
233846
234123
234229
234452
234559
234774
234880
234969
235238
235344
235567
235675
235884
235989
236078
236352
236456
236673
236778
236867
237145
237250
237464
237571
237659
237931
238036
238253
238358
238566
238683
238878
238983
239081
239346
239463
239664
239767
239859
240124
240239
240444
240546
240637
240898
241014
241215
241318
241410
241672
241789
241989
242090
242183
242442
242559
242760
242864
242956
243210
243326
243522
243624
243719
243979
244096
244289
244392
244487
244746
244904
245009
245215
245367
245519
245639
245793
245987
246090
246191
246456
246580
246771
246879
246972
247235
247356
247552
247655
247746
248005
248110
248329
248450
248637
248741
248839
249092
249196
249405
249531
249714
249820
249918
250169
250288
250483
250586
250682
250936
251064
251246
251349
251445
251699
251816
252007
252110
252202
252458
252586
252768
252871
252968
253223
253329
253531
253650
253834
253940
254040
254294
254400
254606
254723
254919
255022
255116
255383
255498
255699
255804
255901
256170
256285
256485
256589
256681
256959
257076
257278
257380
257471
257570
257750
257856
258067
258185
258387
258491
258590
258686
258816
258928
259169
259287
259489
259595
259702
259960
260065
260274
260379
260472
260737
260842
261053
261159
261257
261525
261628
261839
261944
262041
262303
262406
262617
262722
262816
263082
263184
263396
263501
263598
263862
263963
264178
264284
264378
264507
264771
264940
265106
265214
265359
265484
265617
265873
266043
266144
266283
266409
266666
266793
266976
267082
267192
267436
267538
267747
267869
268054
268157
268256
268515
268619
268833
268958
269142
269247
269352
269619
269725
269939
270059
270255
270357
270457
270725
270830
271042
271147
271242
271500
271603
271812
271919
272012
272270
272373
272586
272704
272889
272992
273095
273225
273334
273589
273702
273931
274060
274232
274335
274448
274686
274791
274989
275118
275290
275393
275498
275742
275861
276047
276150
276248
276500
276618
276807
276910
277009
277265
277380
277573
277675
277771
278036
278152
278345
278446
278539
278803
278906
279113
279231
279424
279527
279620
279883
279987
280194
280311
280507
280612
280705
280963
281068
281274
281389
281580
281683
281777
282034
282149
282343
282447
282539
282802
282921
283119
283221
283314
283586
283702
283906
284009
284099
284376
284491
284691
284795
284885
285173
285289
285502
285605
285693
285786
285987
286092
286313
286420
286507
286601
286800
286903
287122
287227
287313
287412
287609
287713
287939
288043
288134
288227
288431
288536
288762
288868
288982
289080
289214
289406
289508
289739
289843
289968
290098
290396
290499
290726
290831
290938
291039
291214
291322
291537
291643
291754
291850
291985
292140
292233
292499
292605
292821
292924
293026
293299
293401
293506
293775
293876
293968
294059
294247
294351
294467
294598
294695
294818
295011
295112
295331
295434
295538
295633
295762
295909
296116
296225
296435
296540
296665
296764
297063
297181
297378
297484
297589
297682
297812
297994
298099
298302
298405
298524
298620
298758
298873
299010
299105
299218
299326
299441
299705
299806
300017
300119
300218
300315
300452
300555
300785
300889
301089
301193
301321
301422
301708
301826
302023
302130
302234
302331
302462
302641
302742
302951
303056
303165
303255
303383
303567
303671
303886
303991
304094
304191
304339
304452
304687
304794
305009
305115
305225
305320
305453
305639
305743
305958
306060
306166
306443
306544
306767
306869
306958
307242
307345
307562
307666
307760
308028
308128
308343
308447
308543
308809
308909
309127
309228
309437
309541
309749
309874
309989
310144
310235
310366
310476
310588
310854
310957
311175
311276
311493
311596
311690
311971
312073
312295
312399
312617
312742
312938
313041
313135
313415
313521
313741
313864
314061
314164
314382
314505
314704
314808
315028
315155
315351
315454
315675
315802
316000
316105
316206
316283
316480
316583
316797
316903
317119
317223
317438
317542
317763
317869
318096
318223
318428
318532
318761
318887
319089
319195
319421
319529
319749
319854
320071
320175
320395
320505
320720
320826
321045
321150
321238
321335
321527
321631
321722
322007
322112
322327
322429
322534
322806
322911
323128
323229
323339
323469
323562
323683
323914
324015
324229
324335
324433
324697
324798
325012
325116
325224
325349
325431
325637
325743
325949
326053
326163
326416
326518
326731
326836
326938
327068
327168
327305
327455
327539
327792
327950
328045
328260
328384
328571
328675
328774
329034
329139
329352
329457
329549
329811
329915
330128
330233
330328
330593
330716
330920
331021
331118
331390
331516
331711
331813
331907
332179
332343
332445
332655
332782
332970
333074
333173
333436
333562
333755
333859
333959
334222
334352
334539
334642
334755
335013
335117
335327
335452
335642
335746
335861
336117
336222
336436
336564
336756
336859
336955
337045
337238
337343
337444
337716
337837
338036
338138
338241
338339
338465
338577
338816
338936
339023
339295
339419
339619
339724
339853
339989
340264
340391
340586
340690
340806
341065
341168
341384
341510
341701
341806
341920
342187
342291
342508
342613
342715
342992
343117
343318
343420
343520
343798
343903
344122
344228
344320
344599
344705
344927
345031
345125
345399
345519
345726
345828
345923
346019
346202
346303
346519
346626
346719
346997
347102
347315
347420
347508
347794
347910
348114
348217
348307
348408
348589
348692
348898
349002
349095
349195
349374
349476
349689
349795
349890
350165
350272
350486
350593
350684
350816
351108
351233
351434
351537
351635
351908
352033
352225
352331
352426
352697
352806
353020
353124
353217
353493
353621
353820
353926
354020
354293
354398
354614
354720
354811
354940
355232
355355
355564
355668
355891
356019
356219
356323
356416
356703
356829
357027
357130
357226
357493
357621
357821
357922
358019
358286
358414
358613
358716
358815
359074
359209
359405
359510
359610
359877
360002
360193
360298
360397
360658
360784
360977
361080
361182
361446
361573
361765
361870
361967
362237
362362
362549
362652
362751
363018
363136
363349
363475
363669
363772
363870
364135
364263
364464
364572
364663
364919
365038
365249
365355
365442
365693
365810
366023
366127
366219
366461
366577
366788
366895
366988
367109
367352
367477
367689
367811
367987
368089
368187
368434
368556
368741
368845
368935
369191
369309
369502
369606
369697
369953
370080
370263
370366
370460
370720
370845
371030
371131
371223
371487
371616
371804
371905
372109
372226
372417
372520
372728
372844
373036
373139
373344
373455
373648
373755
373846
373940
374072
374172
374305
374395
374664
374780
375014
375131
375325
375427
375521
375614
375746
375842
376075
376189
376384
376487
376584
376850
376953
377175
377291
377493
377596
377687
377783
377875
378096
378211
378352
378509
378591
378736
378839
379048
379149
379360
379461
379553
379651
379777
379917
380130
380234
380450
380551
380642
380736
380869
380983
381092
381365
381480
381695
381797
381888
381989
382111
382220
382341
382467
382719
382842
382917
383054
383147
383378
383481
383690
383793
383889
383983
384107
384293
384393
384607
384708
384799
385079
385180
385400
385503
385722
385826
385919
386043
386134
386346
386451
386673
386778
386867
386965
387164
387265
387488
387603
387813
387916
388008
388102
388305
388408
388631
388744
388956
389060
389152
389254
389444
389546
389766
389869
389954
390054
390247
390348
390570
390676
390766
390857
391051
391154
391370
391474
391570
391850
391952
392169
392272
392368
392494
392599
392741
392842
393074
393177
393270
393547
393647
393871
393973
394069
394346
394448
394672
394794
394988
395090
395197
395462
395564
395779
395901
396095
396197
396302
396566
396692
396890
396991
397092
397344
397469
397674
397775
397985
398108
398295
398395
398485
398751
398875
399089
399214
399404
399505
399598
399867
399990
400199
400327
400514
400618
400717
400981
401106
401303
401431
401619
401726
401821
402089
402208
402410
402530
402725
402831
402929
403197
403312
403515
403620
403709
403984
404107
404298
404401
404501
404773
404888
405089
405189
405290
405557
405672
405869
405971
406074
406332
406436
406643
406748
406849
406978
407067
407194
407300
407556
407673
407875
407978
408079
408177
408305
408403
408656
408773
408973
409075
409182
409311
409401
409603
409722
409924
410027
410135
410417
410531
410746
410848
410943
411038
411247
411350
411580
411685
411774
411872
411980
412236
412337
412562
412663
412762
413040
413143
413373
413474
413693
413796
413889
414159
414261
414489
414604
414801
414904
415006
415133
415223
415349
415458
415587
415859
415973
416069
416340
416471
416659
416762
416864
417131
417235
417447
417552
417642
417742
417878
417985
418093
418219
418338
418608
418726
418961
419082
419277
419378
419470
419568
419693
419807
420042
420145
420359
420462
420555
420653
420786
420885
421145
421260
421477
421579
421670
421763
421973
422089
422303
422405
422493
422590
422798
422902
423130
423245
423461
423563
423658
423753
423959
424062
424289
424393
424488
424772
424877
425101
425203
425303
425585
425691
425912
426015
426119
426396
426498
426720
426834
426926
427195
427357
427455
427672
427795
427991
428093
428206
428334
428425
428550
428655
428910
429027
429225
429326
429429
429697
429812
430012
430114
430217
430473
430588
430789
430891
430993
431253
431367
431565
431666
431765
432026
432140
432341
432444
432533
432633
432757
432859
433103
433217
433415
433520
433612
433713
433835
433940
434182
434296
434501
434604
434700
434800
434924
435029
435273
435390
435592
435695
435795
436067
436180
436382
436483
436575
436669
436853
436957
437170
437285
437482
437585
437680
437956
438069
438279
438381
438470
438559
438755
438859
439071
439184
439391
439494
439589
439870
439985
440191
440295
440383
440484
440670
440774
440989
441105
441306
441408
441503
441787
441901
442109
442210
442300
442393
442593
442696
442918
443032
443242
443343
443439
443530
443729
443833
444057
444170
444381
444484
444585
444710
444816
444954
445057
445308
445426
445639
445741
445849
446127
446229
446453
446569
446772
446877
446975
447253
447357
447579
447703
447904
448008
448107
448389
448496
448719
448843
449047
449149
449243
449533
449649
449867
449971
450059
450157
450367
450493
450698
450802
450894
450991
451196
451300
451530
451647
451864
451965
452057
452152
452360
452464
452695
452799
452886
452986
453195
453299
453534
453653
453872
453974
454071
454160
454372
454475
454705
454813
454898
455003
455214
455318
455552
455669
455892
455997
456097
456404
456506
456741
456844
456933
457076
457228
457307
457574
457676
457901
458003
458102
458401
458505
458737
458840
458927
459053
459243
459345
459582
459686
459777
459922
460080
460181
460412
460516
460605
460705
460920
461024
461258
461362
461599
461702
461792
461893
462106
462208
462440
462543
462630
462732
462941
463044
463275
463378
463468
463564
463771
463876
464102
464205
464300
464397
464600
464706
464934
465061
465276
465378
465474
465794
465918
466142
466246
466332
466432
466658
466787
466998
467101
467196
467294
467494
467595
467821
467923
468015
468111
468308
468409
468631
468754
468956
469059
469165
469449
469573
469779
469880
469978
470271
470397
470603
470705
470803
471090
471217
471418
471521
471621
471908
472031
472236
472341
472438
472728
472854
473059
473163
473259
473547
473671
473877
473982
474075
474361
474486
474685
474788
474891
475177
475304
475513
475618
475712
476011
476138
476346
476449
476544
476842
476969
477177
477279
477371
477668
477796
477998
478099
478201
478474
478599
478801
478904
479005
479293
479419
479624
479726
479822
480116
480244
480448
480554
480647
480938
481066
481269
481373
481468
481760
481889
482089
482195
482290
482579
482706
482908
483012
483107
483399
483530
483733
483840
483936
484219
484346
484550
484685
484881
484985
485085
485377
485546
485663
485889
486060
486160
486400
486533
486621
486919
487095
487270
487369
487470
487789
487914
488139
488272
488483
488617
488824
488962
489159
489266
489362
489659
489766
489994
490126
490321
490427
490526
490813
490919
491146
491277
491474
491575
491687
491967
492094
492296
492403
492498
492780
492908
493111
493219
493314
493598
493763
493862
494092
494257
494423
494529
494679
494805
495082
495209
495413
495547
495744
495877
496072
496207
496402
496538
496740
496881
497074
497213
497406
497541
497741
497880
498081
498218
498415
498550
498750
498878
499095
499228
499438
499572
499781
499919
500121
500259
500461
500600
500798
500937
501137
501276
501477
501583
501680
501817
501914
502158
502283
502497
502628
502719
503008
503114
503349
503461
503692
503807
504039
504151
504381
504494
504724
504854
505068
505200
505410
505541
505634
505915
506021
506254
506365
506591
506699
506925
507047
507261
507368
507462
507609
507717
507938
508105
508206
508440
508609
508778
508879
509038
509291
509417
509520
509804
509977
510146
510311
510411
510646
510816
510986
511087
511211
511497
511630
511840
511974
512092
512352
512525
512695
512796
512899
513192
513369
513537
513638
513755
514035
514162
514371
514537
514637
514870
515037
515203
515305
515424
515546
515833
515959
516194
516324
516411
516689
516856
517020
517126
517254
517375
517489
517627
517813
517919
518158
518286
518507
518635
518851
518979
519075
519185
519334
519441
519550
519835
519960
520163
520290
520489
520621
520823
520949
521154
521282
521486
521614
521825
521993
522095
522327
522492
522592
522827
522996
523096
523330
523499
523599
523843
524016
524190
524293
524406
524705
524876
