peaks
75191
75459
75722
75981
76252
76525
76788
77061
77333
77608
77868
78145
78413
78675
78946
79216
79471
79742
80012
80274
80529
80785
81029
81262
81492
81719
81941
82159
82375
82590
82812
83034
83278
83523
83776
84032
84300
84576
84848
85127
85407
85691
85968
86251
86532
86810
87085
87360
87627
87888
88144
88404
88663
88914
89173
89427
89683
89935
90195
90450
90699
90954
91206
91458
91705
91952
92200
92445
92695
92943
93191
93439
93691
93941
94192
94442
94689
94939
95179
95420
95656
95890
96123
96361
96606
96849
97093
97345
97596
97847
98091
98344
98589
98834
99074
99317
99558
99798
100038
100278
100518
100756
100987
101229
101466
101711
101953
102205
102461
102715
102971
103230
103490
103746
103998
104254
104512
104766
105026
105293
105562
105824
106087
106350
106608
106858
107113
107366
107619
107864
108121
108378
108635
108887
109141
109396
109644
109890
110139
110388
110631
110863
111088
111312
111546
111775
112008
112242
112474
112717
112959
113203
113453
113706
113960
114208
114459
114704
114945
115181
115412
115639
115877
116116
116354
116594
116839
117020
117304
117570
117833
118093
118362
118629
118887
119156
119421
119681
119933
120196
120456
120706
120963
121224
121482
121737
122005
122263
122515
122777
123040
123297
123546
123811
124075
124334
124588
124854
125116
125367
125623
125876
126124
126378
126633
126885
127135
127402
127665
127919
128175
128432
128680
128918
129160
129398
129625
129853
130077
130290
130502
130717
130928
131152
131371
131605
131846
132086
132340
132597
132858
133118
133386
133653
133910
134169
134421
134677
134927
135187
135446
135698
135956
136215
136476
136732
137000
137270
137540
137815
138092
138363
138639
138915
139185
139459
139731
140000
140263
140528
140788
141049
141318
141581
141837
142086
142337
142585
142830
143076
143324
143571
143818
144077
144341
144601
144864
145130
145394
145654
145918
146184
146443
146699
146960
147227
147484
147744
148012
148276
148538
148801
149065
149324
149581
149843
150105
150362
150624
150887
151146
151404
151665
151929
152189
152448
152710
152971
153230
153489
153752
154006
154263
154519
154776
155026
155281
155538
155786
156035
156283
156531
156774
157018
157268
157522
157773
158035
158308
158577
158857
159150
159437
159719
160009
160295
160571
160844
161121
161398
161666
161946
162233
162513
162786
163065
163343
163617
163892
164178
164457
164738
165024
165312
165586
165869
166150
166430
166711
166999
167274
167548
167821
168094
168359
168625
168890
169149
169409
169669
169931
170183
170438
170688
170934
171176
171421
171670
171917
172165
172419
172660
172933
173192
173454
173708
173958
174212
174472
174723
174985
175245
175505
175759
176015
176272
176520
176771
177018
177269
177517
177766
178015
178259
178500
178743
178988
179231
179464
179713
179957
180201
180445
180696
180944
181185
181431
181673
181912
182142
182381
182624
182858
183092
183337
183577
183819
184067
184319
184567
184811
185058
185305
185554
185795
186047
186293
186542
186787
187044
187305
187560
187814
188068
188276
188581
188832
189088
189343
189597
189851
190112
190373
190630
190892
191151
191408
191661
191922
192186
192445
192710
192980
193250
193522
193799
194077
194348
194629
194910
195184
195458
195736
196006
196272
196539
196804
197070
197340
197617
197884
198148
198415
198687
198954
199227
199500
199772
200039
200313
200593
200866
201147
201429
201709
201981
202263
202542
202818
203094
203371
203637
203912
204187
204456
204729
204999
205262
205528
205800
206065
206332
206595
206864
207122
207388
207652
207920
208183
208456
208729
208998
209272
209550
209829
210105
210389
210669
210939
211201
211458
211700
211939
212165
212390
212612
212836
213069
213301
213530
213767
214005
214245
214496
214750
215009
215271
215541
215810
216081
216342
216599
216847
217093
217336
217577
217823
218070
218325
218582
218841
219113
219378
219637
219891
220147
220402
220657
220917
221185
221449
221719
221992
222263
222528
222794
223060
223323
223586
223851
224118
224380
224643
224909
225175
225433
225693
225959
226213
226471
226726
226981
227230
227477
227718
227954
228186
228425
228663
228898
229142
229396
229646
229902
230161
230420
230672
230932
231178
231422
231667
231901
232158
232413
232668
232929
233194
233458
233726
233998
234267
234534
234799
235069
235333
235600
235865
236132
236394
236657
236922
237187
237449
237714
237981
238242
238509
238773
239035
239290
239543
239794
240038
240292
240539
240788
241035
241296
241560
241822
242098
242380
242661
242934
243220
243498
243770
244039
244314
244581
244855
245130
245402
245673
245947
246217
246483
246758
247035
247311
247589
247871
248148
248426
248701
248978
249243
249509
249767
250024
250284
250552
250821
251084
251364
251643
251918
252203
252491
252765
253051
253335
253611
253885
254163
254438
254710
254983
255250
255503
255758
256009
256254
256501
256744
256992
257240
257500
257762
258022
258293
258561
258828
259096
259368
259630
259891
260157
260420
260673
260932
261197
261460
261729
261999
262267
262534
262797
263054
263315
263579
263843
264104
264376
264645
264913
265179
265449
265725
265992
266260
266526
266796
267061
267338
267614
267883
268159
268435
268703
268979
269257
269525
269797
270067
270332
270599
270866
271133
271397
271663
271928
272190
272450
272718
272983
273242
273506
273775
274032
274289
274545
274798
275046
275297
275550
275800
276047
276297
276545
276793
277043
277305
277566
277823
278086
278359
278623
278886
279148
279414
279663
279904
280143
280371
280597
280814
281026
281241
281455
281662
281866
282066
282268
282467
282660
282854
283046
283234
283422
283614
283800
283988
284176
284363
284551
284742
284932
285129
285329
285526
285727
285931
286136
286345
286553
286768
286985
287204
287423
287650
287875
288102
288330
288558
288794
289025
289261
289497
289730
289964
290196
290436
290667
290896
291131
291365
291598
291830
292066
292305
292537
292776
293012
293250
293484
293717
293954
294184
294417
294649
294879
295109
295340
295573
295804
296032
296267
296498
296730
296963
297195
297431
297663
297898
298137
298376
298611
298843
299078
299316
299547
299786
300026
300269
300503
300750
301000
301249
301500
301753
302005
302249
302496
302743
302991
303237
303495
303760
304022
304290
304557
304830
305099
305375
305651
305921
306195
306470
306741
307014
307291
307564
307837
308116
308397
308672
308953
309225
309498
309766
310050
310341
310629
310926
311221
311508
311788
312071
312354
312629
312910
313193
313472
313753
314040
314330
314609
314894
315180
315458
315743
316028
316309
316595
316878
317157
317426
317699
317967
318230
318497
318761
319015
319275
319532
319788
320043
320304
320570
320831
321093
321360
321631
321891
322165
322438
322710
322977
323252
323529
323798
324081
324371
324657
324938
325228
325520
325798
326081
326371
326652
326937
327223
327511
327780
328058
328332
328601
328874
329157
329430
329717
330001
330285
330569
330862
331147
331439
331729
332023
332311
332601
332887
333172
333457
333750
334021
334308
334587
334862
335137
335420
335689
335960
336240
336520
336788
337066
337344
337611
337891
338173
338447
338722
339004
339282
339551
339833
340116
340380
340655
340934
341210
341479
341752
342020
342279
342553
342823
343089
343338
343590
343827
344059
344283
344497
344711
344923
345134
345355
345577
345819
346063
346328
346546
346876
347156
347442
347727
348000
348269
348536
348799
349057
349327
349593
349853
350120
350387
350646
350902
351154
351399
351638
351884
352135
352387
352640
352902
353166
353431
353699
353967
354231
354492
354756
355026
355292
355554
355822
356092
356358
356630
356912
357188
357464
357742
358025
358296
358555
358810
359061
359309
359553
359802
360051
360308
360563
360830
361101
361370
361645
361918
362183
362456
362731
362997
363264
363530
363796
364053
364311
364561
364807
365044
365284
365519
365744
365969
366188
366403
366618
366834
367055
367292
367535
367789
368040
368315
368603
368896
369195
369498
369795
370088
370385
370691
370976
371275
371575
371868
372157
372452
372735
373016
373303
373593
373865
374158
374443
374731
375009
375305
375592
375872
376164
376458
376740
377023
377309
377591
377873
378159
378443
378719
378996
379273
379539
379812
380079
380343
380608
380874
381147
381409
381683
381957
382222
382488
382764
383039
383309
383585
383769
384125
384397
384670
384939
385201
385471
385745
386008
386275
386554
386832
387100
387379
387660
387933
388205
388484
388767
389034
389316
389603
389871
390138
390414
390692
390960
391233
391510
391771
392032
392306
392576
392841
393120
393401
393680
393957
394237
394515
394784
395054
395324
395587
395850
396124
396395
396661
396940
397220
397491
397770
398052
398330
398603
398879
399156
399420
399693
399969
400236
400505
400777
401045
401311
401583
401855
402113
402366
402621
402874
403119
403369
403628
403874
404127
404391
404664
404931
405215
405502
405785
406067
406363
406657
406938
407233
407524
407806
408090
408377
408655
408931
409215
409498
409768
410049
410331
410603
410885
411172
411451
411734
412016
412299
412573
412694
413096
413254
413633
413919
414180
414429
414673
414902
415124
415340
415554
415761
415965
416166
416371
416569
416771
416975
417181
417398
417619
417845
418070
418293
418528
418759
418992
419239
419476
419718
419953
420202
420452
420699
420947
421202
421458
421709
421968
422228
422481
422742
423005
423269
423524
423792
424056
424314
424581
424849
425108
425368
425634
425898
426158
426425
426692
426951
427221
427492
427755
428027
428301
428568
428834
429110
429385
429653
429923
430201
430470
430737
431009
431286
431552
431831
432106
432380
432645
432919
433192
433457
433727
433988
434235
434481
434720
434950
435186
435415
435651
435887
436138
436398
436658
436918
437191
437462
437727
437989
438258
438522
438782
439041
439305
439563
439822
440083
440345
440609
440863
441118
441365
441617
441866
442119
442373
442629
442891
443152
443423
443688
443953
444217
444491
444761
445032
445302
445565
445821
446079
446338
446592
446858
447126
447393
447667
447948
448222
448484
448749
449014
449275
449540
449809
450073
450341
450613
450883
451144
451418
451691
451961
452232
452506
452783
453051
453329
453604
453872
454149
454428
454693
454959
455230
455501
455757
456024
456286
456546
456805
457067
457334
457588
457852
458109
458368
458618
458877
459138
459396
459653
459913
460179
460441
460703
460965
461230
461490
461753
462017
462282
462545
462805
463063
463313
463565
463818
463994
464096
464187
464278
464378
464502
464613
464718
464816
464917
465015
465115
465219
465485
465710
465926
466131
466340
466546
466745
466944
467141
467335
467533
467726
467919
468116
468314
468511
468706
468898
469091
469284
469472
469658
469844
470031
470216
470403
470588
470773
470959
471147
471333
471522
471716
471906
472100
472297
472493
472691
472892
473094
473306
473528
473757
473988
474216
474447
474677
474910
475150
475385
475622
475862
476102
476344
476588
476835
477077
477329
477580
477825
478074
478322
478572
478815
479068
479318
479566
479813
480064
480318
480563
480820
481074
481326
481574
481824
482079
482323
482581
482834
483085
483333
483589
483842
484088
484333
484581
484829
485067
485313
485561
485803
486043
486292
486540
486782
487030
487281
487523
487772
488019
488266
488508
488752
489001
489244
489486
489733
489979
490225
490468
490720
490971
491222
491478
491737
491995
492247
492501
492757
493014
493262
493523
493780
494036
494288
494550
494814
495072
495334
495598
495864
496123
496389
496662
496932
497197
497458
497721
497982
498240
498506
498771
499029
499296
499560
499817
500087
500352
500617
500877
501151
501425
501691
501967
502243
502510
502776
503047
503319
503586
503856
504124
504384
504650
504908
505165
505418
505678
505934
506187
506452
506716
506978
507232
507501
507762
508021
508279
508547
508811
509070
509337
509606
509871
510128
510401
510670
510937
511204
511485
511762
512030
512307
512586
512861
513128
513407
513686
513947
514221
514492
514753
515010
515270
515532
515784
516040
516303
516567
516823
517091
517360
517623
517884
518150
518419
518678
518946
519213
519477
519733
519994
520257
520515
520775
521035
521303
521560
521828
522095
522363
522621
522890
523159
523416
523683
523946
524208
524461
524724
524982
