time_seconds,"record cu20, signal 0"
0.000000,-0.050000
0.004000,0.012500
0.008000,0.025000
0.012000,0.045000
0.016000,0.065000
0.020000,0.115000
0.024000,0.122500
0.028000,0.122500
0.032000,0.125000
0.036000,0.150000
0.040000,0.195000
0.044000,0.277500
0.048000,0.330000
0.052000,0.345000
0.056000,0.350000
0.060000,0.320000
0.064000,0.320000
0.068000,0.292500
0.072000,0.260000
0.076000,0.305000
0.080000,0.317500
0.084000,0.337500
0.088000,0.332500
0.092000,0.305000
0.096000,0.265000
0.100000,0.200000
0.104000,0.135000
0.108000,0.097500
0.112000,0.105000
0.116000,0.097500
0.120000,0.125000
0.124000,0.200000
0.128000,0.272500
0.132000,0.330000
0.136000,0.365000
0.140000,0.362500
0.144000,0.337500
0.148000,0.265000
0.152000,0.212500
0.156000,0.157500
0.160000,0.097500
0.164000,0.045000
0.168000,0.005000
0.172000,-0.057500
0.176000,-0.070000
0.180000,-0.090000
0.184000,-0.117500
0.188000,-0.105000
0.192000,-0.130000
0.196000,-0.097500
0.200000,-0.052500
0.204000,0.000000
0.208000,0.005000
0.212000,0.012500
0.216000,0.060000
0.220000,0.092500
0.224000,0.122500
0.228000,0.142500
0.232000,0.110000
0.236000,0.032500
0.240000,-0.037500
0.244000,0.017500
0.248000,0.032500
0.252000,0.017500
0.256000,-0.082500
0.260000,-0.147500
0.264000,-0.190000
0.268000,-0.157500
0.272000,-0.110000
0.276000,-0.122500
0.280000,-0.125000
0.284000,-0.137500
0.288000,-0.147500
0.292000,-0.122500
0.296000,-0.065000
0.300000,-0.060000
0.304000,0.000000
0.308000,0.012500
0.312000,0.032500
0.316000,0.057500
0.320000,0.162500
0.324000,0.285000
0.328000,0.320000
0.332000,0.320000
0.336000,0.305000
0.340000,0.220000
0.344000,0.125000
0.348000,0.007500
0.352000,-0.097500
0.356000,-0.150000
0.360000,-0.170000
0.364000,-0.180000
0.368000,-0.167500
0.372000,-0.147500
0.376000,-0.135000
0.380000,-0.105000
0.384000,-0.085000
0.388000,-0.090000
0.392000,-0.117500
0.396000,-0.090000
0.400000,-0.102500
0.404000,-0.085000
0.408000,-0.065000
0.412000,0.000000
0.416000,0.057500
0.420000,0.125000
0.424000,0.125000
0.428000,0.117500
0.432000,0.072500
0.436000,0.052500
0.440000,0.057500
0.444000,0.027500
0.448000,0.072500
0.452000,0.065000
0.456000,0.037500
0.460000,0.045000
0.464000,-0.027500
0.468000,-0.060000
0.472000,-0.040000
0.476000,-0.025000
0.480000,0.012500
0.484000,0.007500
0.488000,-0.037500
0.492000,-0.025000
0.496000,0.060000
0.500000,0.115000
0.504000,0.207500
0.508000,0.232500
0.512000,0.267500
0.516000,0.305000
0.520000,0.337500
0.524000,0.320000
0.528000,0.272500
0.532000,0.150000
0.536000,-0.025000
0.540000,-0.222500
0.544000,-0.382500
0.548000,-0.515000
0.552000,-0.707500
0.556000,-0.895000
0.560000,-1.012500
0.564000,-1.145000
0.568000,-1.240000
0.572000,-0.995000
0.576000,-0.385000
0.580000,0.227500
0.584000,0.735000
0.588000,1.202500
0.592000,1.502500
0.596000,1.717500
0.600000,1.885000
0.604000,1.957500
0.608000,1.762500
0.612000,1.405000
0.616000,0.982500
0.620000,0.650000
0.624000,0.370000
0.628000,0.200000
0.632000,0.170000
0.636000,0.180000
0.640000,0.097500
0.644000,0.057500
0.648000,0.072500
0.652000,0.097500
0.656000,0.125000
0.660000,0.167500
0.664000,0.187500
0.668000,0.162500
0.672000,0.105000
0.676000,0.097500
0.680000,0.115000
0.684000,0.155000
0.688000,0.187500
0.692000,0.220000
0.696000,0.320000
0.700000,0.410000
0.704000,0.472500
0.708000,0.552500
0.712000,0.617500
0.716000,0.602500
0.720000,0.547500
0.724000,0.385000
0.728000,0.200000
0.732000,0.082500
0.736000,0.040000
0.740000,0.102500
0.744000,0.215000
0.748000,0.265000
0.752000,0.255000
0.756000,0.255000
0.760000,0.232500
0.764000,0.212500
0.768000,0.190000
0.772000,0.157500
0.776000,0.147500
0.780000,0.175000
0.784000,0.187500
0.788000,0.207500
0.792000,0.222500
0.796000,0.255000
0.800000,0.287500
0.804000,0.310000
0.808000,0.272500
0.812000,0.235000
0.816000,0.195000
0.820000,0.180000
0.824000,0.180000
0.828000,0.182500
0.832000,0.130000
0.836000,0.175000
0.840000,0.190000
0.844000,0.207500
0.848000,0.220000
0.852000,0.245000
0.856000,0.240000
0.860000,0.247500
0.864000,0.245000
0.868000,0.245000
0.872000,0.212500
0.876000,0.220000
0.880000,0.272500
0.884000,0.280000
0.888000,0.255000
0.892000,0.252500
0.896000,0.215000
0.900000,0.207500
0.904000,0.260000
0.908000,0.260000
0.912000,0.212500
0.916000,0.137500
0.920000,0.130000
0.924000,0.085000
0.928000,0.065000
0.932000,0.050000
0.936000,0.027500
0.940000,0.027500
0.944000,0.065000
0.948000,0.045000
0.952000,-0.050000
0.956000,-0.117500
0.960000,-0.070000
0.964000,0.045000
0.968000,0.105000
0.972000,0.167500
0.976000,0.180000
0.980000,0.115000
0.984000,0.065000
0.988000,0.057500
0.992000,0.057500
0.996000,0.090000
1.000000,0.115000
1.004000,0.147500
1.008000,0.122500
1.012000,0.102500
1.016000,0.097500
1.020000,0.142500
1.024000,0.142500
1.028000,0.115000
1.032000,0.115000
1.036000,0.170000
1.040000,0.187500
1.044000,0.175000
1.048000,0.137500
1.052000,0.180000
1.056000,0.330000
1.060000,0.505000
1.064000,0.635000
1.068000,0.585000
1.072000,0.385000
1.076000,0.220000
1.080000,0.085000
1.084000,-0.072500
1.088000,-0.162500
1.092000,-0.170000
1.096000,-0.110000
1.100000,-0.040000
1.104000,0.027500
1.108000,0.032500
1.112000,0.040000
1.116000,0.027500
1.120000,0.050000
1.124000,0.040000
1.128000,0.065000
1.132000,0.102500
1.136000,0.142500
1.140000,0.170000
1.144000,0.187500
1.148000,0.187500
1.152000,0.195000
1.156000,0.200000
1.160000,0.195000
1.164000,0.195000
1.168000,0.235000
1.172000,0.287500
1.176000,0.310000
1.180000,0.297500
1.184000,0.267500
1.188000,0.240000
1.192000,0.240000
1.196000,0.365000
1.200000,0.487500
1.204000,0.525000
1.208000,0.472500
1.212000,0.362500
1.216000,0.227500
1.220000,0.150000
1.224000,0.097500
1.228000,0.082500
1.232000,0.065000
1.236000,0.032500
1.240000,-0.092500
1.244000,-0.170000
1.248000,-0.292500
1.252000,-0.427500
1.256000,-0.527500
1.260000,-0.687500
1.264000,-0.872500
1.268000,-0.837500
1.272000,-0.390000
1.276000,0.167500
1.280000,0.677500
1.284000,1.085000
1.288000,1.357500
1.292000,1.567500
1.296000,1.800000
1.300000,1.892500
1.304000,1.772500
1.308000,1.430000
1.312000,1.025000
1.316000,0.690000
1.320000,0.415000
1.324000,0.222500
1.328000,0.247500
1.332000,0.337500
1.336000,0.390000
1.340000,0.370000
1.344000,0.330000
1.348000,0.292500
1.352000,0.287500
1.356000,0.320000
1.360000,0.357500
1.364000,0.342500
1.368000,0.310000
1.372000,0.280000
1.376000,0.285000
1.380000,0.297500
1.384000,0.297500
1.388000,0.300000
1.392000,0.342500
1.396000,0.397500
1.400000,0.422500
1.404000,0.442500
1.408000,0.427500
1.412000,0.377500
1.416000,0.280000
1.420000,0.222500
1.424000,0.195000
1.428000,0.220000
1.432000,0.235000
1.436000,0.285000
1.440000,0.320000
1.444000,0.337500
1.448000,0.330000
1.452000,0.337500
1.456000,0.337500
1.460000,0.342500
1.464000,0.330000
1.468000,0.330000
1.472000,0.352500
1.476000,0.332500
1.480000,0.312500
1.484000,0.342500
1.488000,0.395000
1.492000,0.422500
1.496000,0.397500
1.500000,0.342500
1.504000,0.277500
1.508000,0.212500
1.512000,0.207500
1.516000,0.187500
1.520000,0.157500
1.524000,0.150000
1.528000,0.155000
1.532000,0.137500
1.536000,0.097500
1.540000,0.052500
1.544000,0.037500
1.548000,0.027500
1.552000,0.007500
1.556000,0.000000
1.560000,0.005000
1.564000,-0.032500
1.568000,-0.070000
1.572000,-0.065000
1.576000,-0.052500
1.580000,0.000000
1.584000,0.040000
1.588000,0.060000
1.592000,0.017500
1.596000,-0.025000
1.600000,-0.082500
1.604000,-0.135000
1.608000,-0.167500
1.612000,-0.195000
1.616000,-0.200000
1.620000,-0.170000
1.624000,-0.182500
1.628000,-0.167500
1.632000,-0.162500
1.636000,-0.170000
1.640000,-0.167500
1.644000,-0.147500
1.648000,-0.150000
1.652000,-0.150000
1.656000,-0.167500
1.660000,-0.175000
1.664000,-0.150000
1.668000,-0.125000
1.672000,-0.105000
1.676000,-0.125000
1.680000,-0.115000
1.684000,-0.085000
1.688000,-0.085000
1.692000,-0.090000
1.696000,-0.105000
1.700000,-0.162500
1.704000,-0.187500
1.708000,-0.190000
1.712000,-0.200000
1.716000,-0.227500
1.720000,-0.235000
1.724000,-0.190000
1.728000,-0.105000
1.732000,-0.057500
1.736000,0.025000
1.740000,0.027500
1.744000,0.000000
1.748000,0.012500
1.752000,0.045000
1.756000,0.020000
1.760000,-0.025000
1.764000,-0.057500
1.768000,-0.072500
1.772000,-0.105000
1.776000,-0.115000
1.780000,-0.110000
1.784000,-0.102500
1.788000,-0.077500
1.792000,0.032500
1.796000,0.085000
1.800000,0.090000
1.804000,0.102500
1.808000,0.097500
1.812000,0.072500
1.816000,0.037500
1.820000,-0.037500
1.824000,-0.070000
1.828000,0.007500
1.832000,0.027500
1.836000,0.065000
1.840000,0.052500
1.844000,0.017500
1.848000,-0.032500
1.852000,-0.037500
1.856000,-0.052500
1.860000,-0.040000
1.864000,-0.025000
1.868000,-0.027500
1.872000,-0.037500
1.876000,0.007500
1.880000,0.037500
1.884000,0.027500
1.888000,0.025000
1.892000,0.032500
1.896000,0.085000
1.900000,0.195000
1.904000,0.272500
1.908000,0.235000
1.912000,0.125000
1.916000,-0.070000
1.920000,-0.170000
1.924000,-0.170000
1.928000,-0.115000
1.932000,-0.025000
1.936000,0.102500
1.940000,0.102500
1.944000,0.092500
1.948000,0.077500
1.952000,0.050000
1.956000,0.065000
1.960000,0.092500
1.964000,0.077500
1.968000,0.077500
1.972000,0.070000
1.976000,0.060000
1.980000,0.072500
1.984000,0.072500
1.988000,0.097500
1.992000,0.147500
1.996000,0.182500
2.000000,0.157500
2.004000,0.115000
2.008000,0.050000
2.012000,0.025000
2.016000,0.027500
2.020000,0.060000
2.024000,0.072500
2.028000,0.105000
2.032000,0.117500
2.036000,0.110000
2.040000,0.085000
2.044000,0.092500
2.048000,0.037500
2.052000,-0.025000
2.056000,-0.037500
2.060000,0.017500
2.064000,0.070000
2.068000,0.155000
2.072000,0.190000
2.076000,0.190000
2.080000,0.105000
2.084000,0.052500
2.088000,0.017500
2.092000,-0.025000
2.096000,0.007500
2.100000,-0.025000
2.104000,0.005000
2.108000,0.045000
2.112000,0.072500
2.116000,0.077500
2.120000,0.137500
2.124000,0.180000
2.128000,0.220000
2.132000,0.252500
2.136000,0.200000
2.140000,0.125000
2.144000,0.117500
2.148000,0.060000
2.152000,0.065000
2.156000,0.060000
2.160000,0.037500
2.164000,0.017500
2.168000,0.037500
2.172000,0.070000
2.176000,0.092500
2.180000,0.102500
2.184000,0.065000
2.188000,0.040000
2.192000,0.060000
2.196000,0.125000
2.200000,0.110000
2.204000,0.090000
2.208000,0.077500
2.212000,0.060000
2.216000,0.037500
2.220000,0.077500
2.224000,0.060000
2.228000,0.027500
2.232000,0.060000
2.236000,0.102500
2.240000,0.157500
2.244000,0.285000
2.248000,0.337500
2.252000,0.350000
2.256000,0.267500
2.260000,0.200000
2.264000,0.137500
2.268000,0.102500
2.272000,0.125000
2.276000,0.130000
2.280000,0.097500
2.284000,0.117500
2.288000,0.117500
2.292000,0.065000
2.296000,0.012500
2.300000,0.000000
2.304000,-0.027500
2.308000,-0.105000
2.312000,-0.122500
2.316000,-0.147500
2.320000,-0.115000
2.324000,-0.050000
2.328000,0.027500
2.332000,0.012500
2.336000,0.007500
2.340000,0.020000
2.344000,0.032500
2.348000,0.017500
2.352000,-0.020000
2.356000,-0.037500
2.360000,0.005000
2.364000,0.050000
2.368000,0.092500
2.372000,0.097500
2.376000,0.115000
2.380000,0.125000
2.384000,0.150000
2.388000,0.150000
2.392000,0.115000
2.396000,0.092500
2.400000,0.077500
2.404000,0.082500
2.408000,0.097500
2.412000,0.125000
2.416000,0.122500
2.420000,0.122500
2.424000,0.122500
2.428000,0.162500
2.432000,0.200000
2.436000,0.285000
2.440000,0.350000
2.444000,0.352500
2.448000,0.320000
2.452000,0.240000
2.456000,0.105000
2.460000,0.052500
2.464000,0.050000
2.468000,0.052500
2.472000,0.052500
2.476000,0.057500
2.480000,0.070000
2.484000,0.060000
2.488000,0.110000
2.492000,0.167500
2.496000,0.255000
2.500000,0.317500
2.504000,0.297500
2.508000,0.265000
2.512000,0.195000
2.516000,0.117500
2.520000,0.052500
2.524000,0.025000
2.528000,0.025000
2.532000,0.017500
2.536000,0.060000
2.540000,0.142500
2.544000,0.200000
2.548000,0.212500
2.552000,0.212500
2.556000,0.162500
2.560000,0.117500
2.564000,0.060000
2.568000,0.007500
2.572000,0.000000
2.576000,0.012500
2.580000,0.065000
2.584000,0.125000
2.588000,0.195000
2.592000,0.255000
2.596000,0.267500
2.600000,0.245000
2.604000,0.227500
2.608000,0.187500
2.612000,0.157500
2.616000,0.142500
2.620000,0.117500
2.624000,0.020000
2.628000,-0.082500
2.632000,-0.155000
2.636000,-0.300000
2.640000,-0.540000
2.644000,-0.797500
2.648000,-1.002500
2.652000,-1.045000
2.656000,-0.857500
2.660000,-0.280000
2.664000,0.395000
2.668000,1.072500
2.672000,1.670000
2.676000,2.075000
2.680000,2.275000
2.684000,2.262500
2.688000,2.067500
2.692000,1.677500
2.696000,1.210000
2.700000,0.797500
2.704000,0.520000
2.708000,0.277500
2.712000,0.147500
2.716000,0.170000
2.720000,0.272500
2.724000,0.277500
2.728000,0.215000
2.732000,0.130000
2.736000,0.115000
2.740000,0.142500
2.744000,0.215000
2.748000,0.240000
2.752000,0.207500
2.756000,0.222500
2.760000,0.287500
2.764000,0.305000
2.768000,0.255000
2.772000,0.195000
2.776000,0.175000
2.780000,0.227500
2.784000,0.285000
2.788000,0.320000
2.792000,0.350000
2.796000,0.375000
2.800000,0.385000
2.804000,0.410000
2.808000,0.382500
2.812000,0.390000
2.816000,0.427500
2.820000,0.482500
2.824000,0.532500
2.828000,0.570000
2.832000,0.552500
2.836000,0.515000
2.840000,0.527500
2.844000,0.500000
2.848000,0.397500
2.852000,0.337500
2.856000,0.312500
2.860000,0.317500
2.864000,0.320000
2.868000,0.357500
2.872000,0.422500
2.876000,0.527500
2.880000,0.572500
2.884000,0.617500
2.888000,0.617500
2.892000,0.545000
2.896000,0.480000
2.900000,0.390000
2.904000,0.337500
2.908000,0.320000
2.912000,0.325000
2.916000,0.370000
2.920000,0.447500
2.924000,0.540000
2.928000,0.642500
2.932000,0.635000
2.936000,0.557500
2.940000,0.447500
2.944000,0.365000
2.948000,0.325000
2.952000,0.300000
2.956000,0.247500
2.960000,0.222500
2.964000,0.207500
2.968000,0.232500
2.972000,0.280000
2.976000,0.337500
2.980000,0.365000
2.984000,0.330000
2.988000,0.252500
2.992000,0.212500
2.996000,0.207500
3.000000,0.232500
3.004000,0.232500
3.008000,0.207500
3.012000,0.207500
3.016000,0.190000
3.020000,0.200000
3.024000,0.155000
3.028000,0.147500
3.032000,0.175000
3.036000,0.267500
3.040000,0.312500
3.044000,0.305000
3.048000,0.245000
3.052000,0.212500
3.056000,0.167500
3.060000,0.162500
3.064000,0.142500
3.068000,0.092500
3.072000,0.070000
3.076000,0.092500
3.080000,0.130000
3.084000,0.180000
3.088000,0.245000
3.092000,0.297500
3.096000,0.310000
3.100000,0.265000
3.104000,0.240000
3.108000,0.142500
3.112000,0.045000
3.116000,-0.027500
3.120000,-0.052500
3.124000,-0.040000
3.128000,0.032500
3.132000,0.097500
3.136000,0.150000
3.140000,0.180000
3.144000,0.207500
3.148000,0.175000
3.152000,0.175000
3.156000,0.170000
3.160000,0.157500
3.164000,0.167500
3.168000,0.167500
3.172000,0.190000
3.176000,0.182500
3.180000,0.150000
3.184000,0.130000
3.188000,0.097500
3.192000,0.082500
3.196000,0.085000
3.200000,0.070000
3.204000,0.097500
3.208000,0.122500
3.212000,0.155000
3.216000,0.215000
3.220000,0.245000
3.224000,0.222500
3.228000,0.222500
3.232000,0.212500
3.236000,0.157500
3.240000,0.090000
3.244000,0.090000
3.248000,0.065000
3.252000,0.070000
3.256000,0.090000
3.260000,0.162500
3.264000,0.180000
3.268000,0.155000
3.272000,0.137500
3.276000,0.130000
3.280000,0.122500
3.284000,0.142500
3.288000,0.155000
3.292000,0.147500
3.296000,0.155000
3.300000,0.170000
3.304000,0.195000
3.308000,0.182500
3.312000,0.170000
3.316000,0.157500
3.320000,0.167500
3.324000,0.142500
3.328000,0.117500
3.332000,0.085000
3.336000,0.070000
3.340000,0.060000
3.344000,0.077500
3.348000,0.092500
3.352000,0.110000
3.356000,0.122500
3.360000,0.147500
3.364000,0.167500
3.368000,0.182500
3.372000,0.215000
3.376000,0.265000
3.380000,0.285000
3.384000,0.255000
3.388000,0.227500
3.392000,0.215000
3.396000,0.212500
3.400000,0.222500
3.404000,0.265000
3.408000,0.287500
3.412000,0.292500
3.416000,0.267500
3.420000,0.232500
3.424000,0.190000
3.428000,0.200000
3.432000,0.215000
3.436000,0.252500
3.440000,0.292500
3.444000,0.342500
3.448000,0.395000
3.452000,0.415000
3.456000,0.370000
3.460000,0.267500
3.464000,0.162500
3.468000,0.102500
3.472000,0.060000
3.476000,0.092500
3.480000,0.122500
3.484000,0.137500
3.488000,0.150000
3.492000,0.167500
3.496000,0.167500
3.500000,0.135000
3.504000,0.135000
3.508000,0.110000
3.512000,0.122500
3.516000,0.135000
3.520000,0.155000
3.524000,0.157500
3.528000,0.175000
3.532000,0.157500
3.536000,0.162500
3.540000,0.162500
3.544000,0.175000
3.548000,0.180000
3.552000,0.240000
3.556000,0.285000
3.560000,0.317500
3.564000,0.310000
3.568000,0.280000
3.572000,0.255000
3.576000,0.252500
3.580000,0.235000
3.584000,0.202500
3.588000,0.125000
3.592000,0.060000
3.596000,0.072500
3.600000,0.082500
3.604000,0.110000
3.608000,0.142500
3.612000,0.157500
3.616000,0.142500
3.620000,0.155000
3.624000,0.155000
3.628000,0.157500
3.632000,0.162500
3.636000,0.175000
3.640000,0.190000
3.644000,0.240000
3.648000,0.252500
3.652000,0.232500
3.656000,0.180000
3.660000,0.142500
3.664000,0.157500
3.668000,0.175000
3.672000,0.170000
3.676000,0.150000
3.680000,0.147500
3.684000,0.180000
3.688000,0.190000
3.692000,0.155000
3.696000,0.122500
3.700000,0.025000
3.704000,0.000000
3.708000,0.025000
3.712000,0.045000
3.716000,0.020000
3.720000,0.037500
3.724000,0.032500
3.728000,0.052500
3.732000,0.082500
3.736000,0.115000
3.740000,0.147500
3.744000,0.157500
3.748000,0.115000
3.752000,0.077500
3.756000,0.037500
3.760000,0.027500
3.764000,0.037500
3.768000,0.052500
3.772000,0.040000
3.776000,0.040000
3.780000,0.060000
3.784000,0.077500
3.788000,0.085000
3.792000,0.097500
3.796000,0.102500
3.800000,0.105000
3.804000,0.137500
3.808000,0.180000
3.812000,0.222500
3.816000,0.215000
3.820000,0.195000
3.824000,0.175000
3.828000,0.157500
3.832000,0.157500
3.836000,0.170000
3.840000,0.157500
3.844000,0.125000
3.848000,0.082500
3.852000,0.057500
3.856000,-0.025000
3.860000,-0.045000
3.864000,-0.045000
3.868000,-0.037500
3.872000,-0.027500
3.876000,0.005000
3.880000,0.027500
3.884000,0.060000
3.888000,0.085000
3.892000,0.077500
3.896000,0.072500
3.900000,0.060000
3.904000,0.057500
3.908000,0.060000
3.912000,0.070000
3.916000,0.072500
3.920000,0.072500
3.924000,0.060000
3.928000,0.052500
3.932000,0.020000
3.936000,0.050000
3.940000,0.115000
3.944000,0.195000
3.948000,0.235000
3.952000,0.207500
3.956000,0.142500
3.960000,0.090000
3.964000,0.037500
3.968000,0.017500
3.972000,0.000000
3.976000,-0.032500
3.980000,0.005000
3.984000,0.037500
3.988000,0.082500
3.992000,0.105000
3.996000,0.135000
4.000000,0.115000
4.004000,0.000000
4.008000,-0.180000
4.012000,-0.292500
4.016000,-0.450000
4.020000,-0.602500
4.024000,-0.765000
4.028000,-0.825000
4.032000,-0.830000
4.036000,-0.682500
4.040000,-0.202500
4.044000,0.402500
4.048000,0.970000
4.052000,1.500000
4.056000,1.845000
4.060000,2.060000
4.064000,2.117500
4.068000,2.060000
4.072000,1.815000
4.076000,1.437500
4.080000,1.027500
4.084000,0.710000
4.088000,0.442500
4.092000,0.247500
4.096000,0.190000
4.100000,0.207500
4.104000,0.245000
4.108000,0.220000
4.112000,0.212500
4.116000,0.195000
4.120000,0.247500
4.124000,0.300000
4.128000,0.285000
4.132000,0.180000
4.136000,0.097500
4.140000,0.092500
4.144000,0.125000
4.148000,0.137500
4.152000,0.142500
4.156000,0.135000
4.160000,0.150000
4.164000,0.180000
4.168000,0.182500
4.172000,0.175000
4.176000,0.195000
4.180000,0.222500
4.184000,0.245000
4.188000,0.240000
4.192000,0.245000
4.196000,0.215000
4.200000,0.180000
4.204000,0.182500
4.208000,0.155000
4.212000,0.147500
4.216000,0.200000
4.220000,0.265000
4.224000,0.297500
4.228000,0.285000
4.232000,0.280000
4.236000,0.310000
4.240000,0.305000
4.244000,0.337500
4.248000,0.345000
4.252000,0.317500
4.256000,0.292500
4.260000,0.292500
4.264000,0.297500
4.268000,0.297500
4.272000,0.300000
4.276000,0.305000
4.280000,0.310000
4.284000,0.330000
4.288000,0.377500
4.292000,0.427500
4.296000,0.447500
4.300000,0.422500
4.304000,0.352500
4.308000,0.207500
4.312000,0.077500
4.316000,0.025000
4.320000,-0.040000
4.324000,-0.082500
4.328000,-0.057500
4.332000,-0.050000
4.336000,-0.037500
4.340000,0.000000
4.344000,0.045000
4.348000,0.027500
4.352000,0.007500
4.356000,-0.025000
4.360000,-0.045000
4.364000,-0.060000
4.368000,-0.025000
4.372000,0.032500
4.376000,0.115000
4.380000,0.222500
4.384000,0.212500
4.388000,0.130000
4.392000,0.057500
4.396000,-0.072500
4.400000,-0.162500
4.404000,-0.202500
4.408000,-0.232500
4.412000,-0.232500
4.416000,-0.265000
4.420000,-0.255000
4.424000,-0.247500
4.428000,-0.202500
4.432000,-0.187500
4.436000,-0.147500
4.440000,-0.105000
4.444000,-0.092500
4.448000,-0.082500
4.452000,-0.045000
4.456000,-0.050000
4.460000,-0.060000
4.464000,-0.092500
4.468000,-0.142500
4.472000,-0.130000
4.476000,-0.032500
4.480000,0.097500
4.484000,0.147500
4.488000,0.122500
4.492000,0.017500
4.496000,-0.135000
4.500000,-0.207500
4.504000,-0.170000
4.508000,-0.147500
4.512000,-0.117500
4.516000,-0.130000
4.520000,-0.150000
4.524000,-0.182500
4.528000,-0.157500
4.532000,-0.070000
4.536000,-0.025000
4.540000,0.005000
4.544000,0.017500
4.548000,0.032500
4.552000,0.025000
4.556000,0.000000
4.560000,-0.052500
4.564000,-0.085000
4.568000,-0.070000
4.572000,-0.025000
4.576000,0.057500
4.580000,0.077500
4.584000,0.097500
4.588000,0.085000
4.592000,0.050000
4.596000,-0.025000
4.600000,-0.037500
4.604000,-0.040000
4.608000,0.000000
4.612000,0.020000
4.616000,0.020000
4.620000,0.037500
4.624000,0.052500
4.628000,0.060000
4.632000,0.070000
4.636000,0.122500
4.640000,0.200000
4.644000,0.252500
4.648000,0.255000
4.652000,0.195000
4.656000,0.105000
4.660000,0.040000
4.664000,0.045000
4.668000,0.020000
4.672000,0.012500
4.676000,0.040000
4.680000,0.077500
4.684000,0.097500
4.688000,0.082500
4.692000,0.065000
4.696000,0.070000
4.700000,0.040000
4.704000,0.060000
4.708000,0.110000
4.712000,0.167500
4.716000,0.155000
4.720000,0.142500
4.724000,0.190000
4.728000,0.227500
4.732000,0.200000
4.736000,0.175000
4.740000,0.090000
4.744000,0.025000
4.748000,-0.032500
4.752000,0.007500
4.756000,0.012500
4.760000,0.012500
4.764000,0.057500
4.768000,0.102500
4.772000,0.117500
4.776000,0.115000
4.780000,0.097500
4.784000,0.110000
4.788000,0.090000
4.792000,0.092500
4.796000,0.135000
4.800000,0.190000
4.804000,0.220000
4.808000,0.235000
4.812000,0.240000
4.816000,0.207500
4.820000,0.222500
4.824000,0.175000
4.828000,0.180000
4.832000,0.125000
4.836000,0.082500
4.840000,0.020000
4.844000,0.000000
4.848000,0.000000
4.852000,0.000000
4.856000,-0.027500
4.860000,0.025000
4.864000,0.005000
4.868000,0.012500
4.872000,0.027500
4.876000,0.065000
4.880000,0.050000
4.884000,0.020000
4.888000,0.027500
4.892000,0.025000
4.896000,0.012500
4.900000,0.045000
4.904000,0.050000
4.908000,0.032500
4.912000,0.037500
4.916000,0.007500
4.920000,0.000000
4.924000,0.020000
4.928000,0.060000
4.932000,0.060000
4.936000,0.082500
4.940000,0.085000
4.944000,0.057500
4.948000,0.060000
4.952000,0.072500
4.956000,0.085000
4.960000,0.135000
4.964000,0.125000
4.968000,0.115000
4.972000,0.097500
4.976000,0.105000
4.980000,0.102500
4.984000,0.102500
4.988000,0.097500
4.992000,0.077500
4.996000,0.135000
5.000000,0.195000
5.004000,0.227500
5.008000,0.212500
5.012000,0.157500
5.016000,0.070000
5.020000,0.050000
5.024000,0.045000
5.028000,0.040000
5.032000,0.012500
5.036000,0.012500
5.040000,0.027500
5.044000,0.122500
5.048000,0.265000
5.052000,0.370000
5.056000,0.375000
5.060000,0.287500
5.064000,0.157500
5.068000,0.052500
5.072000,-0.060000
5.076000,-0.117500
5.080000,-0.175000
5.084000,-0.280000
5.088000,-0.482500
5.092000,-0.722500
5.096000,-0.905000
5.100000,-1.080000
5.104000,-1.175000
5.108000,-1.112500
5.112000,-0.617500
5.116000,0.032500
5.120000,0.687500
5.124000,1.227500
5.128000,1.545000
5.132000,1.747500
5.136000,1.902500
5.140000,1.935000
5.144000,1.762500
5.148000,1.372500
5.152000,0.970000
5.156000,0.690000
5.160000,0.415000
5.164000,0.232500
5.168000,0.245000
5.172000,0.285000
5.176000,0.310000
5.180000,0.292500
5.184000,0.277500
5.188000,0.330000
5.192000,0.417500
5.196000,0.427500
5.200000,0.352500
5.204000,0.267500
5.208000,0.215000
5.212000,0.227500
5.216000,0.245000
5.220000,0.235000
5.224000,0.232500
5.228000,0.287500
5.232000,0.320000
5.236000,0.342500
5.240000,0.332500
5.244000,0.325000
5.248000,0.317500
5.252000,0.312500
5.256000,0.320000
5.260000,0.350000
5.264000,0.427500
5.268000,0.450000
5.272000,0.440000
5.276000,0.417500
5.280000,0.402500
5.284000,0.422500
5.288000,0.467500
5.292000,0.525000
5.296000,0.537500
5.300000,0.512500
5.304000,0.487500
5.308000,0.467500
5.312000,0.472500
5.316000,0.500000
5.320000,0.515000
5.324000,0.525000
5.328000,0.560000
5.332000,0.580000
5.336000,0.592500
5.340000,0.537500
5.344000,0.475000
5.348000,0.407500
5.352000,0.370000
5.356000,0.390000
5.360000,0.440000
5.364000,0.430000
5.368000,0.407500
5.372000,0.382500
5.376000,0.382500
5.380000,0.357500
5.384000,0.337500
5.388000,0.350000
5.392000,0.337500
5.396000,0.287500
5.400000,0.202500
5.404000,0.142500
5.408000,0.150000
5.412000,0.195000
5.416000,0.215000
5.420000,0.220000
5.424000,0.167500
5.428000,0.180000
5.432000,0.232500
5.436000,0.260000
5.440000,0.247500
5.444000,0.222500
5.448000,0.182500
5.452000,0.157500
5.456000,0.125000
5.460000,0.110000
5.464000,0.142500
5.468000,0.227500
5.472000,0.285000
5.476000,0.287500
5.480000,0.255000
5.484000,0.195000
5.488000,0.130000
5.492000,0.052500
5.496000,0.000000
5.500000,-0.065000
5.504000,-0.085000
5.508000,-0.097500
5.512000,-0.097500
5.516000,-0.102500
5.520000,-0.082500
5.524000,-0.072500
5.528000,-0.060000
5.532000,-0.057500
5.536000,-0.040000
5.540000,-0.027500
5.544000,0.020000
5.548000,0.027500
5.552000,0.057500
5.556000,0.097500
5.560000,0.150000
5.564000,0.167500
5.568000,0.150000
5.572000,0.110000
5.576000,0.092500
5.580000,0.070000
5.584000,0.050000
5.588000,0.020000
5.592000,0.017500
5.596000,0.025000
5.600000,0.032500
5.604000,0.052500
5.608000,0.065000
5.612000,0.082500
5.616000,0.105000
5.620000,0.137500
5.624000,0.147500
5.628000,0.157500
5.632000,0.155000
5.636000,0.157500
5.640000,0.147500
5.644000,0.150000
5.648000,0.142500
5.652000,0.155000
5.656000,0.167500
5.660000,0.195000
5.664000,0.220000
5.668000,0.260000
5.672000,0.352500
5.676000,0.450000
5.680000,0.455000
5.684000,0.377500
5.688000,0.227500
5.692000,0.060000
5.696000,-0.045000
5.700000,-0.085000
5.704000,-0.102500
5.708000,-0.097500
5.712000,-0.077500
5.716000,-0.052500
5.720000,-0.025000
5.724000,0.000000
5.728000,0.005000
5.732000,0.000000
5.736000,0.012500
5.740000,0.020000
5.744000,0.027500
5.748000,0.012500
5.752000,0.025000
5.756000,0.017500
5.760000,0.017500
5.764000,0.037500
5.768000,0.082500
5.772000,0.125000
5.776000,0.162500
5.780000,0.175000
5.784000,0.227500
5.788000,0.285000
5.792000,0.277500
5.796000,0.222500
5.800000,0.115000
5.804000,-0.037500
5.808000,-0.135000
5.812000,-0.162500
5.816000,-0.135000
5.820000,-0.102500
5.824000,-0.092500
5.828000,-0.065000
5.832000,-0.072500
5.836000,-0.085000
5.840000,-0.102500
5.844000,-0.090000
5.848000,-0.082500
5.852000,-0.070000
5.856000,-0.052500
5.860000,-0.045000
5.864000,-0.052500
5.868000,-0.052500
5.872000,-0.045000
5.876000,-0.025000
5.880000,0.005000
5.884000,0.012500
5.888000,-0.032500
5.892000,-0.052500
5.896000,-0.032500
5.900000,-0.065000
5.904000,-0.065000
5.908000,-0.060000
5.912000,-0.050000
5.916000,-0.050000
5.920000,-0.037500
5.924000,-0.037500
5.928000,-0.040000
5.932000,-0.045000
5.936000,0.000000
5.940000,0.000000
5.944000,0.000000
5.948000,0.000000
5.952000,-0.070000
5.956000,-0.162500
5.960000,-0.267500
5.964000,-0.362500
5.968000,-0.480000
5.972000,-0.702500
5.976000,-0.897500
5.980000,-1.060000
5.984000,-1.145000
5.988000,-1.052500
5.992000,-0.565000
5.996000,0.102500
6.000000,0.630000
6.004000,1.097500
6.008000,1.402500
6.012000,1.587500
6.016000,1.715000
6.020000,1.755000
6.024000,1.592500
6.028000,1.247500
6.032000,0.840000
6.036000,0.545000
6.040000,0.285000
6.044000,0.097500
6.048000,0.092500
6.052000,0.162500
6.056000,0.190000
6.060000,0.212500
6.064000,0.200000
6.068000,0.122500
6.072000,0.090000
6.076000,0.092500
6.080000,0.057500
6.084000,0.005000
6.088000,-0.057500
6.092000,-0.102500
6.096000,-0.040000
6.100000,0.020000
6.104000,0.072500
6.108000,0.092500
6.112000,0.117500
6.116000,0.110000
6.120000,0.105000
6.124000,0.135000
6.128000,0.167500
6.132000,0.155000
6.136000,0.175000
6.140000,0.245000
6.144000,0.300000
6.148000,0.310000
6.152000,0.312500
6.156000,0.300000
6.160000,0.325000
6.164000,0.350000
6.168000,0.377500
6.172000,0.332500
6.176000,0.222500
6.180000,0.215000
6.184000,0.265000
6.188000,0.277500
6.192000,0.240000
6.196000,0.220000
6.200000,0.190000
6.204000,0.195000
6.208000,0.222500
6.212000,0.277500
6.216000,0.297500
6.220000,0.305000
6.224000,0.330000
6.228000,0.332500
6.232000,0.292500
6.236000,0.287500
6.240000,0.297500
6.244000,0.255000
6.248000,0.190000
6.252000,0.180000
6.256000,0.220000
6.260000,0.252500
6.264000,0.252500
6.268000,0.277500
6.272000,0.305000
6.276000,0.285000
6.280000,0.232500
6.284000,0.190000
6.288000,0.115000
6.292000,0.092500
6.296000,0.060000
6.300000,0.050000
6.304000,0.007500
6.308000,-0.070000
6.312000,-0.090000
6.316000,-0.125000
6.320000,-0.110000
6.324000,-0.090000
6.328000,-0.050000
6.332000,-0.050000
6.336000,-0.050000
6.340000,-0.117500
6.344000,-0.115000
6.348000,-0.072500
6.352000,-0.082500
6.356000,-0.077500
6.360000,-0.032500
6.364000,-0.045000
6.368000,-0.037500
6.372000,0.027500
6.376000,0.065000
6.380000,0.070000
6.384000,0.032500
6.388000,-0.070000
6.392000,-0.065000
6.396000,0.070000
6.400000,0.142500
6.404000,0.125000
6.408000,0.027500
6.412000,-0.082500
6.416000,-0.110000
6.420000,-0.072500
6.424000,-0.082500
6.428000,-0.115000
6.432000,-0.142500
6.436000,-0.135000
6.440000,-0.110000
6.444000,-0.077500
6.448000,-0.097500
6.452000,-0.115000
6.456000,-0.122500
6.460000,-0.130000
6.464000,-0.105000
6.468000,-0.102500
6.472000,-0.135000
6.476000,-0.115000
6.480000,-0.115000
6.484000,-0.085000
6.488000,-0.037500
6.492000,0.025000
6.496000,0.032500
6.500000,-0.045000
6.504000,-0.085000
6.508000,-0.077500
6.512000,-0.045000
6.516000,-0.077500
6.520000,-0.037500
6.524000,-0.050000
6.528000,-0.102500
6.532000,-0.102500
6.536000,-0.045000
6.540000,-0.045000
6.544000,-0.027500
6.548000,0.027500
6.552000,0.017500
6.556000,-0.025000
6.560000,0.012500
6.564000,0.012500
6.568000,0.000000
6.572000,0.040000
6.576000,0.102500
6.580000,0.162500
6.584000,0.147500
6.588000,0.135000
6.592000,0.090000
6.596000,0.032500
6.600000,-0.032500
6.604000,-0.072500
6.608000,-0.147500
6.612000,-0.150000
6.616000,-0.130000
6.620000,-0.060000
6.624000,0.020000
6.628000,0.077500
6.632000,0.082500
6.636000,0.090000
6.640000,0.090000
6.644000,0.110000
6.648000,0.137500
6.652000,0.130000
6.656000,0.157500
6.660000,0.162500
6.664000,0.180000
6.668000,0.187500
6.672000,0.125000
6.676000,0.065000
6.680000,0.040000
6.684000,0.092500
6.688000,0.085000
6.692000,0.060000
6.696000,0.040000
6.700000,-0.057500
6.704000,-0.045000
6.708000,-0.040000
6.712000,-0.025000
6.716000,-0.027500
6.720000,0.032500
6.724000,0.070000
6.728000,0.072500
6.732000,-0.052500
6.736000,-0.215000
6.740000,-0.370000
6.744000,-0.625000
6.748000,-0.890000
6.752000,-1.072500
6.756000,-1.222500
6.760000,-1.210000
6.764000,-0.805000
6.768000,-0.167500
6.772000,0.430000
6.776000,0.982500
6.780000,1.382500
6.784000,1.657500
6.788000,1.892500
6.792000,1.990000
6.796000,1.897500
6.800000,1.552500
6.804000,1.090000
6.808000,0.687500
6.812000,0.390000
6.816000,0.135000
6.820000,0.085000
6.824000,0.150000
6.828000,0.190000
6.832000,0.175000
6.836000,0.162500
6.840000,0.157500
6.844000,0.170000
6.848000,0.207500
6.852000,0.222500
6.856000,0.180000
6.860000,0.142500
6.864000,0.102500
6.868000,0.092500
6.872000,0.092500
6.876000,0.142500
6.880000,0.162500
6.884000,0.202500
6.888000,0.220000
6.892000,0.200000
6.896000,0.255000
6.900000,0.280000
6.904000,0.240000
6.908000,0.130000
6.912000,0.065000
6.916000,0.050000
6.920000,0.130000
6.924000,0.207500
6.928000,0.312500
6.932000,0.385000
6.936000,0.375000
6.940000,0.345000
6.944000,0.287500
6.948000,0.222500
6.952000,0.207500
6.956000,0.182500
6.960000,0.235000
6.964000,0.280000
6.968000,0.297500
6.972000,0.292500
6.976000,0.350000
6.980000,0.407500
6.984000,0.455000
6.988000,0.505000
6.992000,0.447500
6.996000,0.370000
7.000000,0.265000
7.004000,0.222500
7.008000,0.190000
7.012000,0.195000
7.016000,0.155000
7.020000,0.117500
7.024000,0.122500
7.028000,0.137500
7.032000,0.142500
7.036000,0.180000
7.040000,0.175000
7.044000,0.157500
7.048000,0.122500
7.052000,0.142500
7.056000,0.215000
7.060000,0.272500
7.064000,0.255000
7.068000,0.207500
7.072000,0.137500
7.076000,0.102500
7.080000,0.115000
7.084000,0.182500
7.088000,0.312500
7.092000,0.352500
7.096000,0.350000
7.100000,0.320000
7.104000,0.232500
7.108000,0.157500
7.112000,0.147500
7.116000,0.092500
7.120000,0.040000
7.124000,-0.050000
7.128000,-0.025000
7.132000,-0.032500
7.136000,0.000000
7.140000,0.020000
7.144000,0.007500
7.148000,0.017500
7.152000,0.060000
7.156000,0.082500
7.160000,0.105000
7.164000,0.142500
7.168000,0.142500
7.172000,0.162500
7.176000,0.180000
7.180000,0.157500
7.184000,0.122500
7.188000,0.070000
7.192000,0.077500
7.196000,0.097500
7.200000,0.085000
7.204000,0.105000
7.208000,0.102500
7.212000,0.092500
7.216000,0.052500
7.220000,0.070000
7.224000,0.025000
7.228000,0.027500
7.232000,0.097500
7.236000,0.175000
7.240000,0.202500
7.244000,0.200000
7.248000,0.195000
7.252000,0.187500
7.256000,0.147500
7.260000,0.142500
7.264000,0.125000
7.268000,0.117500
7.272000,0.125000
7.276000,0.117500
7.280000,0.115000
7.284000,0.117500
7.288000,0.102500
7.292000,0.102500
7.296000,0.097500
7.300000,0.077500
7.304000,0.102500
7.308000,0.150000
7.312000,0.190000
7.316000,0.200000
7.320000,0.190000
7.324000,0.155000
7.328000,0.117500
7.332000,0.072500
7.336000,0.060000
7.340000,0.050000
7.344000,0.065000
7.348000,0.065000
7.352000,0.070000
7.356000,0.070000
7.360000,0.090000
7.364000,0.110000
7.368000,0.167500
7.372000,0.212500
7.376000,0.252500
7.380000,0.325000
7.384000,0.370000
7.388000,0.407500
7.392000,0.427500
7.396000,0.370000
7.400000,0.272500
7.404000,0.187500
7.408000,0.097500
7.412000,0.012500
7.416000,-0.060000
7.420000,-0.070000
7.424000,-0.057500
7.428000,0.045000
7.432000,0.092500
7.436000,0.122500
7.440000,0.082500
7.444000,0.060000
7.448000,0.050000
7.452000,0.007500
7.456000,-0.090000
7.460000,-0.167500
7.464000,-0.287500
7.468000,-0.482500
7.472000,-0.662500
7.476000,-0.805000
7.480000,-0.922500
7.484000,-0.877500
7.488000,-0.430000
7.492000,0.200000
7.496000,0.732500
7.500000,1.175000
7.504000,1.475000
7.508000,1.652500
7.512000,1.860000
7.516000,1.987500
7.520000,1.935000
7.524000,1.652500
7.528000,1.252500
7.532000,0.922500
7.536000,0.650000
7.540000,0.385000
7.544000,0.300000
7.548000,0.312500
7.552000,0.292500
7.556000,0.245000
7.560000,0.235000
7.564000,0.235000
7.568000,0.260000
7.572000,0.312500
7.576000,0.342500
7.580000,0.357500
7.584000,0.312500
7.588000,0.272500
7.592000,0.227500
7.596000,0.190000
7.600000,0.170000
7.604000,0.157500
7.608000,0.162500
7.612000,0.195000
7.616000,0.240000
7.620000,0.280000
7.624000,0.312500
7.628000,0.352500
7.632000,0.375000
7.636000,0.375000
7.640000,0.325000
7.644000,0.285000
7.648000,0.255000
7.652000,0.252500
7.656000,0.252500
7.660000,0.245000
7.664000,0.235000
7.668000,0.277500
7.672000,0.332500
7.676000,0.385000
7.680000,0.397500
7.684000,0.395000
7.688000,0.430000
7.692000,0.447500
7.696000,0.462500
7.700000,0.467500
7.704000,0.480000
7.708000,0.467500
7.712000,0.382500
7.716000,0.265000
7.720000,0.195000
7.724000,0.125000
7.728000,0.102500
7.732000,0.082500
7.736000,0.077500
7.740000,0.060000
7.744000,0.122500
7.748000,0.212500
7.752000,0.227500
7.756000,0.190000
7.760000,0.115000
7.764000,0.000000
7.768000,-0.115000
7.772000,-0.130000
7.776000,-0.092500
7.780000,-0.085000
7.784000,-0.092500
7.788000,-0.105000
7.792000,-0.135000
7.796000,-0.137500
7.800000,-0.130000
7.804000,-0.115000
7.808000,-0.060000
7.812000,0.025000
7.816000,0.050000
7.820000,0.037500
7.824000,-0.060000
7.828000,-0.135000
7.832000,-0.200000
7.836000,-0.222500
7.840000,-0.215000
7.844000,-0.200000
7.848000,-0.190000
7.852000,-0.167500
7.856000,-0.142500
7.860000,-0.117500
7.864000,-0.110000
7.868000,-0.135000
7.872000,-0.150000
7.876000,-0.187500
7.880000,-0.202500
7.884000,-0.200000
7.888000,-0.207500
7.892000,-0.167500
7.896000,-0.122500
7.900000,-0.137500
7.904000,-0.175000
7.908000,-0.215000
7.912000,-0.240000
7.916000,-0.240000
7.920000,-0.207500
7.924000,-0.162500
7.928000,-0.057500
7.932000,0.037500
7.936000,0.085000
7.940000,0.082500
7.944000,0.045000
7.948000,-0.050000
7.952000,-0.090000
7.956000,-0.167500
7.960000,-0.227500
7.964000,-0.267500
7.968000,-0.245000
7.972000,-0.182500
7.976000,-0.137500
7.980000,-0.102500
7.984000,-0.082500
7.988000,-0.050000
7.992000,-0.032500
7.996000,0.027500
8.000000,0.045000
8.004000,0.020000
8.008000,-0.032500
8.012000,-0.070000
8.016000,-0.105000
8.020000,-0.117500
8.024000,-0.150000
8.028000,-0.170000
8.032000,-0.155000
8.036000,-0.102500
8.040000,-0.092500
8.044000,-0.070000
8.048000,-0.037500
8.052000,0.050000
8.056000,0.097500
8.060000,0.125000
8.064000,0.072500
8.068000,-0.070000
8.072000,-0.122500
8.076000,-0.147500
8.080000,-0.137500
8.084000,-0.125000
8.088000,-0.122500
8.092000,-0.097500
8.096000,-0.082500
8.100000,-0.122500
8.104000,-0.092500
8.108000,-0.057500
8.112000,-0.032500
8.116000,-0.057500
8.120000,-0.052500
8.124000,-0.052500
8.128000,0.045000
8.132000,0.122500
8.136000,0.117500
8.140000,0.070000
8.144000,-0.032500
8.148000,-0.097500
8.152000,-0.110000
8.156000,-0.125000
8.160000,-0.110000
8.164000,-0.065000
8.168000,0.000000
8.172000,0.000000
8.176000,0.007500
8.180000,0.050000
8.184000,0.077500
8.188000,0.155000
8.192000,0.195000
8.196000,0.207500
8.200000,0.200000
8.204000,0.187500
8.208000,0.077500
8.212000,0.007500
8.216000,-0.060000
8.220000,-0.097500
8.224000,-0.105000
8.228000,-0.105000
8.232000,-0.097500
8.236000,-0.070000
8.240000,0.000000
8.244000,0.082500
8.248000,0.092500
8.252000,0.137500
8.256000,0.212500
8.260000,0.292500
8.264000,0.312500
8.268000,0.297500
8.272000,0.182500
8.276000,0.072500
8.280000,-0.045000
8.284000,-0.110000
8.288000,-0.167500
8.292000,-0.137500
8.296000,-0.125000
8.300000,-0.072500
8.304000,-0.060000
8.308000,-0.065000
8.312000,0.007500
8.316000,0.027500
8.320000,0.027500
8.324000,0.027500
8.328000,0.050000
8.332000,0.060000
8.336000,0.077500
8.340000,0.090000
8.344000,0.072500
8.348000,0.060000
8.352000,0.130000
8.356000,0.202500
8.360000,0.245000
8.364000,0.280000
8.368000,0.297500
8.372000,0.222500
8.376000,0.125000
8.380000,0.017500
8.384000,-0.077500
8.388000,-0.090000
8.392000,-0.102500
8.396000,-0.135000
8.400000,-0.142500
8.404000,-0.090000
8.408000,-0.052500
8.412000,0.005000
8.416000,0.020000
8.420000,-0.025000
8.424000,0.007500
8.428000,0.060000
8.432000,0.050000
8.436000,0.065000
8.440000,0.142500
8.444000,0.320000
8.448000,0.492500
8.452000,0.540000
8.456000,0.480000
8.460000,0.395000
8.464000,0.305000
8.468000,0.195000
8.472000,0.167500
8.476000,0.125000
8.480000,0.097500
8.484000,0.125000
8.488000,0.122500
8.492000,0.060000
8.496000,-0.045000
8.500000,-0.130000
8.504000,-0.135000
8.508000,-0.085000
8.512000,-0.045000
8.516000,-0.052500
8.520000,0.032500
8.524000,0.037500
8.528000,0.060000
8.532000,0.072500
8.536000,0.057500
8.540000,0.027500
8.544000,0.060000
8.548000,0.102500
8.552000,0.092500
8.556000,0.060000
8.560000,0.000000
8.564000,-0.097500
8.568000,-0.105000
8.572000,-0.070000
8.576000,-0.050000
8.580000,-0.057500
8.584000,0.005000
8.588000,-0.020000
8.592000,-0.045000
8.596000,0.000000
8.600000,-0.050000
8.604000,-0.060000
8.608000,-0.060000
8.612000,-0.027500
8.616000,-0.037500
8.620000,-0.142500
8.624000,-0.267500
8.628000,-0.422500
8.632000,-0.635000
8.636000,-0.830000
8.640000,-0.992500
8.644000,-1.052500
8.648000,-1.040000
8.652000,-0.675000
8.656000,-0.090000
8.660000,0.482500
8.664000,1.067500
8.668000,1.457500
8.672000,1.642500
8.676000,1.795000
8.680000,1.827500
8.684000,1.677500
8.688000,1.312500
8.692000,0.870000
8.696000,0.512500
8.700000,0.277500
8.704000,0.102500
8.708000,0.102500
8.712000,0.187500
8.716000,0.297500
8.720000,0.410000
8.724000,0.450000
8.728000,0.415000
8.732000,0.297500
8.736000,0.167500
8.740000,0.040000
8.744000,0.005000
8.748000,-0.037500
8.752000,0.000000
8.756000,0.050000
8.760000,0.082500
8.764000,0.065000
8.768000,0.115000
8.772000,0.277500
8.776000,0.357500
8.780000,0.375000
8.784000,0.337500
8.788000,0.297500
8.792000,0.255000
8.796000,0.240000
8.800000,0.180000
8.804000,0.175000
8.808000,0.220000
8.812000,0.365000
8.816000,0.507500
8.820000,0.612500
8.824000,0.580000
8.828000,0.455000
8.832000,0.310000
8.836000,0.222500
8.840000,0.115000
8.844000,0.052500
8.848000,0.032500
8.852000,0.072500
8.856000,0.122500
8.860000,0.147500
8.864000,0.170000
8.868000,0.190000
8.872000,0.187500
8.876000,0.180000
8.880000,0.180000
8.884000,0.142500
8.888000,0.125000
8.892000,0.155000
8.896000,0.167500
8.900000,0.170000
8.904000,0.182500
8.908000,0.240000
8.912000,0.292500
8.916000,0.300000
8.920000,0.297500
8.924000,0.252500
8.928000,0.200000
8.932000,0.155000
8.936000,0.110000
8.940000,0.060000
8.944000,0.090000
8.948000,0.125000
8.952000,0.147500
8.956000,0.125000
8.960000,0.102500
8.964000,0.070000
8.968000,0.025000
8.972000,-0.072500
8.976000,-0.077500
8.980000,0.007500
8.984000,0.070000
8.988000,0.105000
8.992000,0.070000
8.996000,-0.040000
9.000000,-0.097500
9.004000,-0.025000
9.008000,0.027500
9.012000,0.012500
9.016000,-0.040000
9.020000,0.005000
9.024000,0.072500
9.028000,0.175000
9.032000,0.195000
9.036000,0.130000
9.040000,0.052500
9.044000,0.027500
9.048000,-0.040000
9.052000,-0.072500
9.056000,-0.052500
9.060000,-0.050000
9.064000,0.012500
9.068000,0.060000
9.072000,0.092500
9.076000,0.085000
9.080000,0.085000
9.084000,0.077500
9.088000,0.037500
9.092000,-0.050000
9.096000,-0.097500
9.100000,-0.200000
9.104000,-0.215000
9.108000,-0.170000
9.112000,-0.105000
9.116000,-0.057500
9.120000,0.040000
9.124000,0.045000
9.128000,0.090000
9.132000,0.125000
9.136000,0.110000
9.140000,0.032500
9.144000,0.017500
9.148000,0.005000
9.152000,0.025000
9.156000,0.057500
9.160000,0.125000
9.164000,0.190000
9.168000,0.255000
9.172000,0.317500
9.176000,0.332500
9.180000,0.240000
9.184000,0.170000
9.188000,0.207500
9.192000,0.247500
9.196000,0.285000
9.200000,0.255000
9.204000,0.227500
9.208000,0.202500
9.212000,0.200000
9.216000,0.187500
9.220000,0.207500
9.224000,0.212500
9.228000,0.227500
9.232000,0.232500
9.236000,0.220000
9.240000,0.150000
9.244000,0.227500
9.248000,0.337500
9.252000,0.415000
9.256000,0.415000
9.260000,0.357500
9.264000,0.255000
9.268000,0.147500
9.272000,0.057500
9.276000,0.020000
9.280000,0.050000
9.284000,0.125000
9.288000,0.175000
9.292000,0.200000
9.296000,0.190000
9.300000,0.212500
9.304000,0.245000
9.308000,0.240000
9.312000,0.190000
9.316000,0.110000
9.320000,0.050000
9.324000,0.025000
9.328000,0.060000
9.332000,0.090000
9.336000,0.115000
9.340000,0.110000
9.344000,0.137500
9.348000,0.202500
9.352000,0.287500
9.356000,0.320000
9.360000,0.375000
9.364000,0.447500
9.368000,0.480000
9.372000,0.447500
9.376000,0.357500
9.380000,0.227500
9.384000,0.122500
9.388000,0.060000
9.392000,0.060000
9.396000,0.060000
9.400000,0.060000
9.404000,0.090000
9.408000,0.130000
9.412000,0.155000
9.416000,0.092500
9.420000,0.040000
9.424000,0.025000
9.428000,0.037500
9.432000,0.070000
9.436000,0.175000
9.440000,0.255000
9.444000,0.300000
9.448000,0.280000
9.452000,0.220000
9.456000,0.202500
9.460000,0.227500
9.464000,0.212500
9.468000,0.182500
9.472000,0.182500
9.476000,0.182500
9.480000,0.202500
9.484000,0.207500
9.488000,0.200000
9.492000,0.200000
9.496000,0.215000
9.500000,0.252500
9.504000,0.260000
9.508000,0.215000
9.512000,0.195000
9.516000,0.170000
9.520000,0.182500
9.524000,0.207500
9.528000,0.297500
9.532000,0.342500
9.536000,0.350000
9.540000,0.292500
9.544000,0.222500
9.548000,0.170000
9.552000,0.180000
9.556000,0.180000
9.560000,0.190000
9.564000,0.207500
9.568000,0.212500
9.572000,0.202500
9.576000,0.187500
9.580000,0.182500
9.584000,0.200000
9.588000,0.207500
9.592000,0.190000
9.596000,0.182500
9.600000,0.222500
9.604000,0.255000
9.608000,0.287500
9.612000,0.320000
9.616000,0.260000
9.620000,0.240000
9.624000,0.277500
9.628000,0.305000
9.632000,0.272500
9.636000,0.190000
9.640000,0.065000
9.644000,0.000000
9.648000,-0.090000
9.652000,-0.117500
9.656000,-0.105000
9.660000,-0.082500
9.664000,-0.065000
9.668000,-0.040000
9.672000,-0.025000
9.676000,-0.050000
9.680000,-0.060000
9.684000,-0.057500
9.688000,-0.032500
9.692000,0.020000
9.696000,0.125000
9.700000,0.272500
9.704000,0.342500
9.708000,0.337500
9.712000,0.252500
9.716000,0.060000
9.720000,-0.097500
9.724000,-0.187500
9.728000,-0.202500
9.732000,-0.207500
9.736000,-0.190000
9.740000,-0.147500
9.744000,-0.082500
9.748000,-0.045000
9.752000,-0.032500
9.756000,-0.037500
9.760000,-0.032500
9.764000,-0.040000
9.768000,0.000000
9.772000,0.007500
9.776000,0.007500
9.780000,0.017500
9.784000,0.037500
9.788000,0.032500
9.792000,0.060000
9.796000,0.142500
9.800000,0.285000
9.804000,0.410000
9.808000,0.435000
9.812000,0.447500
9.816000,0.455000
9.820000,0.402500
9.824000,0.272500
9.828000,0.137500
9.832000,-0.032500
9.836000,-0.130000
9.840000,-0.155000
9.844000,-0.170000
9.848000,-0.202500
9.852000,-0.235000
9.856000,-0.252500
9.860000,-0.212500
9.864000,-0.157500
9.868000,-0.102500
9.872000,-0.060000
9.876000,-0.032500
9.880000,0.000000
9.884000,0.005000
9.888000,-0.037500
9.892000,-0.110000
9.896000,-0.115000
9.900000,-0.117500
9.904000,-0.130000
9.908000,-0.105000
9.912000,-0.077500
9.916000,-0.105000
9.920000,-0.110000
9.924000,-0.092500
9.928000,-0.085000
9.932000,-0.077500
9.936000,-0.070000
9.940000,-0.060000
9.944000,0.017500
9.948000,0.082500
9.952000,0.157500
9.956000,0.190000
9.960000,0.207500
9.964000,0.190000
9.968000,0.122500
9.972000,0.000000
9.976000,-0.097500
9.980000,-0.155000
9.984000,-0.220000
9.988000,-0.267500
9.992000,-0.370000
9.996000,-0.532500
10.000000,-0.727500
10.004000,-0.930000
10.008000,-1.052500
10.012000,-1.045000
10.016000,-0.792500
10.020000,-0.195000
10.024000,0.447500
10.028000,1.052500
10.032000,1.527500
10.036000,1.860000
10.040000,2.060000
10.044000,2.080000
10.048000,1.935000
10.052000,1.610000
10.056000,1.142500
10.060000,0.722500
10.064000,0.382500
10.068000,0.110000
10.072000,-0.027500
10.076000,-0.025000
10.080000,0.000000
10.084000,-0.027500
10.088000,-0.037500
10.092000,-0.025000
10.096000,0.007500
10.100000,0.012500
10.104000,0.045000
10.108000,0.082500
10.112000,0.175000
10.116000,0.255000
10.120000,0.292500
10.124000,0.232500
10.128000,0.137500
10.132000,0.037500
10.136000,-0.032500
10.140000,-0.032500
10.144000,-0.032500
10.148000,-0.040000
10.152000,0.005000
10.156000,0.052500
10.160000,0.090000
10.164000,0.097500
10.168000,0.105000
10.172000,0.070000
10.176000,0.085000
10.180000,0.142500
10.184000,0.190000
10.188000,0.207500
10.192000,0.187500
10.196000,0.190000
10.200000,0.202500
10.204000,0.240000
10.208000,0.245000
10.212000,0.277500
10.216000,0.352500
10.220000,0.557500
10.224000,0.740000
10.228000,0.732500
10.232000,0.532500
10.236000,0.285000
10.240000,0.070000
10.244000,-0.060000
10.248000,-0.105000
10.252000,-0.097500
10.256000,-0.097500
10.260000,-0.052500
10.264000,0.012500
10.268000,0.032500
10.272000,0.040000
10.276000,0.057500
10.280000,0.050000
10.284000,0.017500
10.288000,-0.045000
10.292000,-0.052500
10.296000,-0.040000
10.300000,-0.032500
10.304000,-0.025000
10.308000,-0.040000
10.312000,-0.040000
10.316000,-0.040000
10.320000,0.005000
10.324000,-0.025000
10.328000,-0.060000
10.332000,-0.102500
10.336000,-0.137500
10.340000,-0.180000
10.344000,-0.195000
10.348000,-0.195000
10.352000,-0.162500
10.356000,-0.142500
10.360000,-0.137500
10.364000,-0.157500
10.368000,-0.162500
10.372000,-0.190000
10.376000,-0.195000
10.380000,-0.135000
10.384000,-0.115000
10.388000,-0.085000
10.392000,-0.052500
10.396000,-0.037500
10.400000,-0.032500
10.404000,0.012500
10.408000,-0.032500
10.412000,-0.065000
10.416000,-0.117500
10.420000,-0.195000
10.424000,-0.292500
10.428000,-0.285000
10.432000,-0.272500
10.436000,-0.265000
10.440000,-0.252500
10.444000,-0.202500
10.448000,-0.207500
10.452000,-0.212500
10.456000,-0.195000
10.460000,-0.187500
10.464000,-0.180000
10.468000,-0.170000
10.472000,-0.150000
10.476000,-0.105000
10.480000,-0.065000
10.484000,-0.020000
10.488000,0.092500
10.492000,0.085000
10.496000,-0.032500
10.500000,-0.175000
10.504000,-0.252500
10.508000,-0.297500
10.512000,-0.277500
10.516000,-0.252500
10.520000,-0.207500
10.524000,-0.200000
10.528000,-0.162500
10.532000,-0.142500
10.536000,-0.130000
10.540000,-0.115000
10.544000,-0.082500
10.548000,-0.070000
10.552000,-0.040000
10.556000,-0.052500
10.560000,-0.040000
10.564000,-0.032500
10.568000,-0.027500
10.572000,-0.027500
10.576000,0.085000
10.580000,0.280000
10.584000,0.492500
10.588000,0.547500
10.592000,0.435000
10.596000,0.162500
10.600000,-0.157500
10.604000,-0.332500
10.608000,-0.407500
10.612000,-0.447500
10.616000,-0.407500
10.620000,-0.362500
10.624000,-0.280000
10.628000,-0.220000
10.632000,-0.232500
10.636000,-0.222500
10.640000,-0.190000
10.644000,-0.135000
10.648000,-0.097500
10.652000,-0.065000
10.656000,-0.070000
10.660000,-0.115000
10.664000,-0.122500
10.668000,-0.102500
10.672000,-0.167500
10.676000,-0.200000
10.680000,-0.175000
10.684000,-0.105000
10.688000,-0.037500
10.692000,0.082500
10.696000,0.157500
10.700000,0.142500
10.704000,0.102500
10.708000,0.012500
10.712000,-0.115000
10.716000,-0.182500
10.720000,-0.207500
10.724000,-0.202500
10.728000,-0.157500
10.732000,-0.102500
10.736000,0.025000
10.740000,0.040000
10.744000,0.027500
10.748000,0.020000
10.752000,-0.072500
10.756000,-0.105000
10.760000,-0.060000
10.764000,-0.065000
10.768000,-0.090000
10.772000,-0.090000
10.776000,-0.060000
10.780000,-0.027500
10.784000,-0.037500
10.788000,0.025000
10.792000,0.070000
10.796000,0.027500
10.800000,0.012500
10.804000,0.017500
10.808000,-0.045000
10.812000,-0.040000
10.816000,-0.065000
10.820000,-0.072500
10.824000,-0.072500
10.828000,-0.052500
10.832000,-0.072500
10.836000,-0.032500
10.840000,0.037500
10.844000,0.122500
10.848000,0.142500
10.852000,0.105000
10.856000,0.057500
10.860000,0.052500
10.864000,0.027500
10.868000,0.025000
10.872000,-0.040000
10.876000,-0.077500
10.880000,-0.070000
10.884000,-0.025000
10.888000,-0.027500
10.892000,-0.060000
10.896000,-0.037500
10.900000,-0.057500
10.904000,0.012500
10.908000,0.017500
10.912000,-0.025000
10.916000,-0.070000
10.920000,-0.070000
10.924000,-0.115000
10.928000,-0.085000
10.932000,-0.070000
10.936000,-0.115000
10.940000,-0.102500
10.944000,-0.065000
10.948000,-0.072500
10.952000,-0.057500
10.956000,-0.037500
10.960000,0.070000
10.964000,0.090000
10.968000,0.070000
10.972000,0.037500
10.976000,-0.082500
10.980000,-0.162500
10.984000,-0.212500
10.988000,-0.207500
10.992000,-0.180000
10.996000,-0.142500
11.000000,-0.102500
11.004000,-0.070000
11.008000,-0.082500
11.012000,-0.050000
11.016000,-0.085000
11.020000,-0.105000
11.024000,-0.025000
11.028000,0.012500
11.032000,-0.025000
11.036000,0.037500
11.040000,0.060000
11.044000,0.032500
11.048000,0.097500
11.052000,0.167500
11.056000,0.142500
11.060000,0.082500
11.064000,-0.020000
11.068000,-0.057500
11.072000,-0.082500
11.076000,-0.142500
11.080000,-0.115000
11.084000,-0.102500
11.088000,-0.190000
11.092000,-0.220000
11.096000,-0.200000
11.100000,-0.150000
11.104000,-0.065000
11.108000,0.025000
11.112000,0.060000
11.116000,0.040000
11.120000,-0.025000
11.124000,0.065000
11.128000,0.245000
11.132000,0.280000
11.136000,0.227500
11.140000,0.122500
11.144000,0.077500
11.148000,-0.045000
11.152000,-0.130000
11.156000,-0.167500
11.160000,-0.175000
11.164000,-0.135000
11.168000,-0.090000
11.172000,-0.037500
11.176000,-0.082500
11.180000,-0.092500
11.184000,0.027500
11.188000,0.027500
11.192000,0.027500
11.196000,0.012500
11.200000,0.025000
11.204000,0.020000
11.208000,0.025000
11.212000,0.027500
11.216000,0.045000
11.220000,0.090000
11.224000,0.082500
11.228000,0.070000
11.232000,0.032500
11.236000,-0.027500
11.240000,-0.032500
11.244000,-0.037500
11.248000,-0.025000
11.252000,-0.032500
11.256000,0.005000
11.260000,0.012500
11.264000,0.007500
11.268000,0.027500
11.272000,0.005000
11.276000,-0.037500
11.280000,-0.077500
11.284000,-0.070000
11.288000,-0.065000
11.292000,-0.090000
11.296000,-0.040000
11.300000,-0.050000
11.304000,-0.050000
11.308000,-0.045000
11.312000,-0.070000
11.316000,-0.105000
11.320000,-0.200000
11.324000,-0.277500
11.328000,-0.450000
11.332000,-0.667500
11.336000,-0.787500
11.340000,-0.922500
11.344000,-0.917500
11.348000,-0.897500
11.352000,-0.667500
11.356000,-0.135000
11.360000,0.527500
11.364000,1.287500
11.368000,2.010000
11.372000,2.425000
11.376000,2.665000
11.380000,2.535000
11.384000,2.052500
11.388000,1.350000
11.392000,0.617500
11.396000,0.170000
11.400000,-0.130000
11.404000,-0.245000
11.408000,-0.255000
11.412000,-0.232500
11.416000,-0.117500
11.420000,0.012500
11.424000,0.115000
11.428000,0.090000
11.432000,-0.045000
11.436000,0.037500
11.440000,0.065000
11.444000,0.110000
11.448000,0.135000
11.452000,0.195000
11.456000,0.142500
11.460000,0.142500
11.464000,0.115000
11.468000,0.032500
11.472000,0.037500
11.476000,0.102500
11.480000,0.110000
11.484000,0.150000
11.488000,0.137500
11.492000,0.117500
11.496000,0.150000
11.500000,0.150000
11.504000,0.182500
11.508000,0.180000
11.512000,0.147500
11.516000,0.117500
11.520000,0.147500
11.524000,0.150000
11.528000,0.182500
11.532000,0.200000
11.536000,0.212500
11.540000,0.232500
11.544000,0.277500
11.548000,0.300000
11.552000,0.292500
11.556000,0.272500
11.560000,0.265000
11.564000,0.265000
11.568000,0.272500
11.572000,0.265000
11.576000,0.285000
11.580000,0.285000
11.584000,0.287500
11.588000,0.310000
11.592000,0.375000
11.596000,0.397500
11.600000,0.382500
11.604000,0.330000
11.608000,0.245000
11.612000,0.190000
11.616000,0.170000
11.620000,0.202500
11.624000,0.212500
11.628000,0.255000
11.632000,0.252500
11.636000,0.167500
11.640000,0.105000
11.644000,0.070000
11.648000,0.065000
11.652000,0.102500
11.656000,0.097500
11.660000,0.125000
11.664000,0.162500
11.668000,0.092500
11.672000,-0.105000
11.676000,-0.222500
11.680000,-0.297500
11.684000,-0.312500
11.688000,-0.297500
11.692000,-0.287500
11.696000,-0.252500
11.700000,-0.247500
11.704000,-0.215000
11.708000,-0.182500
11.712000,-0.215000
11.716000,-0.260000
11.720000,-0.202500
11.724000,-0.170000
11.728000,-0.155000
11.732000,-0.142500
11.736000,-0.085000
11.740000,0.000000
11.744000,0.005000
11.748000,-0.050000
11.752000,-0.097500
11.756000,-0.150000
11.760000,-0.150000
11.764000,-0.117500
11.768000,-0.050000
11.772000,0.052500
11.776000,0.125000
11.780000,0.115000
11.784000,0.060000
11.788000,0.025000
11.792000,0.025000
11.796000,0.020000
11.800000,0.040000
11.804000,0.117500
11.808000,0.135000
11.812000,0.097500
11.816000,0.115000
11.820000,0.102500
11.824000,0.085000
11.828000,0.102500
11.832000,0.085000
11.836000,0.065000
11.840000,0.090000
11.844000,0.125000
11.848000,0.155000
11.852000,0.157500
11.856000,0.125000
11.860000,0.092500
11.864000,0.097500
11.868000,0.125000
11.872000,0.142500
11.876000,0.155000
11.880000,0.180000
11.884000,0.200000
11.888000,0.167500
11.892000,0.085000
11.896000,0.077500
11.900000,0.060000
11.904000,0.025000
11.908000,0.027500
11.912000,0.052500
11.916000,0.060000
11.920000,0.122500
11.924000,0.182500
11.928000,0.207500
11.932000,0.195000
11.936000,0.162500
11.940000,0.102500
11.944000,0.155000
11.948000,0.195000
11.952000,0.207500
11.956000,0.180000
11.960000,0.135000
11.964000,0.065000
11.968000,0.040000
11.972000,0.092500
11.976000,0.215000
11.980000,0.280000
11.984000,0.207500
11.988000,0.137500
11.992000,0.085000
11.996000,0.057500
12.000000,0.057500
12.004000,0.082500
12.008000,0.092500
12.012000,0.110000
12.016000,0.115000
12.020000,0.115000
12.024000,0.090000
12.028000,0.070000
12.032000,0.077500
12.036000,0.125000
12.040000,0.142500
12.044000,0.150000
12.048000,0.157500
12.052000,0.130000
12.056000,0.097500
12.060000,0.072500
12.064000,0.045000
12.068000,0.057500
12.072000,0.082500
12.076000,0.077500
12.080000,0.027500
12.084000,-0.090000
12.088000,-0.202500
12.092000,-0.320000
12.096000,-0.505000
12.100000,-0.682500
12.104000,-0.812500
12.108000,-0.922500
12.112000,-0.937500
12.116000,-0.635000
12.120000,0.000000
12.124000,0.557500
12.128000,1.072500
12.132000,1.442500
12.136000,1.657500
12.140000,1.805000
12.144000,1.925000
12.148000,1.877500
12.152000,1.585000
12.156000,1.155000
12.160000,0.800000
12.164000,0.495000
12.168000,0.255000
12.172000,0.220000
12.176000,0.277500
12.180000,0.325000
12.184000,0.330000
12.188000,0.342500
12.192000,0.332500
12.196000,0.325000
12.200000,0.330000
12.204000,0.320000
12.208000,0.287500
12.212000,0.305000
12.216000,0.310000
12.220000,0.285000
12.224000,0.245000
12.228000,0.240000
12.232000,0.267500
12.236000,0.345000
12.240000,0.377500
12.244000,0.320000
12.248000,0.255000
12.252000,0.245000
12.256000,0.255000
12.260000,0.287500
12.264000,0.330000
12.268000,0.352500
12.272000,0.342500
12.276000,0.352500
12.280000,0.382500
12.284000,0.370000
12.288000,0.337500
12.292000,0.320000
12.296000,0.357500
12.300000,0.397500
12.304000,0.455000
12.308000,0.472500
12.312000,0.500000
12.316000,0.492500
12.320000,0.492500
12.324000,0.495000
12.328000,0.515000
12.332000,0.515000
12.336000,0.525000
12.340000,0.500000
12.344000,0.462500
12.348000,0.417500
12.352000,0.410000
12.356000,0.390000
12.360000,0.345000
12.364000,0.292500
12.368000,0.280000
12.372000,0.260000
12.376000,0.255000
12.380000,0.200000
12.384000,0.110000
12.388000,0.085000
12.392000,0.085000
12.396000,0.077500
12.400000,0.027500
12.404000,-0.040000
12.408000,-0.115000
12.412000,-0.105000
12.416000,-0.085000
12.420000,-0.072500
12.424000,-0.097500
12.428000,-0.102500
12.432000,-0.102500
12.436000,-0.117500
12.440000,-0.137500
12.444000,-0.142500
12.448000,-0.137500
12.452000,-0.115000
12.456000,-0.117500
12.460000,-0.137500
12.464000,-0.170000
12.468000,-0.195000
12.472000,-0.195000
12.476000,-0.182500
12.480000,-0.157500
12.484000,-0.180000
12.488000,-0.182500
12.492000,-0.162500
12.496000,-0.147500
12.500000,-0.190000
12.504000,-0.227500
12.508000,-0.232500
12.512000,-0.222500
12.516000,-0.200000
12.520000,-0.190000
12.524000,-0.232500
12.528000,-0.247500
12.532000,-0.265000
12.536000,-0.247500
12.540000,-0.252500
12.544000,-0.255000
12.548000,-0.267500
12.552000,-0.252500
12.556000,-0.227500
12.560000,-0.187500
12.564000,-0.150000
12.568000,-0.147500
12.572000,-0.167500
12.576000,-0.195000
12.580000,-0.190000
12.584000,-0.167500
12.588000,-0.130000
12.592000,-0.142500
12.596000,-0.147500
12.600000,-0.150000
12.604000,-0.162500
12.608000,-0.187500
12.612000,-0.232500
12.616000,-0.287500
12.620000,-0.280000
12.624000,-0.260000
12.628000,-0.220000
12.632000,-0.215000
12.636000,-0.207500
12.640000,-0.187500
12.644000,-0.150000
12.648000,-0.157500
12.652000,-0.170000
12.656000,-0.167500
12.660000,-0.147500
12.664000,-0.117500
12.668000,-0.117500
12.672000,-0.155000
12.676000,-0.167500
12.680000,-0.162500
12.684000,-0.147500
12.688000,-0.142500
12.692000,-0.130000
12.696000,-0.130000
12.700000,-0.155000
12.704000,-0.150000
12.708000,-0.170000
12.712000,-0.142500
12.716000,-0.135000
12.720000,-0.122500
12.724000,-0.135000
12.728000,-0.102500
12.732000,-0.085000
12.736000,-0.032500
12.740000,-0.020000
12.744000,-0.050000
12.748000,-0.102500
12.752000,-0.102500
12.756000,-0.097500
12.760000,-0.072500
12.764000,-0.070000
12.768000,-0.082500
12.772000,-0.110000
12.776000,-0.115000
12.780000,-0.115000
12.784000,-0.105000
12.788000,-0.115000
12.792000,-0.122500
12.796000,-0.137500
12.800000,-0.150000
12.804000,-0.147500
12.808000,-0.157500
12.812000,-0.180000
12.816000,-0.175000
12.820000,-0.137500
12.824000,-0.137500
12.828000,-0.110000
12.832000,-0.147500
12.836000,-0.175000
12.840000,-0.167500
12.844000,-0.147500
12.848000,-0.117500
12.852000,-0.092500
12.856000,-0.125000
12.860000,-0.105000
12.864000,-0.097500
12.868000,-0.090000
12.872000,-0.085000
12.876000,-0.077500
12.880000,-0.065000
12.884000,-0.065000
12.888000,-0.072500
12.892000,-0.065000
12.896000,-0.020000
12.900000,0.007500
12.904000,-0.050000
12.908000,-0.142500
12.912000,-0.157500
12.916000,-0.135000
12.920000,-0.082500
12.924000,-0.070000
12.928000,-0.092500
12.932000,-0.147500
12.936000,-0.157500
12.940000,-0.150000
12.944000,-0.130000
12.948000,-0.142500
12.952000,-0.150000
12.956000,-0.130000
12.960000,-0.060000
12.964000,-0.040000
12.968000,-0.052500
12.972000,-0.045000
12.976000,-0.037500
12.980000,-0.032500
12.984000,0.000000
12.988000,-0.025000
12.992000,-0.065000
12.996000,-0.072500
13.000000,-0.082500
13.004000,-0.082500
13.008000,-0.090000
13.012000,-0.092500
13.016000,-0.130000
13.020000,-0.170000
13.024000,-0.260000
13.028000,-0.377500
13.032000,-0.515000
13.036000,-0.682500
13.040000,-0.897500
13.044000,-1.067500
13.048000,-1.227500
13.052000,-1.287500
13.056000,-1.122500
13.060000,-0.577500
13.064000,0.012500
13.068000,0.547500
13.072000,1.040000
13.076000,1.365000
13.080000,1.600000
13.084000,1.715000
13.088000,1.670000
13.092000,1.422500
13.096000,1.040000
13.100000,0.677500
13.104000,0.430000
13.108000,0.155000
13.112000,0.012500
13.116000,0.027500
13.120000,0.050000
13.124000,0.045000
13.128000,0.005000
13.132000,-0.077500
13.136000,-0.072500
13.140000,-0.020000
13.144000,0.057500
13.148000,0.012500
13.152000,-0.050000
13.156000,-0.070000
13.160000,-0.072500
13.164000,-0.082500
13.168000,-0.082500
13.172000,-0.082500
13.176000,-0.057500
13.180000,0.027500
13.184000,0.092500
13.188000,0.082500
13.192000,0.070000
13.196000,0.117500
13.200000,0.130000
13.204000,0.142500
13.208000,0.155000
13.212000,0.135000
13.216000,0.117500
13.220000,0.122500
13.224000,0.125000
13.228000,0.157500
13.232000,0.187500
13.236000,0.202500
13.240000,0.170000
13.244000,0.157500
13.248000,0.102500
13.252000,0.102500
13.256000,0.155000
13.260000,0.182500
13.264000,0.227500
13.268000,0.202500
13.272000,0.200000
13.276000,0.297500
13.280000,0.332500
13.284000,0.317500
13.288000,0.292500
13.292000,0.292500
13.296000,0.305000
13.300000,0.287500
13.304000,0.227500
13.308000,0.200000
13.312000,0.175000
13.316000,0.180000
13.320000,0.175000
13.324000,0.092500
13.328000,0.082500
13.332000,0.092500
13.336000,0.105000
13.340000,0.082500
13.344000,0.065000
13.348000,0.025000
13.352000,-0.050000
13.356000,-0.060000
13.360000,0.000000
13.364000,-0.085000
13.368000,-0.117500
13.372000,-0.090000
13.376000,-0.117500
13.380000,-0.150000
13.384000,-0.125000
13.388000,-0.102500
13.392000,-0.117500
13.396000,-0.085000
13.400000,-0.070000
13.404000,-0.090000
13.408000,-0.135000
13.412000,-0.157500
13.416000,-0.130000
13.420000,-0.072500
13.424000,-0.057500
13.428000,-0.045000
13.432000,-0.037500
13.436000,-0.052500
13.440000,-0.117500
13.444000,-0.235000
13.448000,-0.267500
13.452000,-0.235000
13.456000,-0.175000
13.460000,-0.105000
13.464000,-0.097500
13.468000,-0.040000
13.472000,-0.072500
13.476000,-0.155000
13.480000,-0.260000
13.484000,-0.310000
13.488000,-0.300000
13.492000,-0.252500
13.496000,-0.202500
13.500000,-0.235000
13.504000,-0.255000
13.508000,-0.245000
13.512000,-0.255000
13.516000,-0.200000
13.520000,-0.187500
13.524000,-0.195000
13.528000,-0.162500
13.532000,-0.150000
13.536000,-0.162500
13.540000,-0.150000
13.544000,-0.115000
13.548000,-0.115000
13.552000,-0.180000
13.556000,-0.200000
13.560000,-0.182500
13.564000,-0.187500
13.568000,-0.240000
13.572000,-0.247500
13.576000,-0.232500
13.580000,-0.167500
13.584000,-0.102500
13.588000,-0.032500
13.592000,-0.052500
13.596000,-0.065000
13.600000,-0.110000
13.604000,-0.102500
13.608000,-0.137500
13.612000,-0.122500
13.616000,-0.110000
13.620000,0.017500
13.624000,0.027500
13.628000,-0.105000
13.632000,-0.150000
13.636000,-0.085000
13.640000,0.045000
13.644000,0.137500
13.648000,0.142500
13.652000,0.110000
13.656000,0.017500
13.660000,-0.032500
13.664000,0.040000
13.668000,-0.020000
13.672000,-0.130000
13.676000,-0.190000
13.680000,-0.202500
13.684000,-0.155000
13.688000,-0.097500
13.692000,0.040000
13.696000,0.125000
13.700000,0.122500
13.704000,0.027500
13.708000,0.005000
13.712000,0.007500
13.716000,0.017500
13.720000,0.012500
13.724000,-0.115000
13.728000,-0.212500
13.732000,-0.200000
13.736000,-0.135000
13.740000,-0.065000
13.744000,-0.105000
13.748000,-0.122500
13.752000,-0.072500
13.756000,-0.070000
13.760000,0.012500
13.764000,-0.052500
13.768000,-0.050000
13.772000,0.040000
13.776000,0.077500
13.780000,0.027500
13.784000,-0.032500
13.788000,-0.097500
13.792000,-0.102500
13.796000,-0.077500
13.800000,-0.057500
13.804000,-0.070000
13.808000,-0.102500
13.812000,-0.102500
13.816000,-0.117500
13.820000,-0.032500
13.824000,-0.027500
13.828000,-0.050000
13.832000,-0.072500
13.836000,-0.097500
13.840000,-0.045000
13.844000,0.102500
13.848000,0.155000
13.852000,0.117500
13.856000,0.110000
13.860000,0.037500
13.864000,-0.040000
13.868000,-0.020000
13.872000,0.017500
13.876000,0.065000
13.880000,0.072500
13.884000,0.000000
13.888000,-0.045000
13.892000,0.040000
13.896000,0.072500
13.900000,-0.050000
13.904000,-0.102500
13.908000,-0.147500
13.912000,-0.097500
13.916000,-0.072500
13.920000,-0.037500
13.924000,-0.037500
13.928000,0.012500
13.932000,0.105000
13.936000,0.195000
13.940000,0.142500
13.944000,0.122500
13.948000,0.012500
13.952000,-0.045000
13.956000,0.025000
13.960000,-0.045000
13.964000,-0.025000
13.968000,-0.057500
13.972000,-0.077500
13.976000,-0.090000
13.980000,-0.195000
13.984000,-0.180000
13.988000,-0.040000
13.992000,0.025000
13.996000,0.045000
14.000000,0.102500
14.004000,0.077500
14.008000,0.017500
14.012000,-0.025000
14.016000,0.050000
14.020000,0.077500
14.024000,0.070000
14.028000,0.052500
14.032000,-0.060000
14.036000,-0.195000
14.040000,-0.320000
14.044000,-0.435000
14.048000,-0.622500
14.052000,-0.812500
14.056000,-1.015000
14.060000,-1.047500
14.064000,-0.930000
14.068000,-0.520000
14.072000,0.050000
14.076000,0.580000
14.080000,1.097500
14.084000,1.455000
14.088000,1.645000
14.092000,1.715000
14.096000,1.697500
14.100000,1.522500
14.104000,1.190000
14.108000,0.772500
14.112000,0.537500
14.116000,0.382500
14.120000,0.272500
14.124000,0.272500
14.128000,0.312500
14.132000,0.287500
14.136000,0.252500
14.140000,0.232500
14.144000,0.260000
14.148000,0.260000
14.152000,0.240000
14.156000,0.215000
14.160000,0.207500
14.164000,0.187500
14.168000,0.170000
14.172000,0.170000
14.176000,0.157500
14.180000,0.135000
14.184000,0.155000
14.188000,0.202500
14.192000,0.215000
14.196000,0.215000
14.200000,0.190000
14.204000,0.157500
14.208000,0.155000
14.212000,0.175000
14.216000,0.180000
14.220000,0.190000
14.224000,0.180000
14.228000,0.215000
14.232000,0.240000
14.236000,0.222500
14.240000,0.167500
14.244000,0.130000
14.248000,0.117500
14.252000,0.170000
14.256000,0.240000
14.260000,0.235000
14.264000,0.190000
14.268000,0.187500
14.272000,0.200000
14.276000,0.235000
14.280000,0.215000
14.284000,0.175000
14.288000,0.170000
14.292000,0.220000
14.296000,0.320000
14.300000,0.325000
14.304000,0.272500
14.308000,0.227500
14.312000,0.195000
14.316000,0.162500
14.320000,0.162500
14.324000,0.137500
14.328000,0.105000
14.332000,0.102500
14.336000,0.122500
14.340000,0.175000
14.344000,0.245000
14.348000,0.222500
14.352000,0.190000
14.356000,0.157500
14.360000,0.105000
14.364000,0.097500
14.368000,0.077500
14.372000,0.032500
14.376000,-0.037500
14.380000,-0.032500
14.384000,0.077500
14.388000,0.162500
14.392000,0.200000
14.396000,0.157500
14.400000,0.110000
14.404000,0.050000
14.408000,0.040000
14.412000,0.122500
14.416000,0.135000
14.420000,0.130000
14.424000,0.125000
14.428000,0.167500
14.432000,0.182500
14.436000,0.195000
14.440000,0.200000
14.444000,0.200000
14.448000,0.200000
14.452000,0.130000
14.456000,0.097500
14.460000,0.122500
14.464000,0.102500
14.468000,0.082500
14.472000,0.117500
14.476000,0.125000
14.480000,0.137500
14.484000,0.200000
14.488000,0.162500
14.492000,0.122500
14.496000,0.105000
14.500000,0.077500
14.504000,0.077500
14.508000,0.102500
14.512000,0.137500
14.516000,0.150000
14.520000,0.175000
14.524000,0.125000
14.528000,0.060000
14.532000,0.012500
14.536000,0.027500
14.540000,0.025000
14.544000,0.027500
14.548000,0.032500
14.552000,0.060000
14.556000,0.070000
14.560000,0.092500
14.564000,0.135000
14.568000,0.155000
14.572000,0.137500
14.576000,0.110000
14.580000,0.072500
14.584000,0.050000
14.588000,0.017500
14.592000,0.025000
14.596000,0.037500
14.600000,0.027500
14.604000,0.037500
14.608000,0.057500
14.612000,0.085000
14.616000,0.105000
14.620000,0.147500
14.624000,0.167500
14.628000,0.170000
14.632000,0.142500
14.636000,0.142500
14.640000,0.147500
14.644000,0.147500
14.648000,0.147500
14.652000,0.147500
14.656000,0.142500
14.660000,0.125000
14.664000,0.117500
14.668000,0.092500
14.672000,0.070000
14.676000,0.070000
14.680000,0.092500
14.684000,0.115000
14.688000,0.110000
14.692000,0.092500
14.696000,0.070000
14.700000,0.027500
14.704000,0.027500
14.708000,0.060000
14.712000,0.097500
14.716000,0.117500
14.720000,0.150000
14.724000,0.142500
14.728000,0.162500
14.732000,0.157500
14.736000,0.157500
14.740000,0.147500
14.744000,0.147500
14.748000,0.150000
14.752000,0.155000
14.756000,0.147500
14.760000,0.162500
14.764000,0.155000
14.768000,0.142500
14.772000,0.122500
14.776000,0.097500
14.780000,0.092500
14.784000,0.105000
14.788000,0.125000
14.792000,0.137500
14.796000,0.142500
14.800000,0.155000
14.804000,0.175000
14.808000,0.207500
14.812000,0.240000
14.816000,0.220000
14.820000,0.187500
14.824000,0.162500
14.828000,0.175000
14.832000,0.162500
14.836000,0.187500
14.840000,0.207500
14.844000,0.215000
14.848000,0.200000
14.852000,0.190000
14.856000,0.180000
14.860000,0.170000
14.864000,0.150000
14.868000,0.142500
14.872000,0.142500
14.876000,0.150000
14.880000,0.167500
14.884000,0.175000
14.888000,0.122500
14.892000,0.027500
14.896000,0.032500
14.900000,0.025000
14.904000,0.000000
14.908000,-0.025000
14.912000,-0.027500
14.916000,-0.027500
14.920000,0.000000
14.924000,-0.025000
14.928000,-0.040000
14.932000,-0.122500
14.936000,-0.227500
14.940000,-0.345000
14.944000,-0.475000
14.948000,-0.700000
14.952000,-0.915000
14.956000,-1.092500
14.960000,-1.240000
14.964000,-1.267500
14.968000,-0.950000
14.972000,-0.325000
14.976000,0.272500
14.980000,0.787500
14.984000,1.150000
14.988000,1.385000
14.992000,1.587500
14.996000,1.727500
15.000000,1.670000
15.004000,1.337500
15.008000,0.870000
15.012000,0.480000
15.016000,0.227500
15.020000,0.032500
15.024000,-0.045000
15.028000,0.040000
15.032000,0.070000
15.036000,0.070000
15.040000,0.052500
15.044000,0.032500
15.048000,0.025000
15.052000,0.065000
15.056000,0.092500
15.060000,0.097500
15.064000,0.077500
15.068000,0.060000
15.072000,0.037500
15.076000,0.000000
15.080000,-0.040000
15.084000,-0.037500
15.088000,-0.032500
15.092000,-0.027500
15.096000,0.000000
15.100000,0.025000
15.104000,0.052500
15.108000,0.092500
15.112000,0.102500
15.116000,0.090000
15.120000,0.077500
15.124000,0.045000
15.128000,0.037500
15.132000,0.037500
15.136000,0.077500
15.140000,0.117500
15.144000,0.137500
15.148000,0.125000
15.152000,0.122500
15.156000,0.115000
15.160000,0.155000
15.164000,0.170000
15.168000,0.195000
15.172000,0.220000
15.176000,0.227500
15.180000,0.212500
15.184000,0.180000
15.188000,0.182500
15.192000,0.182500
15.196000,0.180000
15.200000,0.155000
15.204000,0.157500
15.208000,0.137500
15.212000,0.097500
15.216000,0.070000
15.220000,0.057500
15.224000,0.017500
15.228000,0.000000
15.232000,-0.085000
15.236000,-0.142500
15.240000,-0.155000
15.244000,-0.092500
15.248000,-0.052500
15.252000,-0.050000
15.256000,-0.072500
15.260000,-0.085000
15.264000,-0.105000
15.268000,-0.117500
15.272000,-0.175000
15.276000,-0.220000
15.280000,-0.202500
15.284000,-0.175000
15.288000,-0.142500
15.292000,-0.135000
15.296000,-0.125000
15.300000,-0.155000
15.304000,-0.180000
15.308000,-0.195000
15.312000,-0.187500
15.316000,-0.202500
15.320000,-0.227500
15.324000,-0.260000
15.328000,-0.232500
15.332000,-0.235000
15.336000,-0.227500
15.340000,-0.247500
15.344000,-0.265000
15.348000,-0.297500
15.352000,-0.285000
15.356000,-0.245000
15.360000,-0.222500
15.364000,-0.222500
15.368000,-0.190000
15.372000,-0.212500
15.376000,-0.222500
15.380000,-0.240000
15.384000,-0.245000
15.388000,-0.252500
15.392000,-0.245000
15.396000,-0.232500
15.400000,-0.260000
15.404000,-0.260000
15.408000,-0.245000
15.412000,-0.222500
15.416000,-0.222500
15.420000,-0.190000
15.424000,-0.182500
15.428000,-0.162500
15.432000,-0.157500
15.436000,-0.155000
15.440000,-0.175000
15.444000,-0.180000
15.448000,-0.227500
15.452000,-0.267500
15.456000,-0.297500
15.460000,-0.320000
15.464000,-0.292500
15.468000,-0.212500
15.472000,-0.162500
15.476000,-0.162500
15.480000,-0.170000
15.484000,-0.212500
15.488000,-0.227500
15.492000,-0.245000
15.496000,-0.167500
15.500000,-0.137500
15.504000,-0.125000
15.508000,-0.085000
15.512000,-0.072500
15.516000,-0.065000
15.520000,-0.052500
15.524000,-0.082500
15.528000,-0.137500
15.532000,-0.162500
15.536000,-0.157500
15.540000,-0.232500
15.544000,-0.342500
15.548000,-0.460000
15.552000,-0.545000
15.556000,-0.765000
15.560000,-1.000000
15.564000,-1.182500
15.568000,-1.352500
15.572000,-1.425000
15.576000,-1.222500
15.580000,-0.690000
15.584000,-0.182500
15.588000,0.260000
15.592000,0.682500
15.596000,1.052500
15.600000,1.317500
15.604000,1.545000
15.608000,1.600000
15.612000,1.410000
15.616000,1.015000
15.620000,0.630000
15.624000,0.417500
15.628000,0.190000
15.632000,-0.057500
15.636000,0.025000
15.640000,0.065000
15.644000,0.012500
15.648000,-0.060000
15.652000,-0.090000
15.656000,-0.105000
15.660000,-0.092500
15.664000,-0.072500
15.668000,-0.085000
15.672000,-0.090000
15.676000,0.005000
15.680000,0.102500
15.684000,0.122500
15.688000,0.072500
15.692000,0.052500
15.696000,0.032500
15.700000,0.017500
15.704000,0.005000
15.708000,0.005000
15.712000,0.025000
15.716000,0.102500
15.720000,0.135000
15.724000,0.097500
15.728000,0.125000
15.732000,0.135000
15.736000,0.162500
15.740000,0.212500
15.744000,0.232500
15.748000,0.260000
15.752000,0.235000
15.756000,0.175000
15.760000,0.137500
15.764000,0.195000
15.768000,0.255000
15.772000,0.267500
15.776000,0.240000
15.780000,0.220000
15.784000,0.182500
15.788000,0.240000
15.792000,0.212500
15.796000,0.125000
15.800000,0.060000
15.804000,0.017500
15.808000,0.060000
15.812000,0.147500
15.816000,0.170000
15.820000,0.190000
15.824000,0.155000
15.828000,0.115000
15.832000,0.027500
15.836000,-0.020000
15.840000,-0.070000
15.844000,-0.125000
15.848000,-0.170000
15.852000,-0.190000
15.856000,-0.125000
15.860000,-0.102500
15.864000,-0.180000
15.868000,-0.235000
15.872000,-0.267500
15.876000,-0.170000
15.880000,-0.065000
15.884000,-0.085000
15.888000,-0.117500
15.892000,-0.147500
15.896000,-0.200000
15.900000,-0.220000
15.904000,-0.180000
15.908000,-0.147500
15.912000,-0.142500
15.916000,-0.162500
15.920000,-0.150000
15.924000,-0.182500
15.928000,-0.167500
15.932000,-0.147500
15.936000,-0.122500
15.940000,-0.115000
15.944000,-0.155000
15.948000,-0.085000
15.952000,0.050000
15.956000,0.060000
15.960000,0.007500
15.964000,-0.110000
15.968000,-0.182500
15.972000,-0.162500
15.976000,-0.105000
15.980000,-0.070000
15.984000,-0.142500
15.988000,-0.162500
15.992000,-0.235000
15.996000,-0.220000
16.000000,-0.137500
16.004000,-0.092500
16.008000,-0.090000
16.012000,-0.162500
16.016000,-0.187500
16.020000,-0.150000
16.024000,-0.175000
16.028000,-0.190000
16.032000,-0.175000
16.036000,-0.180000
16.040000,-0.147500
16.044000,-0.050000
16.048000,0.005000
16.052000,-0.102500
16.056000,-0.202500
16.060000,-0.157500
16.064000,-0.157500
16.068000,-0.130000
16.072000,-0.142500
16.076000,-0.157500
16.080000,-0.122500
16.084000,-0.137500
16.088000,-0.155000
16.092000,-0.212500
16.096000,-0.280000
16.100000,-0.235000
16.104000,-0.180000
16.108000,-0.097500
16.112000,-0.037500
16.116000,-0.102500
16.120000,-0.150000
16.124000,-0.222500
16.128000,-0.207500
16.132000,-0.130000
16.136000,-0.040000
16.140000,0.017500
16.144000,0.007500
16.148000,-0.040000
16.152000,0.007500
16.156000,-0.072500
16.160000,-0.135000
16.164000,-0.125000
16.168000,-0.065000
16.172000,0.005000
16.176000,0.070000
16.180000,0.052500
16.184000,-0.070000
16.188000,-0.170000
16.192000,-0.180000
16.196000,-0.125000
16.200000,-0.195000
16.204000,-0.175000
16.208000,-0.115000
16.212000,-0.102500
16.216000,-0.162500
16.220000,-0.097500
16.224000,0.007500
16.228000,0.045000
16.232000,-0.040000
16.236000,-0.097500
16.240000,-0.182500
16.244000,-0.202500
16.248000,-0.125000
16.252000,-0.040000
16.256000,-0.065000
16.260000,-0.130000
16.264000,-0.102500
16.268000,-0.102500
16.272000,-0.082500
16.276000,-0.040000
16.280000,0.000000
16.284000,0.012500
16.288000,-0.027500
16.292000,-0.052500
16.296000,-0.040000
16.300000,-0.032500
16.304000,-0.025000
16.308000,-0.032500
16.312000,-0.050000
16.316000,-0.070000
16.320000,-0.040000
16.324000,-0.040000
16.328000,-0.025000
16.332000,0.040000
16.336000,0.082500
16.340000,0.070000
16.344000,0.037500
16.348000,0.027500
16.352000,0.017500
16.356000,0.027500
16.360000,0.025000
16.364000,-0.027500
16.368000,0.032500
16.372000,0.025000
16.376000,0.027500
16.380000,0.000000
16.384000,-0.025000
16.388000,0.065000
16.392000,0.077500
16.396000,0.045000
16.400000,-0.040000
16.404000,-0.082500
16.408000,-0.077500
16.412000,-0.072500
16.416000,-0.082500
16.420000,-0.102500
16.424000,-0.072500
16.428000,0.065000
16.432000,0.070000
16.436000,0.012500
16.440000,-0.032500
16.444000,-0.032500
16.448000,-0.105000
16.452000,-0.117500
16.456000,-0.130000
16.460000,-0.102500
16.464000,-0.052500
16.468000,-0.050000
16.472000,-0.102500
16.476000,-0.142500
16.480000,-0.060000
16.484000,0.012500
16.488000,0.052500
16.492000,0.017500
16.496000,-0.072500
16.500000,-0.130000
16.504000,-0.117500
16.508000,-0.150000
16.512000,-0.220000
16.516000,-0.175000
16.520000,-0.082500
16.524000,0.020000
16.528000,0.090000
16.532000,0.040000
16.536000,-0.070000
16.540000,-0.057500
16.544000,0.077500
16.548000,0.180000
16.552000,0.180000
16.556000,0.162500
16.560000,0.110000
16.564000,0.050000
16.568000,0.082500
16.572000,0.105000
16.576000,0.115000
16.580000,0.117500
16.584000,0.115000
16.588000,0.110000
16.592000,0.097500
16.596000,0.115000
16.600000,0.110000
16.604000,0.077500
16.608000,0.050000
16.612000,0.052500
16.616000,0.077500
16.620000,0.115000
16.624000,0.150000
16.628000,0.202500
16.632000,0.190000
16.636000,0.167500
16.640000,0.122500
16.644000,0.092500
16.648000,0.092500
16.652000,0.117500
16.656000,0.090000
16.660000,0.057500
16.664000,0.052500
16.668000,0.032500
16.672000,0.032500
16.676000,0.050000
16.680000,0.092500
16.684000,0.130000
16.688000,0.167500
16.692000,0.195000
16.696000,0.187500
16.700000,0.135000
16.704000,0.117500
16.708000,0.092500
16.712000,0.037500
16.716000,0.027500
16.720000,0.090000
16.724000,0.097500
16.728000,0.125000
16.732000,0.157500
16.736000,0.135000
16.740000,0.097500
16.744000,0.097500
16.748000,0.085000
16.752000,0.090000
16.756000,0.102500
16.760000,0.117500
16.764000,0.102500
16.768000,0.072500
16.772000,0.025000
16.776000,0.045000
16.780000,0.102500
16.784000,0.125000
16.788000,0.122500
16.792000,0.045000
16.796000,0.007500
16.800000,-0.037500
16.804000,-0.040000
16.808000,0.027500
16.812000,0.040000
16.816000,0.040000
16.820000,0.057500
16.824000,0.045000
16.828000,0.057500
16.832000,0.082500
16.836000,0.115000
16.840000,0.102500
16.844000,0.125000
16.848000,0.130000
16.852000,0.070000
16.856000,0.052500
16.860000,0.077500
16.864000,0.102500
16.868000,0.122500
16.872000,0.157500
16.876000,0.125000
16.880000,0.005000
16.884000,-0.167500
16.888000,-0.245000
16.892000,-0.397500
16.896000,-0.602500
16.900000,-0.787500
16.904000,-0.917500
16.908000,-0.975000
16.912000,-0.752500
16.916000,-0.170000
16.920000,0.462500
16.924000,1.047500
16.928000,1.527500
16.932000,1.775000
16.936000,1.975000
16.940000,2.065000
16.944000,2.010000
16.948000,1.767500
16.952000,1.365000
16.956000,0.967500
16.960000,0.727500
16.964000,0.480000
16.968000,0.300000
16.972000,0.332500
16.976000,0.402500
16.980000,0.422500
16.984000,0.415000
16.988000,0.385000
16.992000,0.365000
16.996000,0.395000
17.000000,0.422500
17.004000,0.410000
17.008000,0.362500
17.012000,0.362500
17.016000,0.422500
17.020000,0.480000
17.024000,0.467500
17.028000,0.460000
17.032000,0.455000
17.036000,0.440000
17.040000,0.407500
17.044000,0.417500
17.048000,0.455000
17.052000,0.507500
17.056000,0.525000
17.060000,0.520000
17.064000,0.472500
17.068000,0.417500
17.072000,0.410000
17.076000,0.442500
17.080000,0.492500
17.084000,0.557500
17.088000,0.577500
17.092000,0.585000
17.096000,0.597500
17.100000,0.592500
17.104000,0.602500
17.108000,0.612500
17.112000,0.602500
17.116000,0.577500
17.120000,0.585000
17.124000,0.577500
17.128000,0.580000
17.132000,0.590000
17.136000,0.610000
17.140000,0.605000
17.144000,0.617500
17.148000,0.597500
17.152000,0.572500
17.156000,0.557500
17.160000,0.540000
17.164000,0.495000
17.168000,0.450000
17.172000,0.407500
17.176000,0.382500
17.180000,0.375000
17.184000,0.370000
17.188000,0.345000
17.192000,0.312500
17.196000,0.280000
17.200000,0.245000
17.204000,0.220000
17.208000,0.195000
17.212000,0.187500
17.216000,0.155000
17.220000,0.142500
17.224000,0.125000
17.228000,0.137500
17.232000,0.135000
17.236000,0.142500
17.240000,0.137500
17.244000,0.130000
17.248000,0.115000
17.252000,0.122500
17.256000,0.125000
17.260000,0.122500
17.264000,0.122500
17.268000,0.125000
17.272000,0.130000
17.276000,0.137500
17.280000,0.137500
17.284000,0.122500
17.288000,0.122500
17.292000,0.105000
17.296000,0.110000
17.300000,0.125000
17.304000,0.130000
17.308000,0.135000
17.312000,0.142500
17.316000,0.130000
17.320000,0.137500
17.324000,0.125000
17.328000,0.147500
17.332000,0.157500
17.336000,0.155000
17.340000,0.115000
17.344000,0.125000
17.348000,0.137500
17.352000,0.135000
17.356000,0.105000
17.360000,0.102500
17.364000,0.092500
17.368000,0.077500
17.372000,0.085000
17.376000,0.077500
17.380000,0.060000
17.384000,0.050000
17.388000,0.040000
17.392000,0.052500
17.396000,0.070000
17.400000,0.070000
17.404000,0.082500
17.408000,0.090000
17.412000,0.090000
17.416000,0.077500
17.420000,0.077500
17.424000,0.057500
17.428000,0.045000
17.432000,0.027500
17.436000,0.045000
17.440000,0.050000
17.444000,0.057500
17.448000,0.032500
17.452000,0.007500
17.456000,0.012500
17.460000,0.027500
17.464000,0.052500
17.468000,0.082500
17.472000,0.105000
17.476000,0.130000
17.480000,0.142500
17.484000,0.142500
17.488000,0.125000
17.492000,0.117500
17.496000,0.150000
17.500000,0.170000
17.504000,0.187500
17.508000,0.190000
17.512000,0.202500
17.516000,0.195000
17.520000,0.195000
17.524000,0.182500
17.528000,0.155000
17.532000,0.125000
17.536000,0.155000
17.540000,0.180000
17.544000,0.182500
17.548000,0.170000
17.552000,0.170000
17.556000,0.187500
17.560000,0.195000
17.564000,0.157500
17.568000,0.105000
17.572000,0.092500
17.576000,0.110000
17.580000,0.117500
17.584000,0.115000
17.588000,0.085000
17.592000,0.065000
17.596000,0.072500
17.600000,0.070000
17.604000,0.070000
17.608000,0.052500
17.612000,0.045000
17.616000,0.027500
17.620000,0.017500
17.624000,-0.037500
17.628000,-0.050000
17.632000,-0.040000
17.636000,-0.040000
17.640000,-0.060000
17.644000,-0.045000
17.648000,-0.040000
17.652000,-0.027500
17.656000,-0.040000
17.660000,-0.070000
17.664000,-0.077500
17.668000,-0.110000
17.672000,-0.125000
17.676000,-0.122500
17.680000,-0.077500
17.684000,-0.027500
17.688000,0.007500
17.692000,0.017500
17.696000,0.005000
17.700000,-0.040000
17.704000,-0.037500
17.708000,0.000000
17.712000,0.020000
17.716000,-0.025000
17.720000,-0.040000
17.724000,-0.065000
17.728000,-0.065000
17.732000,-0.052500
17.736000,0.000000
17.740000,0.027500
17.744000,0.040000
17.748000,0.025000
17.752000,0.032500
17.756000,-0.025000
17.760000,-0.097500
17.764000,-0.207500
17.768000,-0.345000
17.772000,-0.472500
17.776000,-0.675000
17.780000,-0.915000
17.784000,-1.110000
17.788000,-1.285000
17.792000,-1.292500
17.796000,-0.902500
17.800000,-0.245000
17.804000,0.350000
17.808000,0.870000
17.812000,1.300000
17.816000,1.540000
17.820000,1.697500
17.824000,1.722500
17.828000,1.632500
17.832000,1.360000
17.836000,0.992500
17.840000,0.682500
17.844000,0.440000
17.848000,0.157500
17.852000,0.065000
17.856000,0.125000
17.860000,0.182500
17.864000,0.157500
17.868000,0.155000
17.872000,0.125000
17.876000,0.097500
17.880000,0.102500
17.884000,0.090000
17.888000,0.060000
17.892000,0.065000
17.896000,0.097500
17.900000,0.125000
17.904000,0.142500
17.908000,0.090000
17.912000,0.072500
17.916000,0.072500
17.920000,0.122500
17.924000,0.155000
17.928000,0.182500
17.932000,0.150000
17.936000,0.115000
17.940000,0.065000
17.944000,0.070000
17.948000,0.130000
17.952000,0.175000
17.956000,0.170000
17.960000,0.212500
17.964000,0.235000
17.968000,0.235000
17.972000,0.252500
17.976000,0.222500
17.980000,0.190000
17.984000,0.142500
17.988000,0.157500
17.992000,0.182500
17.996000,0.202500
18.000000,0.240000
18.004000,0.227500
18.008000,0.215000
18.012000,0.220000
18.016000,0.202500
18.020000,0.202500
18.024000,0.247500
18.028000,0.255000
18.032000,0.222500
18.036000,0.232500
18.040000,0.212500
18.044000,0.207500
18.048000,0.175000
18.052000,0.137500
18.056000,0.157500
18.060000,0.125000
18.064000,0.082500
18.068000,0.077500
18.072000,0.070000
18.076000,0.065000
18.080000,0.057500
18.084000,0.097500
18.088000,0.025000
18.092000,-0.082500
18.096000,-0.065000
18.100000,-0.082500
18.104000,-0.130000
18.108000,-0.180000
18.112000,-0.157500
18.116000,-0.180000
18.120000,-0.135000
18.124000,-0.117500
18.128000,-0.130000
18.132000,-0.130000
18.136000,-0.060000
18.140000,-0.065000
18.144000,-0.105000
18.148000,-0.122500
18.152000,-0.085000
18.156000,-0.065000
18.160000,-0.072500
18.164000,-0.072500
18.168000,-0.125000
18.172000,-0.170000
18.176000,-0.155000
18.180000,-0.155000
18.184000,-0.167500
18.188000,-0.147500
18.192000,-0.170000
18.196000,-0.135000
18.200000,-0.187500
18.204000,-0.212500
18.208000,-0.200000
18.212000,-0.137500
18.216000,-0.167500
18.220000,-0.125000
18.224000,-0.147500
18.228000,-0.227500
18.232000,-0.277500
18.236000,-0.222500
18.240000,-0.175000
18.244000,-0.130000
18.248000,-0.150000
18.252000,-0.267500
18.256000,-0.260000
18.260000,-0.182500
18.264000,-0.182500
18.268000,-0.260000
18.272000,-0.245000
18.276000,-0.292500
18.280000,-0.245000
18.284000,-0.135000
18.288000,-0.115000
18.292000,-0.162500
18.296000,-0.162500
18.300000,-0.195000
18.304000,-0.182500
18.308000,-0.202500
18.312000,-0.252500
18.316000,-0.202500
18.320000,-0.135000
18.324000,-0.187500
18.328000,-0.232500
18.332000,-0.180000
18.336000,-0.130000
18.340000,-0.122500
18.344000,-0.060000
18.348000,-0.037500
18.352000,-0.117500
18.356000,-0.162500
18.360000,-0.130000
18.364000,-0.060000
18.368000,-0.040000
18.372000,-0.057500
18.376000,-0.045000
18.380000,-0.025000
18.384000,-0.090000
18.388000,-0.125000
18.392000,-0.077500
18.396000,-0.040000
18.400000,-0.037500
18.404000,-0.027500
18.408000,-0.065000
18.412000,-0.102500
18.416000,-0.125000
18.420000,-0.142500
18.424000,-0.150000
18.428000,-0.097500
18.432000,-0.147500
18.436000,-0.135000
18.440000,-0.117500
18.444000,-0.092500
18.448000,-0.150000
18.452000,-0.182500
18.456000,-0.175000
18.460000,-0.182500
18.464000,-0.117500
18.468000,-0.070000
18.472000,-0.060000
18.476000,-0.105000
18.480000,-0.155000
18.484000,-0.212500
18.488000,-0.252500
18.492000,-0.190000
18.496000,-0.150000
18.500000,-0.202500
18.504000,-0.247500
18.508000,-0.312500
18.512000,-0.320000
18.516000,-0.255000
18.520000,-0.130000
18.524000,-0.082500
18.528000,-0.122500
18.532000,-0.232500
18.536000,-0.232500
18.540000,-0.200000
18.544000,-0.170000
18.548000,-0.155000
18.552000,-0.105000
18.556000,-0.097500
18.560000,-0.070000
18.564000,-0.090000
18.568000,-0.155000
18.572000,-0.190000
18.576000,-0.222500
18.580000,-0.182500
18.584000,-0.130000
18.588000,-0.170000
18.592000,-0.195000
18.596000,-0.167500
18.600000,-0.092500
18.604000,0.027500
18.608000,0.117500
18.612000,0.142500
18.616000,0.070000
18.620000,0.007500
18.624000,-0.117500
18.628000,-0.157500
18.632000,-0.150000
18.636000,-0.252500
18.640000,-0.402500
18.644000,-0.495000
18.648000,-0.482500
18.652000,-0.557500
18.656000,-0.785000
18.660000,-1.007500
18.664000,-1.175000
18.668000,-1.300000
18.672000,-1.165000
18.676000,-0.622500
18.680000,-0.102500
18.684000,0.357500
18.688000,0.902500
18.692000,1.255000
18.696000,1.545000
18.700000,1.665000
18.704000,1.707500
18.708000,1.490000
18.712000,1.105000
18.716000,0.715000
18.720000,0.462500
18.724000,0.190000
18.728000,0.060000
18.732000,0.137500
18.736000,0.157500
18.740000,0.135000
18.744000,0.117500
18.748000,0.072500
18.752000,0.077500
18.756000,0.182500
18.760000,0.187500
18.764000,0.052500
18.768000,0.000000
18.772000,-0.040000
18.776000,0.110000
18.780000,0.227500
18.784000,0.240000
18.788000,0.155000
18.792000,0.012500
18.796000,0.020000
18.800000,0.102500
18.804000,0.200000
18.808000,0.215000
18.812000,0.212500
18.816000,0.155000
18.820000,0.110000
18.824000,0.187500
18.828000,0.212500
18.832000,0.135000
18.836000,0.135000
18.840000,0.167500
18.844000,0.245000
18.848000,0.375000
18.852000,0.455000
18.856000,0.402500
18.860000,0.252500
18.864000,0.125000
18.868000,0.155000
18.872000,0.247500
18.876000,0.255000
18.880000,0.200000
18.884000,0.147500
18.888000,0.137500
18.892000,0.175000
18.896000,0.220000
18.900000,0.245000
18.904000,0.247500
18.908000,0.285000
18.912000,0.292500
18.916000,0.227500
18.920000,0.135000
18.924000,0.097500
18.928000,0.187500
18.932000,0.207500
18.936000,0.110000
18.940000,-0.092500
18.944000,-0.147500
18.948000,0.007500
18.952000,0.130000
18.956000,0.240000
18.960000,0.222500
18.964000,0.077500
18.968000,0.005000
18.972000,-0.045000
18.976000,0.057500
18.980000,0.115000
18.984000,0.082500
18.988000,-0.032500
18.992000,-0.135000
18.996000,-0.190000
19.000000,-0.130000
19.004000,-0.115000
19.008000,-0.045000
19.012000,0.072500
19.016000,0.007500
19.020000,-0.032500
19.024000,-0.027500
19.028000,-0.027500
19.032000,-0.037500
19.036000,0.037500
19.040000,0.027500
19.044000,-0.082500
19.048000,-0.057500
19.052000,0.000000
19.056000,-0.065000
19.060000,-0.167500
19.064000,-0.247500
19.068000,-0.232500
19.072000,-0.227500
19.076000,-0.157500
19.080000,-0.050000
19.084000,-0.060000
19.088000,-0.092500
19.092000,-0.102500
19.096000,-0.175000
19.100000,-0.200000
19.104000,-0.122500
19.108000,-0.065000
19.112000,-0.057500
19.116000,-0.110000
19.120000,-0.195000
19.124000,-0.265000
19.128000,-0.200000
19.132000,-0.162500
19.136000,-0.155000
19.140000,-0.122500
19.144000,-0.092500
19.148000,-0.105000
19.152000,0.000000
19.156000,0.000000
19.160000,-0.072500
19.164000,-0.085000
19.168000,-0.057500
19.172000,-0.105000
19.176000,-0.150000
19.180000,-0.255000
19.184000,-0.280000
19.188000,-0.195000
19.192000,-0.147500
19.196000,-0.077500
19.200000,0.037500
19.204000,0.150000
19.208000,0.147500
19.212000,0.147500
19.216000,0.060000
19.220000,-0.025000
19.224000,-0.032500
19.228000,0.017500
19.232000,0.012500
19.236000,-0.045000
19.240000,-0.060000
19.244000,-0.032500
19.248000,-0.032500
19.252000,-0.027500
19.256000,0.005000
19.260000,0.000000
19.264000,-0.032500
19.268000,-0.032500
19.272000,0.060000
19.276000,0.122500
19.280000,0.137500
19.284000,0.045000
19.288000,-0.072500
19.292000,-0.040000
19.296000,0.020000
19.300000,-0.027500
19.304000,-0.027500
19.308000,-0.072500
19.312000,-0.020000
19.316000,0.085000
19.320000,0.142500
19.324000,0.072500
19.328000,-0.037500
19.332000,-0.122500
19.336000,-0.065000
19.340000,0.045000
19.344000,0.092500
19.348000,0.125000
19.352000,0.097500
19.356000,0.037500
19.360000,0.025000
19.364000,0.057500
19.368000,0.082500
19.372000,0.060000
19.376000,0.025000
19.380000,-0.027500
19.384000,-0.085000
19.388000,-0.195000
19.392000,-0.305000
19.396000,-0.410000
19.400000,-0.630000
19.404000,-0.857500
19.408000,-1.045000
19.412000,-1.170000
19.416000,-1.182500
19.420000,-0.840000
19.424000,-0.232500
19.428000,0.305000
19.432000,0.785000
19.436000,1.202500
19.440000,1.487500
19.444000,1.710000
19.448000,1.852500
19.452000,1.837500
19.456000,1.532500
19.460000,1.072500
19.464000,0.690000
19.468000,0.422500
19.472000,0.137500
19.476000,0.025000
19.480000,0.085000
19.484000,0.137500
19.488000,0.135000
19.492000,0.142500
19.496000,0.155000
19.500000,0.150000
19.504000,0.142500
19.508000,0.150000
19.512000,0.097500
19.516000,0.050000
19.520000,0.065000
19.524000,0.142500
19.528000,0.167500
19.532000,0.117500
19.536000,0.045000
19.540000,0.037500
19.544000,0.082500
19.548000,0.125000
19.552000,0.117500
19.556000,0.090000
19.560000,0.057500
19.564000,0.082500
19.568000,0.162500
19.572000,0.190000
19.576000,0.247500
19.580000,0.297500
19.584000,0.267500
19.588000,0.200000
19.592000,0.190000
19.596000,0.215000
19.600000,0.252500
19.604000,0.305000
19.608000,0.317500
19.612000,0.342500
19.616000,0.357500
19.620000,0.382500
19.624000,0.415000
19.628000,0.395000
19.632000,0.342500
19.636000,0.352500
19.640000,0.402500
19.644000,0.447500
19.648000,0.480000
19.652000,0.487500
19.656000,0.440000
19.660000,0.352500
19.664000,0.287500
19.668000,0.265000
19.672000,0.260000
19.676000,0.265000
19.680000,0.280000
19.684000,0.320000
19.688000,0.337500
19.692000,0.305000
19.696000,0.255000
19.700000,0.157500
19.704000,0.110000
19.708000,0.105000
19.712000,0.122500
19.716000,0.130000
19.720000,0.117500
19.724000,0.117500
19.728000,0.147500
19.732000,0.115000
19.736000,0.102500
19.740000,0.092500
19.744000,0.092500
19.748000,0.092500
19.752000,0.115000
19.756000,0.092500
19.760000,0.082500
19.764000,0.082500
19.768000,0.082500
19.772000,0.057500
19.776000,0.050000
19.780000,0.065000
19.784000,0.060000
19.788000,0.102500
19.792000,0.137500
19.796000,0.157500
19.800000,0.130000
19.804000,0.135000
19.808000,0.097500
19.812000,0.077500
19.816000,0.052500
19.820000,0.037500
19.824000,0.032500
19.828000,0.065000
19.832000,0.102500
19.836000,0.147500
19.840000,0.182500
19.844000,0.202500
19.848000,0.190000
19.852000,0.167500
19.856000,0.130000
19.860000,0.110000
19.864000,0.110000
19.868000,0.110000
19.872000,0.115000
19.876000,0.125000
19.880000,0.142500
19.884000,0.135000
19.888000,0.102500
19.892000,0.097500
19.896000,0.117500
19.900000,0.125000
19.904000,0.147500
19.908000,0.142500
19.912000,0.130000
19.916000,0.115000
19.920000,0.115000
19.924000,0.092500
19.928000,0.077500
19.932000,0.065000
19.936000,0.082500
19.940000,0.092500
19.944000,0.115000
19.948000,0.125000
19.952000,0.125000
19.956000,0.102500
19.960000,0.092500
19.964000,0.082500
19.968000,0.090000
19.972000,0.092500
19.976000,0.097500
19.980000,0.097500
19.984000,0.097500
19.988000,0.090000
19.992000,0.077500
19.996000,0.070000
20.000000,0.060000
20.004000,0.065000
20.008000,0.082500
20.012000,0.097500
20.016000,0.097500
20.020000,0.117500
20.024000,0.110000
20.028000,0.117500
20.032000,0.122500
20.036000,0.147500
20.040000,0.175000
20.044000,0.195000
20.048000,0.187500
20.052000,0.167500
20.056000,0.162500
20.060000,0.190000
20.064000,0.232500
20.068000,0.260000
20.072000,0.255000
20.076000,0.235000
20.080000,0.240000
20.084000,0.227500
20.088000,0.212500
20.092000,0.202500
20.096000,0.190000
20.100000,0.162500
20.104000,0.157500
20.108000,0.150000
20.112000,0.142500
20.116000,0.135000
20.120000,0.142500
20.124000,0.125000
20.128000,0.115000
20.132000,0.102500
20.136000,0.105000
20.140000,0.102500
20.144000,0.102500
20.148000,0.082500
20.152000,0.052500
20.156000,0.045000
20.160000,0.057500
20.164000,0.037500
20.168000,0.037500
20.172000,0.060000
20.176000,0.077500
20.180000,0.077500
20.184000,0.060000
20.188000,0.032500
20.192000,0.027500
20.196000,0.050000
20.200000,0.070000
20.204000,0.070000
20.208000,0.065000
20.212000,0.057500
20.216000,0.045000
20.220000,0.052500
20.224000,0.057500
20.228000,0.072500
20.232000,0.090000
20.236000,0.085000
20.240000,0.045000
20.244000,0.017500
20.248000,0.007500
20.252000,0.037500
20.256000,0.072500
20.260000,0.085000
20.264000,0.060000
20.268000,0.020000
20.272000,-0.037500
20.276000,-0.032500
20.280000,0.020000
20.284000,0.027500
20.288000,0.012500
20.292000,-0.050000
20.296000,-0.077500
20.300000,-0.117500
20.304000,-0.115000
20.308000,-0.110000
20.312000,-0.097500
20.316000,-0.122500
20.320000,-0.142500
20.324000,-0.167500
20.328000,-0.180000
20.332000,-0.215000
20.336000,-0.190000
20.340000,-0.200000
20.344000,-0.182500
20.348000,-0.182500
20.352000,-0.175000
20.356000,-0.182500
20.360000,-0.162500
20.364000,-0.147500
20.368000,-0.137500
20.372000,-0.157500
20.376000,-0.180000
20.380000,-0.200000
20.384000,-0.200000
20.388000,-0.190000
20.392000,-0.162500
20.396000,-0.130000
20.400000,-0.137500
20.404000,-0.135000
20.408000,-0.137500
20.412000,-0.135000
20.416000,-0.162500
20.420000,-0.187500
20.424000,-0.190000
20.428000,-0.170000
20.432000,-0.162500
20.436000,-0.130000
20.440000,-0.117500
20.444000,-0.130000
20.448000,-0.147500
20.452000,-0.137500
20.456000,-0.167500
20.460000,-0.167500
20.464000,-0.130000
20.468000,-0.135000
20.472000,-0.147500
20.476000,-0.135000
20.480000,-0.135000
20.484000,-0.157500
20.488000,-0.155000
20.492000,-0.167500
20.496000,-0.162500
20.500000,-0.170000
20.504000,-0.180000
20.508000,-0.175000
20.512000,-0.195000
20.516000,-0.207500
20.520000,-0.180000
20.524000,-0.187500
20.528000,-0.207500
20.532000,-0.207500
20.536000,-0.155000
20.540000,-0.147500
20.544000,-0.137500
20.548000,-0.137500
20.552000,-0.142500
20.556000,-0.137500
20.560000,-0.092500
20.564000,-0.092500
20.568000,-0.105000
20.572000,-0.122500
20.576000,-0.122500
20.580000,-0.130000
20.584000,-0.150000
20.588000,-0.147500
20.592000,-0.117500
20.596000,-0.072500
20.600000,-0.052500
20.604000,-0.070000
20.608000,-0.110000
20.612000,-0.102500
20.616000,-0.102500
20.620000,-0.105000
20.624000,-0.135000
20.628000,-0.135000
20.632000,-0.135000
20.636000,-0.142500
20.640000,-0.135000
20.644000,-0.117500
20.648000,-0.115000
20.652000,-0.092500
20.656000,-0.092500
20.660000,-0.110000
20.664000,-0.070000
20.668000,-0.040000
20.672000,-0.057500
20.676000,-0.090000
20.680000,-0.085000
20.684000,-0.070000
20.688000,-0.032500
20.692000,0.012500
20.696000,-0.027500
20.700000,-0.085000
20.704000,-0.110000
20.708000,-0.110000
20.712000,-0.082500
20.716000,-0.070000
20.720000,-0.070000
20.724000,-0.077500
20.728000,-0.065000
20.732000,-0.065000
20.736000,-0.070000
20.740000,-0.142500
20.744000,-0.255000
20.748000,-0.377500
20.752000,-0.472500
20.756000,-0.610000
20.760000,-0.785000
20.764000,-1.002500
20.768000,-1.142500
20.772000,-1.150000
20.776000,-0.865000
20.780000,-0.267500
20.784000,0.385000
20.788000,1.045000
20.792000,1.560000
20.796000,1.870000
20.800000,1.987500
20.804000,1.950000
20.808000,1.750000
20.812000,1.410000
20.816000,0.975000
20.820000,0.635000
20.824000,0.385000
20.828000,0.175000
20.832000,0.105000
20.836000,0.155000
20.840000,0.142500
20.844000,0.142500
20.848000,0.137500
20.852000,0.102500
20.856000,0.090000
20.860000,0.110000
20.864000,0.125000
20.868000,0.125000
20.872000,0.097500
20.876000,0.102500
20.880000,0.115000
20.884000,0.115000
20.888000,0.122500
20.892000,0.130000
20.896000,0.150000
20.900000,0.162500
20.904000,0.155000
20.908000,0.155000
20.912000,0.175000
20.916000,0.157500
20.920000,0.142500
20.924000,0.117500
20.928000,0.115000
20.932000,0.125000
20.936000,0.180000
20.940000,0.155000
20.944000,0.155000
20.948000,0.137500
20.952000,0.157500
20.956000,0.195000
20.960000,0.227500
20.964000,0.265000
20.968000,0.272500
20.972000,0.245000
20.976000,0.232500
20.980000,0.212500
20.984000,0.190000
20.988000,0.227500
20.992000,0.252500
20.996000,0.252500
21.000000,0.190000
21.004000,0.195000
21.008000,0.227500
21.012000,0.212500
21.016000,0.190000
21.020000,0.207500
21.024000,0.207500
21.028000,0.240000
21.032000,0.277500
21.036000,0.255000
21.040000,0.222500
21.044000,0.162500
21.048000,0.082500
21.052000,0.017500
21.056000,-0.032500
21.060000,-0.045000
21.064000,0.000000
21.068000,0.045000
21.072000,0.077500
21.076000,0.060000
21.080000,0.037500
21.084000,0.012500
21.088000,-0.065000
21.092000,-0.050000
21.096000,0.070000
21.100000,0.070000
21.104000,0.045000
21.108000,0.000000
21.112000,-0.040000
21.116000,-0.032500
21.120000,0.025000
21.124000,0.000000
21.128000,0.000000
21.132000,-0.025000
21.136000,0.017500
21.140000,0.007500
21.144000,0.017500
21.148000,-0.082500
21.152000,-0.155000
21.156000,-0.162500
21.160000,-0.142500
21.164000,-0.102500
21.168000,-0.072500
21.172000,-0.070000
21.176000,-0.050000
21.180000,-0.092500
21.184000,-0.130000
21.188000,-0.147500
21.192000,-0.155000
21.196000,-0.122500
21.200000,-0.137500
21.204000,-0.125000
21.208000,-0.117500
21.212000,-0.057500
21.216000,-0.032500
21.220000,-0.040000
21.224000,-0.137500
21.228000,-0.212500
21.232000,-0.202500
21.236000,-0.142500
21.240000,-0.130000
21.244000,-0.070000
21.248000,-0.052500
21.252000,-0.037500
21.256000,-0.070000
21.260000,-0.125000
21.264000,-0.215000
21.268000,-0.167500
21.272000,-0.097500
21.276000,-0.060000
21.280000,-0.092500
21.284000,-0.155000
21.288000,-0.182500
21.292000,-0.137500
21.296000,-0.070000
21.300000,0.005000
21.304000,0.040000
21.308000,-0.060000
21.312000,-0.070000
21.316000,-0.045000
21.320000,-0.025000
21.324000,0.012500
21.328000,-0.032500
21.332000,-0.072500
21.336000,-0.105000
21.340000,-0.150000
21.344000,-0.117500
21.348000,-0.150000
21.352000,-0.162500
21.356000,-0.142500
21.360000,-0.060000
21.364000,0.020000
21.368000,0.005000
21.372000,-0.045000
21.376000,-0.065000
21.380000,-0.025000
21.384000,0.017500
21.388000,-0.050000
21.392000,-0.097500
21.396000,-0.102500
21.400000,-0.130000
21.404000,-0.065000
21.408000,0.070000
21.412000,0.057500
21.416000,0.000000
21.420000,-0.057500
21.424000,-0.077500
21.428000,-0.077500
21.432000,-0.110000
21.436000,-0.142500
21.440000,-0.200000
21.444000,-0.215000
21.448000,-0.200000
21.452000,-0.085000
21.456000,-0.020000
21.460000,0.020000
21.464000,0.045000
21.468000,0.060000
21.472000,0.032500
21.476000,0.007500
21.480000,0.017500
21.484000,-0.052500
21.488000,0.017500
21.492000,0.060000
21.496000,0.012500
21.500000,0.007500
21.504000,-0.040000
21.508000,-0.070000
21.512000,-0.027500
21.516000,-0.057500
21.520000,-0.050000
21.524000,0.020000
21.528000,-0.025000
21.532000,0.052500
21.536000,0.125000
21.540000,0.072500
21.544000,0.082500
21.548000,0.085000
21.552000,0.037500
21.556000,0.017500
21.560000,0.037500
21.564000,-0.037500
21.568000,-0.147500
21.572000,-0.085000
21.576000,0.037500
21.580000,0.125000
21.584000,0.147500
21.588000,0.092500
21.592000,0.040000
21.596000,-0.052500
21.600000,0.000000
21.604000,0.092500
21.608000,0.105000
21.612000,0.052500
21.616000,-0.065000
21.620000,-0.105000
21.624000,-0.090000
21.628000,0.027500
21.632000,0.105000
21.636000,0.157500
21.640000,0.037500
21.644000,-0.085000
21.648000,0.000000
21.652000,0.092500
21.656000,0.072500
21.660000,0.057500
21.664000,0.027500
21.668000,0.027500
21.672000,-0.072500
21.676000,-0.065000
21.680000,-0.052500
21.684000,-0.082500
21.688000,0.057500
21.692000,0.117500
21.696000,0.077500
21.700000,0.000000
21.704000,0.027500
21.708000,0.057500
21.712000,0.102500
21.716000,0.130000
21.720000,0.147500
21.724000,0.097500
21.728000,0.060000
21.732000,-0.020000
21.736000,-0.082500
21.740000,0.012500
21.744000,0.147500
21.748000,0.147500
21.752000,0.137500
21.756000,0.060000
21.760000,0.072500
21.764000,0.117500
21.768000,0.190000
21.772000,0.157500
21.776000,0.032500
21.780000,-0.065000
21.784000,-0.037500
21.788000,0.090000
21.792000,0.207500
21.796000,0.190000
21.800000,0.082500
21.804000,0.130000
21.808000,0.212500
21.812000,0.240000
21.816000,0.195000
21.820000,0.115000
21.824000,0.052500
21.828000,0.090000
21.832000,0.147500
21.836000,0.147500
21.840000,0.092500
21.844000,0.150000
21.848000,0.125000
21.852000,0.110000
21.856000,0.097500
21.860000,0.077500
21.864000,0.070000
21.868000,0.105000
21.872000,0.115000
21.876000,0.135000
21.880000,0.190000
21.884000,0.167500
21.888000,0.135000
21.892000,0.085000
21.896000,0.057500
21.900000,0.097500
21.904000,0.090000
21.908000,-0.027500
21.912000,0.085000
21.916000,0.195000
21.920000,0.260000
21.924000,0.227500
21.928000,0.137500
21.932000,0.072500
21.936000,0.085000
21.940000,0.072500
21.944000,0.070000
21.948000,0.037500
21.952000,0.025000
21.956000,0.125000
21.960000,0.200000
21.964000,0.240000
21.968000,0.182500
21.972000,0.115000
21.976000,0.117500
21.980000,0.110000
21.984000,0.072500
21.988000,0.020000
21.992000,0.090000
21.996000,0.187500
22.000000,0.220000
22.004000,0.212500
22.008000,0.155000
22.012000,0.082500
22.016000,0.130000
22.020000,0.222500
22.024000,0.202500
22.028000,0.157500
22.032000,0.057500
22.036000,-0.052500
22.040000,0.032500
22.044000,0.102500
22.048000,0.190000
22.052000,0.220000
22.056000,0.227500
22.060000,0.255000
22.064000,0.227500
22.068000,0.180000
22.072000,0.157500
22.076000,0.167500
22.080000,0.150000
22.084000,0.045000
22.088000,-0.060000
22.092000,-0.155000
22.096000,-0.190000
22.100000,-0.337500
22.104000,-0.560000
22.108000,-0.752500
22.112000,-0.890000
22.116000,-0.930000
22.120000,-0.625000
22.124000,-0.065000
22.128000,0.590000
22.132000,1.227500
22.136000,1.782500
22.140000,2.047500
22.144000,2.100000
22.148000,2.075000
22.152000,1.880000
22.156000,1.535000
22.160000,1.132500
22.164000,0.865000
22.168000,0.657500
22.172000,0.442500
22.176000,0.312500
22.180000,0.252500
22.184000,0.265000
22.188000,0.280000
22.192000,0.245000
22.196000,0.215000
22.200000,0.162500
22.204000,0.125000
22.208000,0.137500
22.212000,0.200000
22.216000,0.222500
22.220000,0.287500
22.224000,0.287500
22.228000,0.235000
22.232000,0.255000
22.236000,0.345000
22.240000,0.352500
22.244000,0.312500
22.248000,0.255000
22.252000,0.240000
22.256000,0.220000
22.260000,0.272500
22.264000,0.285000
22.268000,0.292500
22.272000,0.365000
22.276000,0.435000
22.280000,0.415000
22.284000,0.430000
22.288000,0.417500
22.292000,0.435000
22.296000,0.450000
22.300000,0.385000
22.304000,0.337500
22.308000,0.305000
22.312000,0.385000
22.316000,0.450000
22.320000,0.557500
22.324000,0.585000
22.328000,0.482500
22.332000,0.365000
22.336000,0.320000
22.340000,0.330000
22.344000,0.407500
22.348000,0.415000
22.352000,0.417500
22.356000,0.440000
22.360000,0.440000
22.364000,0.442500
22.368000,0.440000
22.372000,0.397500
22.376000,0.332500
22.380000,0.325000
22.384000,0.297500
22.388000,0.362500
22.392000,0.385000
22.396000,0.370000
22.400000,0.330000
22.404000,0.285000
22.408000,0.215000
22.412000,0.187500
22.416000,0.122500
22.420000,0.105000
22.424000,0.102500
22.428000,0.137500
22.432000,0.157500
22.436000,0.155000
22.440000,0.125000
22.444000,0.147500
22.448000,0.182500
22.452000,0.190000
22.456000,0.157500
22.460000,0.137500
22.464000,0.122500
22.468000,0.105000
22.472000,0.060000
22.476000,0.017500
22.480000,0.007500
22.484000,-0.025000
22.488000,-0.040000
22.492000,-0.045000
22.496000,-0.065000
22.500000,-0.060000
22.504000,-0.025000
22.508000,0.025000
22.512000,0.070000
22.516000,0.070000
22.520000,0.032500
22.524000,-0.057500
22.528000,-0.077500
22.532000,-0.092500
22.536000,-0.050000
22.540000,0.025000
22.544000,0.077500
22.548000,0.072500
22.552000,0.040000
22.556000,-0.025000
22.560000,-0.037500
22.564000,-0.037500
22.568000,0.000000
22.572000,-0.025000
22.576000,-0.032500
22.580000,-0.065000
22.584000,-0.060000
22.588000,-0.070000
22.592000,-0.070000
22.596000,-0.057500
22.600000,-0.115000
22.604000,-0.155000
22.608000,-0.212500
22.612000,-0.220000
22.616000,-0.187500
22.620000,-0.115000
22.624000,-0.115000
22.628000,-0.142500
22.632000,-0.190000
22.636000,-0.247500
22.640000,-0.267500
22.644000,-0.267500
22.648000,-0.260000
22.652000,-0.272500
22.656000,-0.312500
22.660000,-0.292500
22.664000,-0.297500
22.668000,-0.247500
22.672000,-0.200000
22.676000,-0.180000
22.680000,-0.170000
22.684000,-0.202500
22.688000,-0.220000
22.692000,-0.215000
22.696000,-0.215000
22.700000,-0.202500
22.704000,-0.180000
22.708000,-0.187500
22.712000,-0.142500
22.716000,-0.117500
22.720000,-0.085000
22.724000,-0.050000
22.728000,0.000000
22.732000,-0.070000
22.736000,-0.182500
22.740000,-0.227500
22.744000,-0.190000
22.748000,-0.122500
22.752000,-0.065000
22.756000,-0.060000
22.760000,-0.037500
22.764000,0.007500
22.768000,0.070000
22.772000,0.147500
22.776000,0.170000
22.780000,0.110000
22.784000,0.077500
22.788000,0.045000
22.792000,0.000000
22.796000,0.040000
22.800000,0.135000
22.804000,0.195000
22.808000,0.200000
22.812000,0.202500
22.816000,0.162500
22.820000,0.180000
22.824000,0.200000
22.828000,0.170000
22.832000,0.122500
22.836000,0.135000
22.840000,0.130000
22.844000,0.147500
22.848000,0.155000
22.852000,0.182500
22.856000,0.212500
22.860000,0.247500
22.864000,0.280000
22.868000,0.272500
22.872000,0.285000
22.876000,0.297500
22.880000,0.305000
22.884000,0.300000
22.888000,0.252500
22.892000,0.232500
22.896000,0.227500
22.900000,0.220000
22.904000,0.240000
22.908000,0.277500
22.912000,0.267500
22.916000,0.190000
22.920000,0.125000
22.924000,0.090000
22.928000,0.082500
22.932000,0.092500
22.936000,0.115000
22.940000,0.115000
22.944000,0.115000
22.948000,0.122500
22.952000,0.135000
22.956000,0.125000
22.960000,0.147500
22.964000,0.142500
22.968000,0.135000
22.972000,0.147500
22.976000,0.162500
22.980000,0.190000
22.984000,0.227500
22.988000,0.240000
22.992000,0.227500
22.996000,0.212500
23.000000,0.162500
23.004000,0.142500
23.008000,0.147500
23.012000,0.130000
23.016000,0.137500
23.020000,0.157500
23.024000,0.125000
23.028000,0.125000
23.032000,0.162500
23.036000,0.190000
23.040000,0.190000
23.044000,0.175000
23.048000,0.175000
23.052000,0.150000
23.056000,0.137500
23.060000,0.175000
23.064000,0.175000
23.068000,0.157500
23.072000,0.182500
23.076000,0.202500
23.080000,0.200000
23.084000,0.207500
23.088000,0.220000
23.092000,0.220000
23.096000,0.235000
23.100000,0.260000
23.104000,0.277500
23.108000,0.265000
23.112000,0.232500
23.116000,0.190000
23.120000,0.135000
23.124000,0.037500
23.128000,-0.082500
23.132000,-0.207500
23.136000,-0.402500
23.140000,-0.597500
23.144000,-0.735000
23.148000,-0.852500
23.152000,-0.857500
23.156000,-0.565000
23.160000,0.085000
23.164000,0.675000
23.168000,1.187500
23.172000,1.592500
23.176000,1.832500
23.180000,2.010000
23.184000,2.075000
23.188000,1.962500
23.192000,1.620000
23.196000,1.155000
23.200000,0.785000
23.204000,0.525000
23.208000,0.280000
23.212000,0.245000
23.216000,0.310000
23.220000,0.320000
23.224000,0.272500
23.228000,0.235000
23.232000,0.265000
23.236000,0.305000
23.240000,0.320000
23.244000,0.300000
23.248000,0.252500
23.252000,0.260000
23.256000,0.287500
23.260000,0.357500
23.264000,0.402500
23.268000,0.395000
23.272000,0.397500
23.276000,0.435000
23.280000,0.435000
23.284000,0.390000
23.288000,0.397500
23.292000,0.402500
23.296000,0.407500
23.300000,0.395000
23.304000,0.422500
23.308000,0.427500
23.312000,0.427500
23.316000,0.417500
23.320000,0.402500
23.324000,0.375000
23.328000,0.362500
23.332000,0.342500
23.336000,0.345000
23.340000,0.362500
23.344000,0.415000
23.348000,0.422500
23.352000,0.442500
23.356000,0.442500
23.360000,0.450000
23.364000,0.447500
23.368000,0.450000
23.372000,0.455000
23.376000,0.442500
23.380000,0.442500
23.384000,0.447500
23.388000,0.450000
23.392000,0.455000
23.396000,0.450000
23.400000,0.417500
23.404000,0.395000
23.408000,0.375000
23.412000,0.357500
23.416000,0.312500
23.420000,0.267500
23.424000,0.222500
23.428000,0.207500
23.432000,0.175000
23.436000,0.162500
23.440000,0.125000
23.444000,0.077500
23.448000,0.032500
23.452000,0.025000
23.456000,0.020000
23.460000,0.017500
23.464000,-0.025000
23.468000,-0.037500
23.472000,-0.040000
23.476000,-0.040000
23.480000,-0.045000
23.484000,-0.052500
23.488000,-0.057500
23.492000,-0.057500
23.496000,-0.057500
23.500000,-0.070000
23.504000,-0.090000
23.508000,-0.105000
23.512000,-0.105000
23.516000,-0.092500
23.520000,-0.065000
23.524000,-0.045000
23.528000,-0.020000
23.532000,-0.027500
23.536000,-0.025000
23.540000,-0.045000
23.544000,-0.040000
23.548000,-0.037500
23.552000,-0.032500
23.556000,-0.040000
23.560000,0.000000
23.564000,0.032500
23.568000,0.050000
23.572000,0.045000
23.576000,0.045000
23.580000,0.037500
23.584000,0.037500
23.588000,0.027500
23.592000,0.012500
23.596000,0.000000
23.600000,-0.027500
23.604000,-0.032500
23.608000,0.007500
23.612000,0.037500
23.616000,0.020000
23.620000,0.017500
23.624000,0.000000
23.628000,-0.025000
23.632000,-0.032500
23.636000,-0.027500
23.640000,-0.037500
23.644000,-0.040000
23.648000,-0.072500
23.652000,-0.102500
23.656000,-0.130000
23.660000,-0.147500
23.664000,-0.155000
23.668000,-0.162500
23.672000,-0.200000
23.676000,-0.202500
23.680000,-0.200000
23.684000,-0.187500
23.688000,-0.187500
23.692000,-0.170000
23.696000,-0.155000
23.700000,-0.147500
23.704000,-0.147500
23.708000,-0.175000
23.712000,-0.175000
23.716000,-0.187500
23.720000,-0.180000
23.724000,-0.190000
23.728000,-0.202500
23.732000,-0.202500
23.736000,-0.157500
23.740000,-0.137500
23.744000,-0.110000
23.748000,-0.147500
23.752000,-0.175000
23.756000,-0.222500
23.760000,-0.227500
23.764000,-0.212500
23.768000,-0.180000
23.772000,-0.155000
23.776000,-0.137500
23.780000,-0.125000
23.784000,-0.135000
23.788000,-0.155000
23.792000,-0.150000
23.796000,-0.142500
23.800000,-0.155000
23.804000,-0.150000
23.808000,-0.157500
23.812000,-0.190000
23.816000,-0.212500
23.820000,-0.212500
23.824000,-0.212500
23.828000,-0.202500
23.832000,-0.212500
23.836000,-0.190000
23.840000,-0.207500
23.844000,-0.212500
23.848000,-0.190000
23.852000,-0.175000
23.856000,-0.167500
23.860000,-0.150000
23.864000,-0.167500
23.868000,-0.190000
23.872000,-0.195000
23.876000,-0.150000
23.880000,-0.135000
23.884000,-0.125000
23.888000,-0.137500
23.892000,-0.150000
23.896000,-0.130000
23.900000,-0.105000
23.904000,-0.085000
23.908000,-0.085000
23.912000,-0.102500
23.916000,-0.122500
23.920000,-0.082500
23.924000,-0.052500
23.928000,-0.040000
23.932000,-0.070000
23.936000,-0.092500
23.940000,-0.117500
23.944000,-0.092500
23.948000,-0.070000
23.952000,-0.045000
23.956000,-0.052500
23.960000,-0.070000
23.964000,-0.077500
23.968000,-0.070000
23.972000,-0.052500
23.976000,-0.040000
23.980000,-0.025000
23.984000,0.000000
23.988000,0.005000
23.992000,0.005000
23.996000,0.000000
24.000000,-0.040000
24.004000,-0.037500
24.008000,-0.037500
24.012000,-0.052500
24.016000,-0.040000
24.020000,-0.027500
24.024000,-0.037500
24.028000,0.012500
24.032000,0.000000
24.036000,-0.020000
24.040000,-0.045000
24.044000,-0.040000
24.048000,-0.052500
24.052000,-0.057500
24.056000,-0.077500
24.060000,-0.070000
24.064000,-0.065000
24.068000,-0.070000
24.072000,-0.090000
24.076000,-0.070000
24.080000,-0.077500
24.084000,-0.092500
24.088000,-0.105000
24.092000,-0.085000
24.096000,-0.050000
24.100000,-0.027500
24.104000,0.012500
24.108000,0.007500
24.112000,-0.025000
24.116000,-0.077500
24.120000,-0.110000
24.124000,-0.102500
24.128000,-0.050000
24.132000,0.005000
24.136000,0.065000
24.140000,0.070000
24.144000,0.040000
24.148000,-0.025000
24.152000,0.005000
24.156000,0.027500
24.160000,0.050000
24.164000,0.027500
24.168000,0.050000
24.172000,0.057500
24.176000,0.077500
24.180000,0.085000
24.184000,0.057500
24.188000,0.017500
24.192000,0.000000
24.196000,0.005000
24.200000,0.012500
24.204000,0.000000
24.208000,-0.032500
24.212000,-0.025000
24.216000,-0.045000
24.220000,-0.050000
24.224000,-0.057500
24.228000,-0.040000
24.232000,-0.027500
24.236000,0.027500
24.240000,0.050000
24.244000,0.057500
24.248000,0.060000
24.252000,0.060000
24.256000,0.025000
24.260000,0.027500
24.264000,0.057500
24.268000,0.057500
24.272000,0.025000
24.276000,0.025000
24.280000,0.057500
24.284000,0.092500
24.288000,0.105000
24.292000,0.102500
24.296000,0.102500
24.300000,0.105000
24.304000,0.102500
24.308000,0.097500
24.312000,0.082500
24.316000,0.027500
24.320000,0.012500
24.324000,0.040000
24.328000,0.057500
24.332000,0.057500
24.336000,0.117500
24.340000,0.167500
24.344000,0.170000
24.348000,0.142500
24.352000,0.125000
24.356000,0.102500
24.360000,0.070000
24.364000,0.070000
24.368000,0.077500
24.372000,0.050000
24.376000,0.050000
24.380000,0.065000
24.384000,0.097500
24.388000,0.117500
24.392000,0.110000
24.396000,0.082500
24.400000,0.027500
24.404000,0.007500
24.408000,0.005000
24.412000,0.032500
24.416000,0.070000
24.420000,0.092500
24.424000,0.072500
24.428000,0.045000
24.432000,0.020000
24.436000,0.037500
24.440000,0.017500
24.444000,-0.077500
24.448000,-0.190000
24.452000,-0.345000
24.456000,-0.547500
24.460000,-0.707500
24.464000,-0.870000
24.468000,-0.995000
24.472000,-0.995000
24.476000,-0.630000
24.480000,-0.027500
24.484000,0.592500
24.488000,1.165000
24.492000,1.587500
24.496000,1.840000
24.500000,1.995000
24.504000,2.007500
24.508000,1.820000
24.512000,1.482500
24.516000,1.060000
24.520000,0.780000
24.524000,0.557500
24.528000,0.375000
24.532000,0.305000
24.536000,0.317500
24.540000,0.317500
24.544000,0.310000
24.548000,0.272500
24.552000,0.255000
24.556000,0.265000
24.560000,0.287500
24.564000,0.292500
24.568000,0.285000
24.572000,0.260000
24.576000,0.265000
24.580000,0.285000
24.584000,0.292500
24.588000,0.280000
24.592000,0.255000
24.596000,0.227500
24.600000,0.180000
24.604000,0.130000
24.608000,0.125000
24.612000,0.182500
24.616000,0.252500
24.620000,0.277500
24.624000,0.272500
24.628000,0.267500
24.632000,0.232500
24.636000,0.227500
24.640000,0.247500
24.644000,0.287500
24.648000,0.297500
24.652000,0.310000
24.656000,0.320000
24.660000,0.332500
24.664000,0.337500
24.668000,0.345000
24.672000,0.345000
24.676000,0.357500
24.680000,0.362500
24.684000,0.382500
24.688000,0.397500
24.692000,0.385000
24.696000,0.390000
24.700000,0.375000
24.704000,0.370000
24.708000,0.390000
24.712000,0.395000
24.716000,0.357500
24.720000,0.350000
24.724000,0.317500
24.728000,0.305000
24.732000,0.292500
24.736000,0.285000
24.740000,0.260000
24.744000,0.260000
24.748000,0.245000
24.752000,0.245000
24.756000,0.200000
24.760000,0.157500
24.764000,0.102500
24.768000,0.072500
24.772000,0.060000
24.776000,0.092500
24.780000,0.125000
24.784000,0.125000
24.788000,0.110000
24.792000,0.097500
24.796000,0.085000
24.800000,0.045000
24.804000,0.032500
24.808000,0.037500
24.812000,0.037500
24.816000,0.005000
24.820000,-0.045000
24.824000,-0.115000
24.828000,-0.122500
24.832000,-0.102500
24.836000,-0.070000
24.840000,-0.057500
24.844000,-0.050000
24.848000,-0.045000
24.852000,-0.040000
24.856000,-0.050000
24.860000,-0.050000
24.864000,-0.045000
24.868000,-0.065000
24.872000,-0.115000
24.876000,-0.167500
24.880000,-0.207500
24.884000,-0.170000
24.888000,-0.072500
24.892000,-0.037500
24.896000,-0.065000
24.900000,-0.125000
24.904000,-0.162500
24.908000,-0.190000
24.912000,-0.187500
24.916000,-0.200000
24.920000,-0.182500
24.924000,-0.170000
24.928000,-0.162500
24.932000,-0.175000
24.936000,-0.162500
24.940000,-0.162500
24.944000,-0.155000
24.948000,-0.170000
24.952000,-0.182500
24.956000,-0.200000
24.960000,-0.162500
24.964000,-0.105000
24.968000,-0.097500
24.972000,-0.102500
24.976000,-0.105000
24.980000,-0.122500
24.984000,-0.137500
24.988000,-0.157500
24.992000,-0.167500
24.996000,-0.147500
25.000000,-0.130000
25.004000,-0.137500
25.008000,-0.147500
25.012000,-0.137500
25.016000,-0.130000
25.020000,-0.102500
25.024000,-0.090000
25.028000,-0.070000
25.032000,-0.085000
25.036000,-0.115000
25.040000,-0.150000
25.044000,-0.147500
25.048000,-0.155000
25.052000,-0.167500
25.056000,-0.187500
25.060000,-0.175000
25.064000,-0.162500
25.068000,-0.170000
25.072000,-0.170000
25.076000,-0.187500
25.080000,-0.200000
25.084000,-0.170000
25.088000,-0.135000
25.092000,-0.115000
25.096000,-0.137500
25.100000,-0.162500
25.104000,-0.162500
25.108000,-0.155000
25.112000,-0.162500
25.116000,-0.170000
25.120000,-0.137500
25.124000,-0.137500
25.128000,-0.142500
25.132000,-0.150000
25.136000,-0.142500
25.140000,-0.142500
25.144000,-0.130000
25.148000,-0.137500
25.152000,-0.180000
25.156000,-0.235000
25.160000,-0.232500
25.164000,-0.167500
25.168000,-0.110000
25.172000,-0.092500
25.176000,-0.085000
25.180000,-0.090000
25.184000,-0.082500
25.188000,-0.092500
25.192000,-0.097500
25.196000,-0.105000
25.200000,-0.137500
25.204000,-0.137500
25.208000,-0.102500
25.212000,-0.090000
25.216000,-0.115000
25.220000,-0.097500
25.224000,-0.090000
25.228000,-0.110000
25.232000,-0.147500
25.236000,-0.137500
25.240000,-0.137500
25.244000,-0.137500
25.248000,-0.110000
25.252000,-0.052500
25.256000,-0.060000
25.260000,-0.092500
25.264000,-0.110000
25.268000,-0.147500
25.272000,-0.182500
25.276000,-0.157500
25.280000,-0.117500
25.284000,-0.117500
25.288000,-0.102500
25.292000,-0.092500
25.296000,-0.110000
25.300000,-0.125000
