time_seconds,"record cu26, signal 0"
0.000000,-0.180000
0.004000,-0.162500
0.008000,-0.152500
0.012000,-0.162500
0.016000,-0.177500
0.020000,-0.187500
0.024000,-0.215000
0.028000,-0.252500
0.032000,-0.277500
0.036000,-0.285000
0.040000,-0.267500
0.044000,-0.260000
0.048000,-0.270000
0.052000,-0.297500
0.056000,-0.327500
0.060000,-0.345000
0.064000,-0.340000
0.068000,-0.307500
0.072000,-0.292500
0.076000,-0.265000
0.080000,-0.237500
0.084000,-0.225000
0.088000,-0.227500
0.092000,-0.215000
0.096000,-0.205000
0.100000,-0.187500
0.104000,-0.180000
0.108000,-0.182500
0.112000,-0.222500
0.116000,-0.290000
0.120000,-0.367500
0.124000,-0.450000
0.128000,-0.490000
0.132000,-0.442500
0.136000,-0.340000
0.140000,-0.217500
0.144000,-0.102500
0.148000,0.035000
0.152000,0.172500
0.156000,0.332500
0.160000,0.500000
0.164000,0.717500
0.168000,1.032500
0.172000,1.345000
0.176000,1.550000
0.180000,1.642500
0.184000,1.687500
0.188000,1.737500
0.192000,1.835000
0.196000,1.807500
0.200000,1.577500
0.204000,1.215000
0.208000,0.912500
0.212000,0.740000
0.216000,0.590000
0.220000,0.445000
0.224000,0.322500
0.228000,0.215000
0.232000,0.150000
0.236000,0.102500
0.240000,0.047500
0.244000,-0.017500
0.248000,-0.017500
0.252000,0.035000
0.256000,0.082500
0.260000,0.105000
0.264000,0.085000
0.268000,0.042500
0.272000,0.007500
0.276000,-0.030000
0.280000,-0.047500
0.284000,-0.045000
0.288000,-0.050000
0.292000,-0.045000
0.296000,-0.025000
0.300000,0.012500
0.304000,0.012500
0.308000,-0.035000
0.312000,-0.082500
0.316000,-0.117500
0.320000,-0.135000
0.324000,-0.160000
0.328000,-0.205000
0.332000,-0.240000
0.336000,-0.275000
0.340000,-0.295000
0.344000,-0.295000
0.348000,-0.295000
0.352000,-0.305000
0.356000,-0.295000
0.360000,-0.282500
0.364000,-0.270000
0.368000,-0.252500
0.372000,-0.252500
0.376000,-0.270000
0.380000,-0.252500
0.384000,-0.195000
0.388000,-0.135000
0.392000,-0.095000
0.396000,-0.080000
0.400000,-0.075000
0.404000,-0.080000
0.408000,-0.090000
0.412000,-0.152500
0.416000,-0.267500
0.420000,-0.417500
0.424000,-0.542500
0.428000,-0.585000
0.432000,-0.540000
0.436000,-0.497500
0.440000,-0.467500
0.444000,-0.432500
0.448000,-0.387500
0.452000,-0.330000
0.456000,-0.205000
0.460000,0.012500
0.464000,0.222500
0.468000,0.447500
0.472000,0.757500
0.476000,1.097500
0.480000,1.420000
0.484000,1.672500
0.488000,1.815000
0.492000,1.890000
0.496000,1.940000
0.500000,1.962500
0.504000,1.837500
0.508000,1.575000
0.512000,1.240000
0.516000,0.957500
0.520000,0.725000
0.524000,0.477500
0.528000,0.252500
0.532000,0.097500
0.536000,0.060000
0.540000,0.092500
0.544000,0.107500
0.548000,0.072500
0.552000,0.040000
0.556000,0.027500
0.560000,0.035000
0.564000,0.015000
0.568000,-0.037500
0.572000,-0.065000
0.576000,-0.075000
0.580000,-0.102500
0.584000,-0.130000
0.588000,-0.165000
0.592000,-0.185000
0.596000,-0.217500
0.600000,-0.262500
0.604000,-0.305000
0.608000,-0.337500
0.612000,-0.387500
0.616000,-0.452500
0.620000,-0.520000
0.624000,-0.575000
0.628000,-0.630000
0.632000,-0.690000
0.636000,-0.737500
0.640000,-0.762500
0.644000,-0.767500
0.648000,-0.760000
0.652000,-0.735000
0.656000,-0.710000
0.660000,-0.675000
0.664000,-0.647500
0.668000,-0.612500
0.672000,-0.577500
0.676000,-0.537500
0.680000,-0.500000
0.684000,-0.462500
0.688000,-0.417500
0.692000,-0.365000
0.696000,-0.330000
0.700000,-0.315000
0.704000,-0.312500
0.708000,-0.305000
0.712000,-0.295000
0.716000,-0.275000
0.720000,-0.262500
0.724000,-0.252500
0.728000,-0.262500
0.732000,-0.270000
0.736000,-0.290000
0.740000,-0.297500
0.744000,-0.295000
0.748000,-0.290000
0.752000,-0.287500
0.756000,-0.300000
0.760000,-0.335000
0.764000,-0.400000
0.768000,-0.472500
0.772000,-0.555000
0.776000,-0.615000
0.780000,-0.605000
0.784000,-0.535000
0.788000,-0.470000
0.792000,-0.385000
0.796000,-0.312500
0.800000,-0.282500
0.804000,-0.262500
0.808000,-0.182500
0.812000,-0.057500
0.816000,0.117500
0.820000,0.307500
0.824000,0.532500
0.828000,0.695000
0.832000,0.825000
0.836000,0.952500
0.840000,1.030000
0.844000,1.037500
0.848000,0.925000
0.852000,0.732500
0.856000,0.500000
0.860000,0.292500
0.864000,0.222500
0.868000,0.267500
0.872000,0.312500
0.876000,0.322500
0.880000,0.310000
0.884000,0.297500
0.888000,0.295000
0.892000,0.315000
0.896000,0.320000
0.900000,0.312500
0.904000,0.305000
0.908000,0.305000
0.912000,0.305000
0.916000,0.300000
0.920000,0.295000
0.924000,0.307500
0.928000,0.312500
0.932000,0.310000
0.936000,0.295000
0.940000,0.290000
0.944000,0.272500
0.948000,0.247500
0.952000,0.217500
0.956000,0.192500
0.960000,0.170000
0.964000,0.137500
0.968000,0.107500
0.972000,0.072500
0.976000,0.037500
0.980000,0.000000
0.984000,-0.045000
0.988000,-0.087500
0.992000,-0.135000
0.996000,-0.200000
1.000000,-0.252500
1.004000,-0.315000
1.008000,-0.357500
1.012000,-0.380000
1.016000,-0.385000
1.020000,-0.385000
1.024000,-0.372500
1.028000,-0.355000
1.032000,-0.337500
1.036000,-0.330000
1.040000,-0.327500
1.044000,-0.327500
1.048000,-0.350000
1.052000,-0.375000
1.056000,-0.380000
1.060000,-0.372500
1.064000,-0.365000
1.068000,-0.350000
1.072000,-0.335000
1.076000,-0.330000
1.080000,-0.330000
1.084000,-0.330000
1.088000,-0.335000
1.092000,-0.335000
1.096000,-0.332500
1.100000,-0.327500
1.104000,-0.330000
1.108000,-0.317500
1.112000,-0.317500
1.116000,-0.317500
1.120000,-0.317500
1.124000,-0.312500
1.128000,-0.315000
1.132000,-0.312500
1.136000,-0.312500
1.140000,-0.310000
1.144000,-0.307500
1.148000,-0.307500
1.152000,-0.300000
1.156000,-0.295000
1.160000,-0.292500
1.164000,-0.297500
1.168000,-0.297500
1.172000,-0.300000
1.176000,-0.305000
1.180000,-0.317500
1.184000,-0.340000
1.188000,-0.377500
1.192000,-0.427500
1.196000,-0.495000
1.200000,-0.580000
1.204000,-0.675000
1.208000,-0.745000
1.212000,-0.790000
1.216000,-0.767500
1.220000,-0.682500
1.224000,-0.575000
1.228000,-0.477500
1.232000,-0.372500
1.236000,-0.260000
1.240000,-0.137500
1.244000,0.020000
1.248000,0.215000
1.252000,0.472500
1.256000,0.722500
1.260000,0.920000
1.264000,1.042500
1.268000,1.177500
1.272000,1.325000
1.276000,1.477500
1.280000,1.510000
1.284000,1.375000
1.288000,1.115000
1.292000,0.895000
1.296000,0.722500
1.300000,0.537500
1.304000,0.350000
1.308000,0.242500
1.312000,0.197500
1.316000,0.210000
1.320000,0.230000
1.324000,0.222500
1.328000,0.195000
1.332000,0.185000
1.336000,0.187500
1.340000,0.177500
1.344000,0.155000
1.348000,0.142500
1.352000,0.142500
1.356000,0.135000
1.360000,0.110000
1.364000,0.085000
1.368000,0.070000
1.372000,0.052500
1.376000,0.020000
1.380000,-0.040000
1.384000,-0.082500
1.388000,-0.127500
1.392000,-0.172500
1.396000,-0.227500
1.400000,-0.270000
1.404000,-0.305000
1.408000,-0.335000
1.412000,-0.365000
1.416000,-0.382500
1.420000,-0.397500
1.424000,-0.407500
1.428000,-0.420000
1.432000,-0.432500
1.436000,-0.452500
1.440000,-0.472500
1.444000,-0.485000
1.448000,-0.485000
1.452000,-0.480000
1.456000,-0.465000
1.460000,-0.435000
1.464000,-0.402500
1.468000,-0.372500
1.472000,-0.342500
1.476000,-0.315000
1.480000,-0.292500
1.484000,-0.272500
1.488000,-0.255000
1.492000,-0.232500
1.496000,-0.217500
1.500000,-0.200000
1.504000,-0.192500
1.508000,-0.195000
1.512000,-0.202500
1.516000,-0.207500
1.520000,-0.215000
1.524000,-0.217500
1.528000,-0.227500
1.532000,-0.240000
1.536000,-0.242500
1.540000,-0.237500
1.544000,-0.232500
1.548000,-0.237500
1.552000,-0.242500
1.556000,-0.252500
1.560000,-0.262500
1.564000,-0.275000
1.568000,-0.292500
1.572000,-0.327500
1.576000,-0.382500
1.580000,-0.445000
1.584000,-0.522500
1.588000,-0.625000
1.592000,-0.712500
1.596000,-0.765000
1.600000,-0.740000
1.604000,-0.670000
1.608000,-0.577500
1.612000,-0.507500
1.616000,-0.442500
1.620000,-0.382500
1.624000,-0.267500
1.628000,-0.080000
1.632000,0.177500
1.636000,0.465000
1.640000,0.800000
1.644000,1.057500
1.648000,1.215000
1.652000,1.335000
1.656000,1.417500
1.660000,1.482500
1.664000,1.542500
1.668000,1.480000
1.672000,1.285000
1.676000,1.047500
1.680000,0.877500
1.684000,0.717500
1.688000,0.517500
1.692000,0.362500
1.696000,0.272500
1.700000,0.245000
1.704000,0.267500
1.708000,0.295000
1.712000,0.277500
1.716000,0.242500
1.720000,0.227500
1.724000,0.230000
1.728000,0.220000
1.732000,0.187500
1.736000,0.172500
1.740000,0.172500
1.744000,0.162500
1.748000,0.140000
1.752000,0.120000
1.756000,0.110000
1.760000,0.085000
1.764000,0.035000
1.768000,-0.027500
1.772000,-0.082500
1.776000,-0.130000
1.780000,-0.195000
1.784000,-0.262500
1.788000,-0.322500
1.792000,-0.372500
1.796000,-0.410000
1.800000,-0.432500
1.804000,-0.452500
1.808000,-0.472500
1.812000,-0.490000
1.816000,-0.497500
1.820000,-0.512500
1.824000,-0.520000
1.828000,-0.537500
1.832000,-0.547500
1.836000,-0.552500
1.840000,-0.542500
1.844000,-0.530000
1.848000,-0.497500
1.852000,-0.455000
1.856000,-0.412500
1.860000,-0.380000
1.864000,-0.355000
1.868000,-0.337500
1.872000,-0.327500
1.876000,-0.297500
1.880000,-0.270000
1.884000,-0.237500
1.888000,-0.217500
1.892000,-0.195000
1.896000,-0.177500
1.900000,-0.157500
1.904000,-0.150000
1.908000,-0.150000
1.912000,-0.165000
1.916000,-0.177500
1.920000,-0.187500
1.924000,-0.200000
1.928000,-0.215000
1.932000,-0.240000
1.936000,-0.272500
1.940000,-0.335000
1.944000,-0.425000
1.948000,-0.502500
1.952000,-0.557500
1.956000,-0.530000
1.960000,-0.475000
1.964000,-0.445000
1.968000,-0.422500
1.972000,-0.407500
1.976000,-0.382500
1.980000,-0.297500
1.984000,-0.110000
1.988000,0.160000
1.992000,0.452500
1.996000,0.805000
2.000000,1.095000
2.004000,1.265000
2.008000,1.397500
2.012000,1.460000
2.016000,1.480000
2.020000,1.492500
2.024000,1.417500
2.028000,1.222500
2.032000,0.957500
2.036000,0.732500
2.040000,0.562500
2.044000,0.360000
2.048000,0.177500
2.052000,0.075000
2.056000,0.042500
2.060000,0.052500
2.064000,0.087500
2.068000,0.107500
2.072000,0.097500
2.076000,0.117500
2.080000,0.155000
2.084000,0.180000
2.088000,0.180000
2.092000,0.185000
2.096000,0.205000
2.100000,0.220000
2.104000,0.205000
2.108000,0.185000
2.112000,0.175000
2.116000,0.155000
2.120000,0.120000
2.124000,0.087500
2.128000,0.062500
2.132000,0.027500
2.136000,-0.035000
2.140000,-0.082500
2.144000,-0.120000
2.148000,-0.170000
2.152000,-0.220000
2.156000,-0.282500
2.160000,-0.340000
2.164000,-0.387500
2.168000,-0.430000
2.172000,-0.470000
2.176000,-0.490000
2.180000,-0.497500
2.184000,-0.495000
2.188000,-0.480000
2.192000,-0.457500
2.196000,-0.435000
2.200000,-0.405000
2.204000,-0.385000
2.208000,-0.372500
2.212000,-0.355000
2.216000,-0.340000
2.220000,-0.330000
2.224000,-0.317500
2.228000,-0.315000
2.232000,-0.315000
2.236000,-0.307500
2.240000,-0.295000
2.244000,-0.282500
2.248000,-0.262500
2.252000,-0.250000
2.256000,-0.265000
2.260000,-0.285000
2.264000,-0.330000
2.268000,-0.390000
2.272000,-0.462500
2.276000,-0.517500
2.280000,-0.502500
2.284000,-0.425000
2.288000,-0.380000
2.292000,-0.350000
2.296000,-0.295000
2.300000,-0.240000
2.304000,-0.172500
2.308000,-0.035000
2.312000,0.202500
2.316000,0.450000
2.320000,0.740000
2.324000,1.110000
2.328000,1.422500
2.332000,1.645000
2.336000,1.772500
2.340000,1.800000
2.344000,1.790000
2.348000,1.732500
2.352000,1.622500
2.356000,1.482500
2.360000,1.267500
2.364000,1.012500
2.368000,0.782500
2.372000,0.515000
2.376000,0.262500
2.380000,0.115000
2.384000,0.082500
2.388000,0.107500
2.392000,0.135000
2.396000,0.125000
2.400000,0.085000
2.404000,0.050000
2.408000,0.042500
2.412000,0.022500
2.416000,-0.035000
2.420000,-0.062500
2.424000,-0.050000
2.428000,-0.027500
2.432000,-0.020000
2.436000,-0.017500
2.440000,0.000000
2.444000,-0.027500
2.448000,-0.062500
2.452000,-0.087500
2.456000,-0.097500
2.460000,-0.110000
2.464000,-0.132500
2.468000,-0.152500
2.472000,-0.172500
2.476000,-0.187500
2.480000,-0.210000
2.484000,-0.230000
2.488000,-0.255000
2.492000,-0.277500
2.496000,-0.300000
2.500000,-0.317500
2.504000,-0.327500
2.508000,-0.330000
2.512000,-0.327500
2.516000,-0.317500
2.520000,-0.297500
2.524000,-0.267500
2.528000,-0.242500
2.532000,-0.215000
2.536000,-0.202500
2.540000,-0.205000
2.544000,-0.230000
2.548000,-0.262500
2.552000,-0.287500
2.556000,-0.317500
2.560000,-0.340000
2.564000,-0.357500
2.568000,-0.372500
2.572000,-0.395000
2.576000,-0.447500
2.580000,-0.532500
2.584000,-0.612500
2.588000,-0.657500
2.592000,-0.612500
2.596000,-0.542500
2.600000,-0.520000
2.604000,-0.512500
2.608000,-0.457500
2.612000,-0.397500
2.616000,-0.305000
2.620000,-0.127500
2.624000,0.137500
2.628000,0.395000
2.632000,0.717500
2.636000,1.080000
2.640000,1.365000
2.644000,1.582500
2.648000,1.722500
2.652000,1.805000
2.656000,1.857500
2.660000,1.857500
2.664000,1.745000
2.668000,1.582500
2.672000,1.357500
2.676000,1.145000
2.680000,0.922500
2.684000,0.652500
2.688000,0.402500
2.692000,0.247500
2.696000,0.220000
2.700000,0.252500
2.704000,0.267500
2.708000,0.245000
2.712000,0.207500
2.716000,0.200000
2.720000,0.200000
2.724000,0.170000
2.728000,0.120000
2.732000,0.072500
2.736000,0.030000
2.740000,-0.025000
2.744000,-0.085000
2.748000,-0.142500
2.752000,-0.180000
2.756000,-0.220000
2.760000,-0.260000
2.764000,-0.285000
2.768000,-0.300000
2.772000,-0.337500
2.776000,-0.380000
2.780000,-0.417500
2.784000,-0.450000
2.788000,-0.502500
2.792000,-0.545000
2.796000,-0.567500
2.800000,-0.590000
2.804000,-0.610000
2.808000,-0.602500
2.812000,-0.587500
2.816000,-0.565000
2.820000,-0.530000
2.824000,-0.480000
2.828000,-0.442500
2.832000,-0.405000
2.836000,-0.345000
2.840000,-0.285000
2.844000,-0.225000
2.848000,-0.180000
2.852000,-0.140000
2.856000,-0.112500
2.860000,-0.080000
2.864000,-0.047500
2.868000,-0.022500
2.872000,0.020000
2.876000,0.042500
2.880000,0.067500
2.884000,0.080000
2.888000,0.072500
2.892000,0.060000
2.896000,0.042500
2.900000,0.030000
2.904000,0.022500
2.908000,0.005000
2.912000,-0.042500
2.916000,-0.107500
2.920000,-0.200000
2.924000,-0.295000
2.928000,-0.405000
2.932000,-0.475000
2.936000,-0.452500
2.940000,-0.395000
2.944000,-0.340000
2.948000,-0.287500
2.952000,-0.200000
2.956000,-0.132500
2.960000,-0.045000
2.964000,0.135000
2.968000,0.367500
2.972000,0.625000
2.976000,0.972500
2.980000,1.300000
2.984000,1.480000
2.988000,1.600000
2.992000,1.642500
2.996000,1.640000
3.000000,1.650000
3.004000,1.555000
3.008000,1.377500
3.012000,1.125000
3.016000,0.895000
3.020000,0.702500
3.024000,0.517500
3.028000,0.332500
3.032000,0.210000
3.036000,0.187500
3.040000,0.217500
3.044000,0.247500
3.048000,0.252500
3.052000,0.245000
3.056000,0.232500
3.060000,0.272500
3.064000,0.290000
3.068000,0.270000
3.072000,0.250000
3.076000,0.237500
3.080000,0.197500
3.084000,0.170000
3.088000,0.155000
3.092000,0.155000
3.096000,0.147500
3.100000,0.110000
3.104000,0.052500
3.108000,0.017500
3.112000,-0.020000
3.116000,-0.052500
3.120000,-0.117500
3.124000,-0.195000
3.128000,-0.255000
3.132000,-0.305000
3.136000,-0.342500
3.140000,-0.365000
3.144000,-0.377500
3.148000,-0.385000
3.152000,-0.390000
3.156000,-0.400000
3.160000,-0.400000
3.164000,-0.397500
3.168000,-0.402500
3.172000,-0.400000
3.176000,-0.382500
3.180000,-0.357500
3.184000,-0.332500
3.188000,-0.322500
3.192000,-0.322500
3.196000,-0.307500
3.200000,-0.287500
3.204000,-0.290000
3.208000,-0.310000
3.212000,-0.360000
3.216000,-0.435000
3.220000,-0.500000
3.224000,-0.485000
3.228000,-0.397500
3.232000,-0.320000
3.236000,-0.265000
3.240000,-0.207500
3.244000,-0.147500
3.248000,-0.087500
3.252000,0.040000
3.256000,0.217500
3.260000,0.400000
3.264000,0.575000
3.268000,0.867500
3.272000,1.192500
3.276000,1.507500
3.280000,1.775000
3.284000,1.897500
3.288000,1.920000
3.292000,1.927500
3.296000,1.932500
3.300000,1.842500
3.304000,1.635000
3.308000,1.322500
3.312000,0.997500
3.316000,0.732500
3.320000,0.417500
3.324000,0.115000
3.328000,-0.115000
3.332000,-0.210000
3.336000,-0.192500
3.340000,-0.152500
3.344000,-0.142500
3.348000,-0.160000
3.352000,-0.150000
3.356000,-0.125000
3.360000,-0.140000
3.364000,-0.182500
3.368000,-0.217500
3.372000,-0.230000
3.376000,-0.247500
3.380000,-0.272500
3.384000,-0.307500
3.388000,-0.317500
3.392000,-0.322500
3.396000,-0.342500
3.400000,-0.380000
3.404000,-0.407500
3.408000,-0.432500
3.412000,-0.472500
3.416000,-0.492500
3.420000,-0.510000
3.424000,-0.532500
3.428000,-0.540000
3.432000,-0.542500
3.436000,-0.535000
3.440000,-0.517500
3.444000,-0.495000
3.448000,-0.475000
3.452000,-0.462500
3.456000,-0.452500
3.460000,-0.445000
3.464000,-0.427500
3.468000,-0.402500
3.472000,-0.367500
3.476000,-0.332500
3.480000,-0.315000
3.484000,-0.312500
3.488000,-0.307500
3.492000,-0.277500
3.496000,-0.262500
3.500000,-0.240000
3.504000,-0.247500
3.508000,-0.272500
3.512000,-0.340000
3.516000,-0.407500
3.520000,-0.485000
3.524000,-0.555000
3.528000,-0.622500
3.532000,-0.692500
3.536000,-0.687500
3.540000,-0.605000
3.544000,-0.537500
3.548000,-0.520000
3.552000,-0.492500
3.556000,-0.435000
3.560000,-0.360000
3.564000,-0.255000
3.568000,-0.080000
3.572000,0.140000
3.576000,0.372500
3.580000,0.717500
3.584000,1.072500
3.588000,1.327500
3.592000,1.542500
3.596000,1.682500
3.600000,1.777500
3.604000,1.865000
3.608000,1.827500
3.612000,1.647500
3.616000,1.387500
3.620000,1.080000
3.624000,0.852500
3.628000,0.660000
3.632000,0.442500
3.636000,0.247500
3.640000,0.142500
3.644000,0.142500
3.648000,0.182500
3.652000,0.200000
3.656000,0.175000
3.660000,0.157500
3.664000,0.160000
3.668000,0.157500
3.672000,0.132500
3.676000,0.102500
3.680000,0.085000
3.684000,0.080000
3.688000,0.047500
3.692000,0.005000
3.696000,-0.052500
3.700000,-0.102500
3.704000,-0.177500
3.708000,-0.262500
3.712000,-0.337500
3.716000,-0.395000
3.720000,-0.442500
3.724000,-0.475000
3.728000,-0.497500
3.732000,-0.522500
3.736000,-0.555000
3.740000,-0.587500
3.744000,-0.622500
3.748000,-0.652500
3.752000,-0.675000
3.756000,-0.700000
3.760000,-0.712500
3.764000,-0.702500
3.768000,-0.687500
3.772000,-0.655000
3.776000,-0.610000
3.780000,-0.567500
3.784000,-0.525000
3.788000,-0.487500
3.792000,-0.452500
3.796000,-0.430000
3.800000,-0.407500
3.804000,-0.380000
3.808000,-0.345000
3.812000,-0.317500
3.816000,-0.305000
3.820000,-0.292500
3.824000,-0.275000
3.828000,-0.262500
3.832000,-0.250000
3.836000,-0.245000
3.840000,-0.245000
3.844000,-0.247500
3.848000,-0.250000
3.852000,-0.245000
3.856000,-0.247500
3.860000,-0.247500
3.864000,-0.252500
3.868000,-0.255000
3.872000,-0.260000
3.876000,-0.250000
3.880000,-0.250000
3.884000,-0.252500
3.888000,-0.267500
3.892000,-0.300000
3.896000,-0.362500
3.900000,-0.452500
3.904000,-0.557500
3.908000,-0.650000
3.912000,-0.722500
3.916000,-0.715000
3.920000,-0.645000
3.924000,-0.547500
3.928000,-0.457500
3.932000,-0.375000
3.936000,-0.290000
3.940000,-0.202500
3.944000,-0.057500
3.948000,0.160000
3.952000,0.425000
3.956000,0.732500
3.960000,1.025000
3.964000,1.197500
3.968000,1.310000
3.972000,1.392500
3.976000,1.452500
3.980000,1.522500
3.984000,1.487500
3.988000,1.325000
3.992000,1.080000
3.996000,0.862500
4.000000,0.672500
4.004000,0.450000
4.008000,0.245000
4.012000,0.127500
4.016000,0.087500
4.020000,0.105000
4.024000,0.130000
4.028000,0.127500
4.032000,0.092500
4.036000,0.070000
4.040000,0.067500
4.044000,0.067500
4.048000,0.052500
4.052000,0.047500
4.056000,0.050000
4.060000,0.047500
4.064000,0.025000
4.068000,0.012500
4.072000,0.000000
4.076000,-0.030000
4.080000,-0.062500
4.084000,-0.097500
4.088000,-0.142500
4.092000,-0.200000
4.096000,-0.272500
4.100000,-0.340000
4.104000,-0.395000
4.108000,-0.430000
4.112000,-0.455000
4.116000,-0.485000
4.120000,-0.512500
4.124000,-0.532500
4.128000,-0.542500
4.132000,-0.560000
4.136000,-0.567500
4.140000,-0.570000
4.144000,-0.575000
4.148000,-0.575000
4.152000,-0.565000
4.156000,-0.552500
4.160000,-0.517500
4.164000,-0.467500
4.168000,-0.412500
4.172000,-0.360000
4.176000,-0.315000
4.180000,-0.295000
4.184000,-0.292500
4.188000,-0.292500
4.192000,-0.282500
4.196000,-0.262500
4.200000,-0.240000
4.204000,-0.220000
4.208000,-0.207500
4.212000,-0.202500
4.216000,-0.197500
4.220000,-0.200000
4.224000,-0.202500
4.228000,-0.207500
4.232000,-0.222500
4.236000,-0.230000
4.240000,-0.232500
4.244000,-0.237500
4.248000,-0.247500
4.252000,-0.250000
4.256000,-0.255000
4.260000,-0.260000
4.264000,-0.267500
4.268000,-0.270000
4.272000,-0.277500
4.276000,-0.290000
4.280000,-0.327500
4.284000,-0.385000
4.288000,-0.472500
4.292000,-0.565000
4.296000,-0.650000
4.300000,-0.722500
4.304000,-0.737500
4.308000,-0.680000
4.312000,-0.597500
4.316000,-0.512500
4.320000,-0.447500
4.324000,-0.387500
4.328000,-0.315000
4.332000,-0.175000
4.336000,0.047500
4.340000,0.307500
4.344000,0.610000
4.348000,0.920000
4.352000,1.127500
4.356000,1.265000
4.360000,1.375000
4.364000,1.445000
4.368000,1.537500
4.372000,1.552500
4.376000,1.417500
4.380000,1.170000
4.384000,0.925000
4.388000,0.750000
4.392000,0.585000
4.396000,0.397500
4.400000,0.272500
4.404000,0.220000
4.408000,0.227500
4.412000,0.267500
4.416000,0.287500
4.420000,0.270000
4.424000,0.250000
4.428000,0.252500
4.432000,0.247500
4.436000,0.225000
4.440000,0.200000
4.444000,0.197500
4.448000,0.195000
4.452000,0.182500
4.456000,0.157500
4.460000,0.135000
4.464000,0.110000
4.468000,0.075000
4.472000,0.035000
4.476000,-0.030000
4.480000,-0.092500
4.484000,-0.162500
4.488000,-0.230000
4.492000,-0.275000
4.496000,-0.310000
4.500000,-0.335000
4.504000,-0.367500
4.508000,-0.402500
4.512000,-0.430000
4.516000,-0.455000
4.520000,-0.480000
4.524000,-0.497500
4.528000,-0.512500
4.532000,-0.530000
4.536000,-0.535000
4.540000,-0.537500
4.544000,-0.525000
4.548000,-0.502500
4.552000,-0.465000
4.556000,-0.430000
4.560000,-0.397500
4.564000,-0.360000
4.568000,-0.337500
4.572000,-0.327500
4.576000,-0.312500
4.580000,-0.297500
4.584000,-0.275000
4.588000,-0.252500
4.592000,-0.225000
4.596000,-0.202500
4.600000,-0.185000
4.604000,-0.180000
4.608000,-0.165000
4.612000,-0.157500
4.616000,-0.157500
4.620000,-0.160000
4.624000,-0.157500
4.628000,-0.152500
4.632000,-0.147500
4.636000,-0.147500
4.640000,-0.152500
4.644000,-0.155000
4.648000,-0.160000
4.652000,-0.157500
4.656000,-0.160000
4.660000,-0.170000
4.664000,-0.200000
4.668000,-0.252500
4.672000,-0.335000
4.676000,-0.427500
4.680000,-0.525000
4.684000,-0.607500
4.688000,-0.660000
4.692000,-0.632500
4.696000,-0.562500
4.700000,-0.485000
4.704000,-0.425000
4.708000,-0.360000
4.712000,-0.297500
4.716000,-0.192500
4.720000,0.000000
4.724000,0.245000
4.728000,0.547500
4.732000,0.870000
4.736000,1.125000
4.740000,1.260000
4.744000,1.367500
4.748000,1.442500
4.752000,1.522500
4.756000,1.582500
4.760000,1.505000
4.764000,1.285000
4.768000,1.030000
4.772000,0.850000
4.776000,0.695000
4.780000,0.500000
4.784000,0.345000
4.788000,0.262500
4.792000,0.245000
4.796000,0.282500
4.800000,0.317500
4.804000,0.305000
4.808000,0.275000
4.812000,0.265000
4.816000,0.270000
4.820000,0.265000
4.824000,0.250000
4.828000,0.245000
4.832000,0.245000
4.836000,0.240000
4.840000,0.220000
4.844000,0.207500
4.848000,0.197500
4.852000,0.180000
4.856000,0.152500
4.860000,0.107500
4.864000,0.052500
4.868000,-0.022500
4.872000,-0.097500
4.876000,-0.160000
4.880000,-0.202500
4.884000,-0.230000
4.888000,-0.262500
4.892000,-0.287500
4.896000,-0.320000
4.900000,-0.345000
4.904000,-0.372500
4.908000,-0.390000
4.912000,-0.410000
4.916000,-0.427500
4.920000,-0.432500
4.924000,-0.430000
4.928000,-0.417500
4.932000,-0.405000
4.936000,-0.380000
4.940000,-0.350000
4.944000,-0.315000
4.948000,-0.282500
4.952000,-0.245000
4.956000,-0.227500
4.960000,-0.222500
4.964000,-0.220000
4.968000,-0.210000
4.972000,-0.200000
4.976000,-0.180000
4.980000,-0.160000
4.984000,-0.137500
4.988000,-0.125000
4.992000,-0.112500
4.996000,-0.102500
5.000000,-0.092500
5.004000,-0.097500
5.008000,-0.097500
5.012000,-0.095000
5.016000,-0.102500
5.020000,-0.105000
5.024000,-0.112500
5.028000,-0.112500
5.032000,-0.112500
5.036000,-0.110000
5.040000,-0.115000
5.044000,-0.125000
5.048000,-0.132500
5.052000,-0.152500
5.056000,-0.195000
5.060000,-0.262500
5.064000,-0.342500
5.068000,-0.432500
5.072000,-0.512500
5.076000,-0.575000
5.080000,-0.612500
5.084000,-0.587500
5.088000,-0.520000
5.092000,-0.432500
5.096000,-0.357500
5.100000,-0.285000
5.104000,-0.217500
5.108000,-0.105000
5.112000,0.087500
5.116000,0.315000
5.120000,0.605000
5.124000,0.920000
5.128000,1.155000
5.132000,1.295000
5.136000,1.397500
5.140000,1.485000
5.144000,1.580000
5.148000,1.622500
5.152000,1.515000
5.156000,1.287500
5.160000,1.060000
5.164000,0.897500
5.168000,0.732500
5.172000,0.542500
5.176000,0.410000
5.180000,0.345000
5.184000,0.350000
5.188000,0.390000
5.192000,0.420000
5.196000,0.402500
5.200000,0.367500
5.204000,0.357500
5.208000,0.345000
5.212000,0.330000
5.216000,0.312500
5.220000,0.305000
5.224000,0.297500
5.228000,0.277500
5.232000,0.247500
5.236000,0.237500
5.240000,0.217500
5.244000,0.185000
5.248000,0.137500
5.252000,0.085000
5.256000,0.025000
5.260000,-0.047500
5.264000,-0.115000
5.268000,-0.165000
5.272000,-0.197500
5.276000,-0.222500
5.280000,-0.260000
5.284000,-0.297500
5.288000,-0.332500
5.292000,-0.360000
5.296000,-0.382500
5.300000,-0.402500
5.304000,-0.427500
5.308000,-0.430000
5.312000,-0.422500
5.316000,-0.425000
5.320000,-0.420000
5.324000,-0.395000
5.328000,-0.375000
5.332000,-0.342500
5.336000,-0.292500
5.340000,-0.252500
5.344000,-0.227500
5.348000,-0.210000
5.352000,-0.185000
5.356000,-0.157500
5.360000,-0.125000
5.364000,-0.097500
5.368000,-0.072500
5.372000,-0.067500
5.376000,-0.060000
5.380000,-0.050000
5.384000,-0.035000
5.388000,-0.022500
5.392000,-0.017500
5.396000,0.000000
5.400000,-0.020000
5.404000,-0.045000
5.408000,-0.062500
5.412000,-0.082500
5.416000,-0.110000
5.420000,-0.135000
5.424000,-0.187500
5.428000,-0.275000
5.432000,-0.355000
5.436000,-0.400000
5.440000,-0.380000
5.444000,-0.322500
5.448000,-0.292500
5.452000,-0.255000
5.456000,-0.215000
5.460000,-0.152500
5.464000,-0.050000
5.468000,0.137500
5.472000,0.367500
5.476000,0.630000
5.480000,0.962500
5.484000,1.257500
5.488000,1.437500
5.492000,1.565000
5.496000,1.617500
5.500000,1.617500
5.504000,1.615000
5.508000,1.527500
5.512000,1.347500
5.516000,1.087500
5.520000,0.890000
5.524000,0.740000
5.528000,0.562500
5.532000,0.400000
5.536000,0.267500
5.540000,0.185000
5.544000,0.172500
5.548000,0.200000
5.552000,0.220000
5.556000,0.205000
5.560000,0.215000
5.564000,0.237500
5.568000,0.252500
5.572000,0.260000
5.576000,0.267500
5.580000,0.282500
5.584000,0.310000
5.588000,0.322500
5.592000,0.335000
5.596000,0.335000
5.600000,0.330000
5.604000,0.297500
5.608000,0.255000
5.612000,0.240000
5.616000,0.222500
5.620000,0.175000
5.624000,0.120000
5.628000,0.057500
5.632000,-0.035000
5.636000,-0.105000
5.640000,-0.162500
5.644000,-0.220000
5.648000,-0.260000
5.652000,-0.275000
5.656000,-0.295000
5.660000,-0.312500
5.664000,-0.322500
5.668000,-0.322500
5.672000,-0.317500
5.676000,-0.292500
5.680000,-0.262500
5.684000,-0.240000
5.688000,-0.240000
5.692000,-0.230000
5.696000,-0.227500
5.700000,-0.237500
5.704000,-0.265000
5.708000,-0.275000
5.712000,-0.267500
5.716000,-0.247500
5.720000,-0.232500
5.724000,-0.225000
5.728000,-0.255000
5.732000,-0.327500
5.736000,-0.402500
5.740000,-0.432500
5.744000,-0.367500
5.748000,-0.250000
5.752000,-0.162500
5.756000,-0.120000
5.760000,-0.045000
5.764000,0.052500
5.768000,0.130000
5.772000,0.252500
5.776000,0.447500
5.780000,0.647500
5.784000,0.902500
5.788000,1.260000
5.792000,1.572500
5.796000,1.822500
5.800000,1.997500
5.804000,2.060000
5.808000,2.085000
5.812000,2.090000
5.816000,1.977500
5.820000,1.762500
5.824000,1.467500
5.828000,1.160000
5.832000,0.920000
5.836000,0.692500
5.840000,0.435000
5.844000,0.237500
5.848000,0.147500
5.852000,0.170000
5.856000,0.202500
5.860000,0.210000
5.864000,0.175000
5.868000,0.140000
5.872000,0.140000
5.876000,0.137500
5.880000,0.097500
5.884000,0.047500
5.888000,0.040000
5.892000,0.035000
5.896000,0.007500
5.900000,-0.027500
5.904000,-0.045000
5.908000,-0.062500
5.912000,-0.095000
5.916000,-0.132500
5.920000,-0.162500
5.924000,-0.195000
5.928000,-0.227500
5.932000,-0.242500
5.936000,-0.255000
5.940000,-0.282500
5.944000,-0.300000
5.948000,-0.320000
5.952000,-0.310000
5.956000,-0.300000
5.960000,-0.292500
5.964000,-0.292500
5.968000,-0.285000
5.972000,-0.262500
5.976000,-0.210000
5.980000,-0.175000
5.984000,-0.155000
5.988000,-0.150000
5.992000,-0.152500
5.996000,-0.147500
6.000000,-0.117500
6.004000,-0.125000
6.008000,-0.172500
6.012000,-0.252500
6.016000,-0.340000
6.020000,-0.407500
6.024000,-0.397500
6.028000,-0.360000
6.032000,-0.342500
6.036000,-0.332500
6.040000,-0.292500
6.044000,-0.225000
6.048000,-0.140000
6.052000,-0.022500
6.056000,0.160000
6.060000,0.337500
6.064000,0.560000
6.068000,0.845000
6.072000,1.140000
6.076000,1.425000
6.080000,1.625000
6.084000,1.710000
6.088000,1.740000
6.092000,1.785000
6.096000,1.785000
6.100000,1.657500
6.104000,1.437500
6.108000,1.152500
6.112000,0.905000
6.116000,0.687500
6.120000,0.462500
6.124000,0.270000
6.128000,0.155000
6.132000,0.137500
6.136000,0.187500
6.140000,0.210000
6.144000,0.187500
6.148000,0.175000
6.152000,0.177500
6.156000,0.172500
6.160000,0.152500
6.164000,0.117500
6.168000,0.107500
6.172000,0.097500
6.176000,0.070000
6.180000,0.025000
6.184000,-0.035000
6.188000,-0.072500
6.192000,-0.112500
6.196000,-0.147500
6.200000,-0.185000
6.204000,-0.240000
6.208000,-0.292500
6.212000,-0.360000
6.216000,-0.432500
6.220000,-0.510000
6.224000,-0.580000
6.228000,-0.627500
6.232000,-0.660000
6.236000,-0.667500
6.240000,-0.670000
6.244000,-0.660000
6.248000,-0.655000
6.252000,-0.635000
6.256000,-0.602500
6.260000,-0.567500
6.264000,-0.542500
6.268000,-0.535000
6.272000,-0.532500
6.276000,-0.540000
6.280000,-0.587500
6.284000,-0.652500
6.288000,-0.715000
6.292000,-0.725000
6.296000,-0.665000
6.300000,-0.552500
6.304000,-0.477500
6.308000,-0.427500
6.312000,-0.377500
6.316000,-0.300000
6.320000,-0.205000
6.324000,-0.080000
6.328000,0.115000
6.332000,0.295000
6.336000,0.535000
6.340000,0.845000
6.344000,1.155000
6.348000,1.465000
6.352000,1.750000
6.356000,1.882500
6.360000,1.952500
6.364000,1.997500
6.368000,2.020000
6.372000,1.940000
6.376000,1.762500
6.380000,1.475000
6.384000,1.172500
6.388000,0.892500
6.392000,0.597500
6.396000,0.322500
6.400000,0.142500
6.404000,0.052500
6.408000,0.030000
6.412000,0.000000
6.416000,-0.090000
6.420000,-0.160000
6.424000,-0.180000
6.428000,-0.172500
6.432000,-0.180000
6.436000,-0.205000
6.440000,-0.237500
6.444000,-0.260000
6.448000,-0.282500
6.452000,-0.315000
6.456000,-0.355000
6.460000,-0.395000
6.464000,-0.445000
6.468000,-0.507500
6.472000,-0.565000
6.476000,-0.615000
6.480000,-0.665000
6.484000,-0.690000
6.488000,-0.705000
6.492000,-0.715000
6.496000,-0.720000
6.500000,-0.727500
6.504000,-0.755000
6.508000,-0.755000
6.512000,-0.732500
6.516000,-0.712500
6.520000,-0.667500
6.524000,-0.620000
6.528000,-0.562500
6.532000,-0.512500
6.536000,-0.467500
6.540000,-0.425000
6.544000,-0.380000
6.548000,-0.340000
6.552000,-0.312500
6.556000,-0.282500
6.560000,-0.250000
6.564000,-0.240000
6.568000,-0.230000
6.572000,-0.237500
6.576000,-0.240000
6.580000,-0.245000
6.584000,-0.250000
6.588000,-0.262500
6.592000,-0.267500
6.596000,-0.285000
6.600000,-0.312500
6.604000,-0.357500
6.608000,-0.430000
6.612000,-0.517500
6.616000,-0.622500
6.620000,-0.700000
6.624000,-0.742500
6.628000,-0.710000
6.632000,-0.615000
6.636000,-0.545000
6.640000,-0.500000
6.644000,-0.427500
6.648000,-0.352500
6.652000,-0.260000
6.656000,-0.140000
6.660000,0.060000
6.664000,0.255000
6.668000,0.510000
6.672000,0.825000
6.676000,1.087500
6.680000,1.300000
6.684000,1.475000
6.688000,1.605000
6.692000,1.702500
6.696000,1.730000
6.700000,1.595000
6.704000,1.370000
6.708000,1.095000
6.712000,0.840000
6.716000,0.630000
6.720000,0.377500
6.724000,0.160000
6.728000,0.040000
6.732000,0.012500
6.736000,0.052500
6.740000,0.075000
6.744000,0.050000
6.748000,0.012500
6.752000,0.000000
6.756000,0.000000
6.760000,-0.030000
6.764000,-0.067500
6.768000,-0.082500
6.772000,-0.080000
6.776000,-0.090000
6.780000,-0.120000
6.784000,-0.147500
6.788000,-0.175000
6.792000,-0.220000
6.796000,-0.282500
6.800000,-0.360000
6.804000,-0.422500
6.808000,-0.475000
6.812000,-0.517500
6.816000,-0.560000
6.820000,-0.580000
6.824000,-0.600000
6.828000,-0.615000
6.832000,-0.635000
6.836000,-0.652500
6.840000,-0.675000
6.844000,-0.695000
6.848000,-0.715000
6.852000,-0.720000
6.856000,-0.717500
6.860000,-0.700000
6.864000,-0.677500
6.868000,-0.642500
6.872000,-0.597500
6.876000,-0.545000
6.880000,-0.507500
6.884000,-0.470000
6.888000,-0.445000
6.892000,-0.427500
6.896000,-0.407500
6.900000,-0.387500
6.904000,-0.372500
6.908000,-0.345000
6.912000,-0.335000
6.916000,-0.332500
6.920000,-0.322500
6.924000,-0.317500
6.928000,-0.312500
6.932000,-0.300000
6.936000,-0.297500
6.940000,-0.300000
6.944000,-0.307500
6.948000,-0.315000
6.952000,-0.317500
6.956000,-0.320000
6.960000,-0.315000
6.964000,-0.315000
6.968000,-0.312500
6.972000,-0.310000
6.976000,-0.307500
6.980000,-0.320000
6.984000,-0.352500
6.988000,-0.407500
6.992000,-0.470000
6.996000,-0.562500
7.000000,-0.657500
7.004000,-0.742500
7.008000,-0.767500
7.012000,-0.722500
7.016000,-0.650000
7.020000,-0.570000
7.024000,-0.510000
7.028000,-0.465000
7.032000,-0.407500
7.036000,-0.287500
7.040000,-0.095000
7.044000,0.160000
7.048000,0.455000
7.052000,0.805000
7.056000,1.052500
7.060000,1.217500
7.064000,1.327500
7.068000,1.380000
7.072000,1.437500
7.076000,1.457500
7.080000,1.377500
7.084000,1.205000
7.088000,0.990000
7.092000,0.817500
7.096000,0.645000
7.100000,0.420000
7.104000,0.232500
7.108000,0.142500
7.112000,0.135000
7.116000,0.170000
7.120000,0.197500
7.124000,0.185000
7.128000,0.155000
7.132000,0.150000
7.136000,0.152500
7.140000,0.127500
7.144000,0.112500
7.148000,0.112500
7.152000,0.120000
7.156000,0.102500
7.160000,0.072500
7.164000,0.042500
7.168000,0.015000
7.172000,-0.037500
7.176000,-0.085000
7.180000,-0.152500
7.184000,-0.207500
7.188000,-0.267500
7.192000,-0.327500
7.196000,-0.367500
7.200000,-0.400000
7.204000,-0.425000
7.208000,-0.455000
7.212000,-0.480000
7.216000,-0.507500
7.220000,-0.525000
7.224000,-0.545000
7.228000,-0.565000
7.232000,-0.577500
7.236000,-0.580000
7.240000,-0.585000
7.244000,-0.577500
7.248000,-0.565000
7.252000,-0.547500
7.256000,-0.525000
7.260000,-0.490000
7.264000,-0.455000
7.268000,-0.427500
7.272000,-0.407500
7.276000,-0.395000
7.280000,-0.390000
7.284000,-0.382500
7.288000,-0.362500
7.292000,-0.345000
7.296000,-0.340000
7.300000,-0.340000
7.304000,-0.342500
7.308000,-0.335000
7.312000,-0.315000
7.316000,-0.292500
7.320000,-0.272500
7.324000,-0.262500
7.328000,-0.260000
7.332000,-0.260000
7.336000,-0.252500
7.340000,-0.260000
7.344000,-0.262500
7.348000,-0.267500
7.352000,-0.267500
7.356000,-0.270000
7.360000,-0.265000
7.364000,-0.275000
7.368000,-0.297500
7.372000,-0.322500
7.376000,-0.340000
7.380000,-0.360000
7.384000,-0.382500
7.388000,-0.402500
7.392000,-0.425000
7.396000,-0.457500
7.400000,-0.520000
7.404000,-0.587500
7.408000,-0.657500
7.412000,-0.692500
7.416000,-0.650000
7.420000,-0.570000
7.424000,-0.497500
7.428000,-0.442500
7.432000,-0.387500
7.436000,-0.312500
7.440000,-0.172500
7.444000,0.047500
7.448000,0.317500
7.452000,0.650000
7.456000,0.965000
7.460000,1.177500
7.464000,1.290000
7.468000,1.365000
7.472000,1.417500
7.476000,1.490000
7.480000,1.510000
7.484000,1.400000
7.488000,1.167500
7.492000,0.945000
7.496000,0.787500
7.500000,0.600000
7.504000,0.390000
7.508000,0.247500
7.512000,0.180000
7.516000,0.172500
7.520000,0.187500
7.524000,0.185000
7.528000,0.147500
7.532000,0.110000
7.536000,0.117500
7.540000,0.130000
7.544000,0.130000
7.548000,0.120000
7.552000,0.115000
7.556000,0.097500
7.560000,0.065000
7.564000,0.022500
7.568000,-0.022500
7.572000,-0.057500
7.576000,-0.092500
7.580000,-0.130000
7.584000,-0.152500
7.588000,-0.170000
7.592000,-0.195000
7.596000,-0.220000
7.600000,-0.252500
7.604000,-0.282500
7.608000,-0.305000
7.612000,-0.332500
7.616000,-0.372500
7.620000,-0.407500
7.624000,-0.445000
7.628000,-0.465000
7.632000,-0.477500
7.636000,-0.485000
7.640000,-0.487500
7.644000,-0.467500
7.648000,-0.452500
7.652000,-0.427500
7.656000,-0.405000
7.660000,-0.382500
7.664000,-0.365000
7.668000,-0.342500
7.672000,-0.315000
7.676000,-0.277500
7.680000,-0.250000
7.684000,-0.222500
7.688000,-0.200000
7.692000,-0.180000
7.696000,-0.162500
7.700000,-0.150000
7.704000,-0.140000
7.708000,-0.137500
7.712000,-0.147500
7.716000,-0.157500
7.720000,-0.162500
7.724000,-0.172500
7.728000,-0.175000
7.732000,-0.175000
7.736000,-0.175000
7.740000,-0.195000
7.744000,-0.217500
7.748000,-0.250000
7.752000,-0.285000
7.756000,-0.320000
7.760000,-0.362500
7.764000,-0.430000
7.768000,-0.525000
7.772000,-0.610000
7.776000,-0.670000
7.780000,-0.647500
7.784000,-0.567500
7.788000,-0.510000
7.792000,-0.455000
7.796000,-0.410000
7.800000,-0.360000
7.804000,-0.265000
7.808000,-0.092500
7.812000,0.170000
7.816000,0.430000
7.820000,0.760000
7.824000,1.095000
7.828000,1.307500
7.832000,1.457500
7.836000,1.532500
7.840000,1.557500
7.844000,1.600000
7.848000,1.580000
7.852000,1.447500
7.856000,1.237500
7.860000,1.012500
7.864000,0.852500
7.868000,0.675000
7.872000,0.472500
7.876000,0.335000
7.880000,0.262500
7.884000,0.262500
7.888000,0.300000
7.892000,0.327500
7.896000,0.310000
7.900000,0.282500
7.904000,0.287500
7.908000,0.292500
7.912000,0.277500
7.916000,0.255000
7.920000,0.250000
7.924000,0.247500
7.928000,0.225000
7.932000,0.197500
7.936000,0.170000
7.940000,0.130000
7.944000,0.072500
7.948000,0.012500
7.952000,-0.050000
7.956000,-0.097500
7.960000,-0.155000
7.964000,-0.220000
7.968000,-0.277500
7.972000,-0.315000
7.976000,-0.335000
7.980000,-0.352500
7.984000,-0.365000
7.988000,-0.380000
7.992000,-0.387500
7.996000,-0.405000
8.000000,-0.425000
8.004000,-0.432500
8.008000,-0.440000
8.012000,-0.425000
8.016000,-0.405000
8.020000,-0.382500
8.024000,-0.360000
8.028000,-0.330000
8.032000,-0.305000
8.036000,-0.272500
8.040000,-0.250000
8.044000,-0.237500
8.048000,-0.232500
8.052000,-0.222500
8.056000,-0.205000
8.060000,-0.192500
8.064000,-0.182500
8.068000,-0.175000
8.072000,-0.160000
8.076000,-0.140000
8.080000,-0.125000
8.084000,-0.112500
8.088000,-0.115000
8.092000,-0.112500
8.096000,-0.115000
8.100000,-0.115000
8.104000,-0.120000
8.108000,-0.120000
8.112000,-0.117500
8.116000,-0.115000
8.120000,-0.112500
8.124000,-0.117500
8.128000,-0.132500
8.132000,-0.147500
8.136000,-0.155000
8.140000,-0.175000
8.144000,-0.192500
8.148000,-0.227500
8.152000,-0.272500
8.156000,-0.342500
8.160000,-0.417500
8.164000,-0.480000
8.168000,-0.542500
8.172000,-0.547500
8.176000,-0.492500
8.180000,-0.410000
8.184000,-0.337500
8.188000,-0.270000
8.192000,-0.197500
8.196000,-0.097500
8.200000,0.072500
8.204000,0.295000
8.208000,0.582500
8.212000,0.895000
8.216000,1.165000
8.220000,1.320000
8.224000,1.410000
8.228000,1.490000
8.232000,1.572500
8.236000,1.637500
8.240000,1.560000
8.244000,1.352500
8.248000,1.092500
8.252000,0.905000
8.256000,0.760000
8.260000,0.585000
8.264000,0.427500
8.268000,0.342500
8.272000,0.320000
8.276000,0.350000
8.280000,0.372500
8.284000,0.350000
8.288000,0.315000
8.292000,0.305000
8.296000,0.307500
8.300000,0.290000
8.304000,0.270000
8.308000,0.265000
8.312000,0.260000
8.316000,0.222500
8.320000,0.180000
8.324000,0.147500
8.328000,0.127500
8.332000,0.092500
8.336000,0.070000
8.340000,0.027500
8.344000,-0.027500
8.348000,-0.072500
8.352000,-0.115000
8.356000,-0.142500
8.360000,-0.150000
8.364000,-0.160000
8.368000,-0.182500
8.372000,-0.207500
8.376000,-0.245000
8.380000,-0.287500
8.384000,-0.327500
8.388000,-0.372500
8.392000,-0.397500
8.396000,-0.407500
8.400000,-0.407500
8.404000,-0.402500
8.408000,-0.382500
8.412000,-0.357500
8.416000,-0.330000
8.420000,-0.297500
8.424000,-0.272500
8.428000,-0.240000
8.432000,-0.205000
8.436000,-0.182500
8.440000,-0.175000
8.444000,-0.162500
8.448000,-0.152500
8.452000,-0.135000
8.456000,-0.120000
8.460000,-0.107500
8.464000,-0.102500
8.468000,-0.102500
8.472000,-0.102500
8.476000,-0.095000
8.480000,-0.087500
8.484000,-0.085000
8.488000,-0.102500
8.492000,-0.110000
8.496000,-0.135000
8.500000,-0.160000
8.504000,-0.195000
8.508000,-0.230000
8.512000,-0.270000
8.516000,-0.300000
8.520000,-0.327500
8.524000,-0.360000
8.528000,-0.412500
8.532000,-0.480000
8.536000,-0.535000
8.540000,-0.555000
8.544000,-0.497500
8.548000,-0.422500
8.552000,-0.352500
8.556000,-0.290000
8.560000,-0.225000
8.564000,-0.170000
8.568000,-0.065000
8.572000,0.127500
8.576000,0.362500
8.580000,0.635000
8.584000,0.985000
8.588000,1.240000
8.592000,1.395000
8.596000,1.505000
8.600000,1.570000
8.604000,1.622500
8.608000,1.665000
8.612000,1.570000
8.616000,1.332500
8.620000,1.047500
8.624000,0.845000
8.628000,0.697500
8.632000,0.532500
8.636000,0.400000
8.640000,0.312500
8.644000,0.290000
8.648000,0.315000
8.652000,0.352500
8.656000,0.340000
8.660000,0.315000
8.664000,0.317500
8.668000,0.337500
8.672000,0.332500
8.676000,0.312500
8.680000,0.300000
8.684000,0.300000
8.688000,0.285000
8.692000,0.245000
8.696000,0.185000
8.700000,0.135000
8.704000,0.095000
8.708000,0.047500
8.712000,0.007500
8.716000,-0.037500
8.720000,-0.080000
8.724000,-0.132500
8.728000,-0.187500
8.732000,-0.237500
8.736000,-0.282500
8.740000,-0.327500
8.744000,-0.350000
8.748000,-0.380000
8.752000,-0.407500
8.756000,-0.430000
8.760000,-0.442500
8.764000,-0.447500
8.768000,-0.427500
8.772000,-0.405000
8.776000,-0.405000
8.780000,-0.420000
8.784000,-0.420000
8.788000,-0.405000
8.792000,-0.382500
8.796000,-0.340000
8.800000,-0.305000
8.804000,-0.272500
8.808000,-0.245000
8.812000,-0.232500
8.816000,-0.240000
8.820000,-0.252500
8.824000,-0.262500
8.828000,-0.232500
8.832000,-0.202500
8.836000,-0.180000
8.840000,-0.162500
8.844000,-0.152500
8.848000,-0.140000
8.852000,-0.132500
8.856000,-0.120000
8.860000,-0.115000
8.864000,-0.115000
8.868000,-0.112500
8.872000,-0.095000
8.876000,-0.087500
8.880000,-0.092500
8.884000,-0.115000
8.888000,-0.147500
8.892000,-0.165000
8.896000,-0.172500
8.900000,-0.180000
8.904000,-0.185000
8.908000,-0.205000
8.912000,-0.250000
8.916000,-0.285000
8.920000,-0.317500
8.924000,-0.377500
8.928000,-0.447500
8.932000,-0.510000
8.936000,-0.560000
8.940000,-0.602500
8.944000,-0.565000
8.948000,-0.490000
8.952000,-0.395000
8.956000,-0.315000
8.960000,-0.222500
8.964000,-0.097500
8.968000,0.050000
8.972000,0.240000
8.976000,0.470000
8.980000,0.747500
8.984000,1.050000
8.988000,1.295000
8.992000,1.425000
8.996000,1.477500
9.000000,1.512500
9.004000,1.582500
9.008000,1.610000
9.012000,1.452500
9.016000,1.150000
9.020000,0.880000
9.024000,0.732500
9.028000,0.630000
9.032000,0.520000
9.036000,0.400000
9.040000,0.305000
9.044000,0.282500
9.048000,0.310000
9.052000,0.322500
9.056000,0.287500
9.060000,0.247500
9.064000,0.232500
9.068000,0.200000
9.072000,0.147500
9.076000,0.117500
9.080000,0.115000
9.084000,0.105000
9.088000,0.085000
9.092000,0.062500
9.096000,0.042500
9.100000,0.005000
9.104000,-0.057500
9.108000,-0.090000
9.112000,-0.107500
9.116000,-0.125000
9.120000,-0.120000
9.124000,-0.127500
9.128000,-0.155000
9.132000,-0.192500
9.136000,-0.232500
9.140000,-0.277500
9.144000,-0.312500
9.148000,-0.327500
9.152000,-0.332500
9.156000,-0.360000
9.160000,-0.395000
9.164000,-0.420000
9.168000,-0.425000
9.172000,-0.405000
9.176000,-0.380000
9.180000,-0.360000
9.184000,-0.345000
9.188000,-0.332500
9.192000,-0.305000
9.196000,-0.262500
9.200000,-0.225000
9.204000,-0.197500
9.208000,-0.172500
9.212000,-0.152500
9.216000,-0.132500
9.220000,-0.115000
9.224000,-0.102500
9.228000,-0.087500
9.232000,-0.072500
9.236000,-0.070000
9.240000,-0.090000
9.244000,-0.135000
9.248000,-0.195000
9.252000,-0.272500
9.256000,-0.382500
9.260000,-0.480000
9.264000,-0.512500
9.268000,-0.455000
9.272000,-0.410000
9.276000,-0.390000
9.280000,-0.345000
9.284000,-0.295000
9.288000,-0.250000
9.292000,-0.165000
9.296000,0.037500
9.300000,0.260000
9.304000,0.555000
9.308000,0.935000
9.312000,1.287500
9.316000,1.552500
9.320000,1.730000
9.324000,1.775000
9.328000,1.777500
9.332000,1.755000
9.336000,1.650000
9.340000,1.460000
9.344000,1.215000
9.348000,0.925000
9.352000,0.710000
9.356000,0.492500
9.360000,0.270000
9.364000,0.107500
9.368000,0.037500
9.372000,0.047500
9.376000,0.087500
9.380000,0.097500
9.384000,0.067500
9.388000,0.047500
9.392000,0.065000
9.396000,0.067500
9.400000,0.035000
9.404000,0.017500
9.408000,0.030000
9.412000,0.047500
9.416000,0.040000
9.420000,0.022500
9.424000,0.012500
9.428000,-0.017500
9.432000,-0.057500
9.436000,-0.102500
9.440000,-0.150000
9.444000,-0.200000
9.448000,-0.270000
9.452000,-0.337500
9.456000,-0.400000
9.460000,-0.442500
9.464000,-0.487500
9.468000,-0.537500
9.472000,-0.590000
9.476000,-0.630000
9.480000,-0.652500
9.484000,-0.655000
9.488000,-0.647500
9.492000,-0.622500
9.496000,-0.590000
9.500000,-0.557500
9.504000,-0.522500
9.508000,-0.492500
9.512000,-0.462500
9.516000,-0.442500
9.520000,-0.422500
9.524000,-0.407500
9.528000,-0.402500
9.532000,-0.425000
9.536000,-0.450000
9.540000,-0.497500
9.544000,-0.555000
9.548000,-0.627500
9.552000,-0.680000
9.556000,-0.650000
9.560000,-0.567500
9.564000,-0.520000
9.568000,-0.492500
9.572000,-0.452500
9.576000,-0.400000
9.580000,-0.320000
9.584000,-0.192500
9.588000,0.035000
9.592000,0.245000
9.596000,0.487500
9.600000,0.812500
9.604000,1.147500
9.608000,1.440000
9.612000,1.677500
9.616000,1.790000
9.620000,1.847500
9.624000,1.905000
9.628000,1.927500
9.632000,1.827500
9.636000,1.625000
9.640000,1.302500
9.644000,1.005000
9.648000,0.717500
9.652000,0.387500
9.656000,0.125000
9.660000,-0.052500
9.664000,-0.107500
9.668000,-0.112500
9.672000,-0.150000
9.676000,-0.215000
9.680000,-0.267500
9.684000,-0.275000
9.688000,-0.272500
9.692000,-0.272500
9.696000,-0.272500
9.700000,-0.265000
9.704000,-0.252500
9.708000,-0.267500
9.712000,-0.300000
9.716000,-0.330000
9.720000,-0.355000
9.724000,-0.385000
9.728000,-0.430000
9.732000,-0.472500
9.736000,-0.497500
9.740000,-0.522500
9.744000,-0.547500
9.748000,-0.570000
9.752000,-0.597500
9.756000,-0.625000
9.760000,-0.645000
9.764000,-0.655000
9.768000,-0.657500
9.772000,-0.647500
9.776000,-0.627500
9.780000,-0.597500
9.784000,-0.565000
9.788000,-0.522500
9.792000,-0.487500
9.796000,-0.445000
9.800000,-0.412500
9.804000,-0.380000
9.808000,-0.352500
9.812000,-0.320000
9.816000,-0.300000
9.820000,-0.282500
9.824000,-0.267500
9.828000,-0.250000
9.832000,-0.242500
9.836000,-0.242500
9.840000,-0.237500
9.844000,-0.237500
9.848000,-0.242500
9.852000,-0.245000
9.856000,-0.255000
9.860000,-0.270000
9.864000,-0.292500
9.868000,-0.315000
9.872000,-0.342500
9.876000,-0.375000
9.880000,-0.422500
9.884000,-0.462500
9.888000,-0.500000
9.892000,-0.557500
9.896000,-0.627500
9.900000,-0.700000
9.904000,-0.777500
9.908000,-0.812500
9.912000,-0.755000
9.916000,-0.687500
9.920000,-0.612500
9.924000,-0.547500
9.928000,-0.495000
9.932000,-0.430000
9.936000,-0.327500
9.940000,-0.140000
9.944000,0.125000
9.948000,0.400000
9.952000,0.750000
9.956000,1.057500
9.960000,1.250000
9.964000,1.395000
9.968000,1.492500
9.972000,1.582500
9.976000,1.637500
9.980000,1.587500
9.984000,1.447500
9.988000,1.237500
9.992000,1.017500
9.996000,0.815000
10.000000,0.577500
10.004000,0.357500
10.008000,0.225000
10.012000,0.192500
10.016000,0.200000
10.020000,0.220000
10.024000,0.210000
10.028000,0.192500
10.032000,0.175000
10.036000,0.172500
10.040000,0.157500
10.044000,0.132500
10.048000,0.112500
10.052000,0.107500
10.056000,0.092500
10.060000,0.067500
10.064000,0.042500
10.068000,0.017500
10.072000,-0.037500
10.076000,-0.087500
10.080000,-0.140000
10.084000,-0.200000
10.088000,-0.252500
10.092000,-0.312500
10.096000,-0.360000
10.100000,-0.417500
10.104000,-0.457500
10.108000,-0.507500
10.112000,-0.537500
10.116000,-0.545000
10.120000,-0.552500
10.124000,-0.557500
10.128000,-0.555000
10.132000,-0.562500
10.136000,-0.577500
10.140000,-0.567500
10.144000,-0.542500
10.148000,-0.515000
10.152000,-0.472500
10.156000,-0.427500
10.160000,-0.382500
10.164000,-0.335000
10.168000,-0.287500
10.172000,-0.245000
10.176000,-0.207500
10.180000,-0.185000
10.184000,-0.180000
10.188000,-0.177500
10.192000,-0.180000
10.196000,-0.177500
10.200000,-0.172500
10.204000,-0.170000
10.208000,-0.175000
10.212000,-0.177500
10.216000,-0.177500
10.220000,-0.180000
10.224000,-0.185000
10.228000,-0.185000
10.232000,-0.192500
10.236000,-0.195000
10.240000,-0.200000
10.244000,-0.202500
10.248000,-0.215000
10.252000,-0.225000
10.256000,-0.232500
10.260000,-0.232500
10.264000,-0.250000
10.268000,-0.285000
10.272000,-0.350000
10.276000,-0.427500
10.280000,-0.507500
10.284000,-0.582500
10.288000,-0.592500
10.292000,-0.547500
10.296000,-0.497500
10.300000,-0.457500
10.304000,-0.422500
10.308000,-0.397500
10.312000,-0.340000
10.316000,-0.197500
10.320000,0.037500
10.324000,0.285000
10.328000,0.585000
10.332000,0.890000
10.336000,1.082500
10.340000,1.192500
10.344000,1.272500
10.348000,1.302500
10.352000,1.345000
10.356000,1.332500
10.360000,1.210000
10.364000,0.987500
10.368000,0.750000
10.372000,0.582500
10.376000,0.410000
10.380000,0.210000
10.384000,0.075000
10.388000,0.025000
10.392000,0.042500
10.396000,0.097500
10.400000,0.135000
10.404000,0.135000
10.408000,0.115000
10.412000,0.132500
10.416000,0.157500
10.420000,0.157500
10.424000,0.142500
10.428000,0.142500
10.432000,0.142500
10.436000,0.132500
10.440000,0.110000
10.444000,0.095000
10.448000,0.082500
10.452000,0.062500
10.456000,0.027500
10.460000,0.002500
10.464000,-0.040000
10.468000,-0.075000
10.472000,-0.125000
10.476000,-0.170000
10.480000,-0.215000
10.484000,-0.260000
10.488000,-0.297500
10.492000,-0.337500
10.496000,-0.382500
10.500000,-0.422500
10.504000,-0.450000
10.508000,-0.470000
10.512000,-0.475000
10.516000,-0.472500
10.520000,-0.452500
10.524000,-0.430000
10.528000,-0.405000
10.532000,-0.385000
10.536000,-0.375000
10.540000,-0.367500
10.544000,-0.355000
10.548000,-0.342500
10.552000,-0.337500
10.556000,-0.352500
10.560000,-0.380000
10.564000,-0.417500
10.568000,-0.470000
10.572000,-0.552500
10.576000,-0.637500
10.580000,-0.677500
10.584000,-0.635000
10.588000,-0.577500
10.592000,-0.535000
10.596000,-0.480000
10.600000,-0.427500
10.604000,-0.367500
10.608000,-0.247500
10.612000,-0.045000
10.616000,0.172500
10.620000,0.365000
10.624000,0.627500
10.628000,0.927500
10.632000,1.245000
10.636000,1.515000
10.640000,1.660000
10.644000,1.700000
10.648000,1.715000
10.652000,1.772500
10.656000,1.775000
10.660000,1.672500
10.664000,1.460000
10.668000,1.182500
10.672000,0.917500
10.676000,0.622500
10.680000,0.332500
10.684000,0.147500
10.688000,0.067500
10.692000,0.072500
10.696000,0.085000
10.700000,0.052500
10.704000,0.005000
10.708000,-0.037500
10.712000,-0.037500
10.716000,-0.047500
10.720000,-0.080000
10.724000,-0.105000
10.728000,-0.107500
10.732000,-0.125000
10.736000,-0.150000
10.740000,-0.180000
10.744000,-0.200000
10.748000,-0.227500
10.752000,-0.275000
10.756000,-0.327500
10.760000,-0.365000
10.764000,-0.402500
10.768000,-0.442500
10.772000,-0.477500
10.776000,-0.517500
10.780000,-0.555000
10.784000,-0.582500
10.788000,-0.590000
10.792000,-0.587500
10.796000,-0.575000
10.800000,-0.565000
10.804000,-0.552500
10.808000,-0.542500
10.812000,-0.517500
10.816000,-0.492500
10.820000,-0.465000
10.824000,-0.432500
10.828000,-0.390000
10.832000,-0.355000
10.836000,-0.322500
10.840000,-0.300000
10.844000,-0.272500
10.848000,-0.252500
10.852000,-0.232500
10.856000,-0.225000
10.860000,-0.217500
10.864000,-0.220000
10.868000,-0.227500
10.872000,-0.247500
10.876000,-0.260000
10.880000,-0.270000
10.884000,-0.292500
10.888000,-0.315000
10.892000,-0.335000
10.896000,-0.360000
10.900000,-0.380000
10.904000,-0.395000
10.908000,-0.400000
10.912000,-0.402500
10.916000,-0.402500
10.920000,-0.387500
10.924000,-0.382500
10.928000,-0.377500
10.932000,-0.367500
10.936000,-0.357500
10.940000,-0.355000
10.944000,-0.350000
10.948000,-0.340000
10.952000,-0.337500
10.956000,-0.335000
10.960000,-0.327500
10.964000,-0.305000
10.968000,-0.292500
10.972000,-0.285000
10.976000,-0.275000
10.980000,-0.265000
10.984000,-0.252500
10.988000,-0.230000
10.992000,-0.207500
10.996000,-0.192500
11.000000,-0.175000
11.004000,-0.162500
11.008000,-0.160000
11.012000,-0.155000
11.016000,-0.150000
11.020000,-0.140000
11.024000,-0.132500
11.028000,-0.125000
11.032000,-0.130000
11.036000,-0.130000
11.040000,-0.132500
11.044000,-0.115000
11.048000,-0.115000
11.052000,-0.137500
11.056000,-0.180000
11.060000,-0.242500
11.064000,-0.317500
11.068000,-0.407500
11.072000,-0.495000
11.076000,-0.502500
11.080000,-0.425000
11.084000,-0.305000
11.088000,-0.200000
11.092000,-0.110000
11.096000,0.007500
11.100000,0.120000
11.104000,0.267500
11.108000,0.465000
11.112000,0.725000
11.116000,0.965000
11.120000,1.140000
11.124000,1.227500
11.128000,1.297500
11.132000,1.372500
11.136000,1.457500
11.140000,1.447500
11.144000,1.282500
11.148000,1.015000
11.152000,0.827500
11.156000,0.672500
11.160000,0.480000
11.164000,0.287500
11.168000,0.175000
11.172000,0.135000
11.176000,0.160000
11.180000,0.177500
11.184000,0.152500
11.188000,0.127500
11.192000,0.135000
11.196000,0.170000
11.200000,0.175000
11.204000,0.177500
11.208000,0.177500
11.212000,0.180000
11.216000,0.170000
11.220000,0.155000
11.224000,0.160000
11.228000,0.165000
11.232000,0.165000
11.236000,0.172500
11.240000,0.172500
11.244000,0.177500
11.248000,0.187500
11.252000,0.195000
11.256000,0.177500
11.260000,0.160000
11.264000,0.135000
11.268000,0.080000
11.272000,0.020000
11.276000,-0.030000
11.280000,-0.067500
11.284000,-0.102500
11.288000,-0.135000
11.292000,-0.150000
11.296000,-0.177500
11.300000,-0.215000
11.304000,-0.240000
11.308000,-0.260000
11.312000,-0.250000
11.316000,-0.227500
11.320000,-0.210000
11.324000,-0.200000
11.328000,-0.182500
11.332000,-0.182500
11.336000,-0.177500
11.340000,-0.170000
11.344000,-0.162500
11.348000,-0.157500
11.352000,-0.155000
11.356000,-0.175000
11.360000,-0.192500
11.364000,-0.202500
11.368000,-0.205000
11.372000,-0.197500
11.376000,-0.177500
11.380000,-0.160000
11.384000,-0.157500
11.388000,-0.157500
11.392000,-0.157500
11.396000,-0.147500
11.400000,-0.132500
11.404000,-0.127500
11.408000,-0.142500
11.412000,-0.172500
11.416000,-0.185000
11.420000,-0.172500
11.424000,-0.150000
11.428000,-0.127500
11.432000,-0.132500
11.436000,-0.152500
11.440000,-0.202500
11.444000,-0.277500
11.448000,-0.355000
11.452000,-0.412500
11.456000,-0.380000
11.460000,-0.275000
11.464000,-0.215000
11.468000,-0.182500
11.472000,-0.132500
11.476000,-0.067500
11.480000,0.042500
11.484000,0.215000
11.488000,0.450000
11.492000,0.680000
11.496000,0.975000
11.500000,1.302500
11.504000,1.535000
11.508000,1.695000
11.512000,1.755000
11.516000,1.757500
11.520000,1.772500
11.524000,1.715000
11.528000,1.545000
11.532000,1.300000
11.536000,1.040000
11.540000,0.862500
11.544000,0.692500
11.548000,0.502500
11.552000,0.340000
11.556000,0.222500
11.560000,0.182500
11.564000,0.220000
11.568000,0.242500
11.572000,0.210000
11.576000,0.187500
11.580000,0.202500
11.584000,0.215000
11.588000,0.205000
11.592000,0.200000
11.596000,0.215000
11.600000,0.237500
11.604000,0.240000
11.608000,0.210000
11.612000,0.182500
11.616000,0.162500
11.620000,0.142500
11.624000,0.127500
11.628000,0.125000
11.632000,0.115000
11.636000,0.092500
11.640000,0.060000
11.644000,0.022500
11.648000,-0.022500
11.652000,-0.060000
11.656000,-0.112500
11.660000,-0.152500
11.664000,-0.170000
11.668000,-0.195000
11.672000,-0.222500
11.676000,-0.237500
11.680000,-0.247500
11.684000,-0.262500
11.688000,-0.265000
11.692000,-0.272500
11.696000,-0.270000
11.700000,-0.272500
11.704000,-0.270000
11.708000,-0.272500
11.712000,-0.262500
11.716000,-0.240000
11.720000,-0.217500
11.724000,-0.205000
11.728000,-0.182500
11.732000,-0.180000
11.736000,-0.182500
11.740000,-0.180000
11.744000,-0.187500
11.748000,-0.200000
11.752000,-0.202500
11.756000,-0.202500
11.760000,-0.200000
11.764000,-0.207500
11.768000,-0.217500
11.772000,-0.225000
11.776000,-0.210000
11.780000,-0.192500
11.784000,-0.185000
11.788000,-0.182500
11.792000,-0.182500
11.796000,-0.202500
11.800000,-0.182500
11.804000,-0.135000
11.808000,-0.097500
11.812000,-0.052500
11.816000,-0.022500
11.820000,-0.022500
11.824000,-0.045000
11.828000,-0.050000
11.832000,-0.080000
11.836000,-0.092500
11.840000,-0.075000
11.844000,-0.047500
11.848000,-0.037500
11.852000,-0.057500
11.856000,-0.112500
11.860000,-0.182500
11.864000,-0.237500
11.868000,-0.270000
11.872000,-0.310000
11.876000,-0.297500
11.880000,-0.225000
11.884000,-0.127500
11.888000,-0.047500
11.892000,0.037500
11.896000,0.135000
11.900000,0.260000
11.904000,0.425000
11.908000,0.615000
11.912000,0.872500
11.916000,1.132500
11.920000,1.330000
11.924000,1.410000
11.928000,1.460000
11.932000,1.515000
11.936000,1.597500
11.940000,1.587500
11.944000,1.387500
11.948000,1.042500
11.952000,0.755000
11.956000,0.585000
11.960000,0.470000
11.964000,0.350000
11.968000,0.222500
11.972000,0.165000
11.976000,0.182500
11.980000,0.205000
11.984000,0.205000
11.988000,0.195000
11.992000,0.177500
11.996000,0.182500
12.000000,0.185000
12.004000,0.187500
12.008000,0.195000
12.012000,0.215000
12.016000,0.227500
12.020000,0.210000
12.024000,0.177500
12.028000,0.152500
12.032000,0.132500
12.036000,0.120000
12.040000,0.102500
12.044000,0.105000
12.048000,0.102500
12.052000,0.090000
12.056000,0.075000
12.060000,0.065000
12.064000,0.042500
12.068000,0.015000
12.072000,-0.040000
12.076000,-0.082500
12.080000,-0.115000
12.084000,-0.160000
12.088000,-0.182500
12.092000,-0.202500
12.096000,-0.215000
12.100000,-0.222500
12.104000,-0.220000
12.108000,-0.237500
12.112000,-0.260000
12.116000,-0.272500
12.120000,-0.282500
12.124000,-0.287500
12.128000,-0.272500
12.132000,-0.260000
12.136000,-0.252500
12.140000,-0.250000
12.144000,-0.237500
12.148000,-0.227500
12.152000,-0.225000
12.156000,-0.227500
12.160000,-0.230000
12.164000,-0.227500
12.168000,-0.230000
12.172000,-0.232500
12.176000,-0.227500
12.180000,-0.225000
12.184000,-0.227500
12.188000,-0.232500
12.192000,-0.252500
12.196000,-0.270000
12.200000,-0.272500
12.204000,-0.260000
12.208000,-0.242500
12.212000,-0.220000
12.216000,-0.205000
12.220000,-0.200000
12.224000,-0.200000
12.228000,-0.202500
12.232000,-0.210000
12.236000,-0.197500
12.240000,-0.177500
12.244000,-0.160000
12.248000,-0.157500
12.252000,-0.155000
12.256000,-0.157500
12.260000,-0.165000
12.264000,-0.200000
12.268000,-0.255000
12.272000,-0.337500
12.276000,-0.422500
12.280000,-0.472500
12.284000,-0.440000
12.288000,-0.342500
12.292000,-0.242500
12.296000,-0.162500
12.300000,-0.085000
12.304000,0.022500
12.308000,0.157500
12.312000,0.350000
12.316000,0.570000
12.320000,0.837500
12.324000,1.152500
12.328000,1.375000
12.332000,1.467500
12.336000,1.527500
12.340000,1.595000
12.344000,1.692500
12.348000,1.702500
12.352000,1.515000
12.356000,1.172500
12.360000,0.850000
12.364000,0.650000
12.368000,0.465000
12.372000,0.285000
12.376000,0.150000
12.380000,0.080000
12.384000,0.075000
12.388000,0.115000
12.392000,0.132500
12.396000,0.120000
12.400000,0.125000
12.404000,0.155000
12.408000,0.175000
12.412000,0.182500
12.416000,0.197500
12.420000,0.205000
12.424000,0.195000
12.428000,0.175000
12.432000,0.152500
12.436000,0.147500
12.440000,0.140000
12.444000,0.130000
12.448000,0.105000
12.452000,0.095000
12.456000,0.087500
12.460000,0.065000
12.464000,0.037500
12.468000,0.002500
12.472000,-0.040000
12.476000,-0.080000
12.480000,-0.127500
12.484000,-0.175000
12.488000,-0.217500
12.492000,-0.252500
12.496000,-0.285000
12.500000,-0.317500
12.504000,-0.342500
12.508000,-0.372500
12.512000,-0.395000
12.516000,-0.405000
12.520000,-0.407500
12.524000,-0.402500
12.528000,-0.375000
12.532000,-0.350000
12.536000,-0.330000
12.540000,-0.315000
12.544000,-0.295000
12.548000,-0.277500
12.552000,-0.260000
12.556000,-0.245000
12.560000,-0.232500
12.564000,-0.227500
12.568000,-0.232500
12.572000,-0.237500
12.576000,-0.242500
12.580000,-0.247500
12.584000,-0.252500
12.588000,-0.262500
12.592000,-0.292500
12.596000,-0.335000
12.600000,-0.397500
12.604000,-0.475000
12.608000,-0.555000
12.612000,-0.587500
12.616000,-0.540000
12.620000,-0.467500
12.624000,-0.422500
12.628000,-0.360000
12.632000,-0.290000
12.636000,-0.230000
12.640000,-0.155000
12.644000,0.045000
12.648000,0.287500
12.652000,0.530000
12.656000,0.870000
12.660000,1.237500
12.664000,1.502500
12.668000,1.690000
12.672000,1.775000
12.676000,1.785000
12.680000,1.775000
12.684000,1.707500
12.688000,1.597500
12.692000,1.410000
12.696000,1.162500
12.700000,0.927500
12.704000,0.682500
12.708000,0.407500
12.712000,0.202500
12.716000,0.095000
12.720000,0.075000
12.724000,0.085000
12.728000,0.075000
12.732000,0.027500
12.736000,0.000000
12.740000,-0.020000
12.744000,-0.025000
12.748000,-0.050000
12.752000,-0.070000
12.756000,-0.080000
12.760000,-0.082500
12.764000,-0.095000
12.768000,-0.125000
12.772000,-0.140000
12.776000,-0.155000
12.780000,-0.177500
12.784000,-0.200000
12.788000,-0.207500
12.792000,-0.225000
12.796000,-0.252500
12.800000,-0.292500
12.804000,-0.320000
12.808000,-0.342500
12.812000,-0.345000
12.816000,-0.355000
12.820000,-0.365000
12.824000,-0.375000
12.828000,-0.382500
12.832000,-0.402500
12.836000,-0.405000
12.840000,-0.395000
12.844000,-0.372500
12.848000,-0.350000
12.852000,-0.320000
12.856000,-0.292500
12.860000,-0.250000
12.864000,-0.210000
12.868000,-0.182500
12.872000,-0.160000
12.876000,-0.140000
12.880000,-0.127500
12.884000,-0.127500
12.888000,-0.130000
12.892000,-0.140000
12.896000,-0.147500
12.900000,-0.147500
12.904000,-0.150000
12.908000,-0.170000
12.912000,-0.185000
12.916000,-0.215000
12.920000,-0.240000
12.924000,-0.250000
12.928000,-0.260000
12.932000,-0.275000
12.936000,-0.305000
12.940000,-0.342500
12.944000,-0.405000
12.948000,-0.477500
12.952000,-0.545000
12.956000,-0.612500
12.960000,-0.605000
12.964000,-0.520000
12.968000,-0.450000
12.972000,-0.385000
12.976000,-0.322500
12.980000,-0.287500
12.984000,-0.232500
12.988000,-0.115000
12.992000,0.110000
12.996000,0.362500
13.000000,0.665000
13.004000,1.020000
13.008000,1.277500
13.012000,1.465000
13.016000,1.597500
13.020000,1.657500
13.024000,1.710000
13.028000,1.705000
13.032000,1.605000
13.036000,1.437500
13.040000,1.217500
13.044000,1.025000
13.048000,0.832500
13.052000,0.590000
13.056000,0.380000
13.060000,0.267500
13.064000,0.245000
13.068000,0.267500
13.072000,0.290000
13.076000,0.277500
13.080000,0.245000
13.084000,0.222500
13.088000,0.227500
13.092000,0.207500
13.096000,0.177500
13.100000,0.170000
13.104000,0.175000
13.108000,0.147500
13.112000,0.107500
13.116000,0.067500
13.120000,0.035000
13.124000,-0.022500
13.128000,-0.060000
13.132000,-0.110000
13.136000,-0.142500
13.140000,-0.180000
13.144000,-0.225000
13.148000,-0.262500
13.152000,-0.290000
13.156000,-0.307500
13.160000,-0.317500
13.164000,-0.330000
13.168000,-0.350000
13.172000,-0.365000
13.176000,-0.385000
13.180000,-0.390000
13.184000,-0.382500
13.188000,-0.365000
13.192000,-0.352500
13.196000,-0.340000
13.200000,-0.330000
13.204000,-0.320000
13.208000,-0.307500
13.212000,-0.272500
13.216000,-0.242500
13.220000,-0.205000
13.224000,-0.175000
13.228000,-0.152500
13.232000,-0.142500
13.236000,-0.140000
13.240000,-0.140000
13.244000,-0.142500
13.248000,-0.142500
13.252000,-0.142500
13.256000,-0.152500
13.260000,-0.157500
13.264000,-0.160000
13.268000,-0.165000
13.272000,-0.170000
13.276000,-0.170000
13.280000,-0.160000
13.284000,-0.160000
13.288000,-0.162500
13.292000,-0.175000
13.296000,-0.185000
13.300000,-0.210000
13.304000,-0.222500
13.308000,-0.247500
13.312000,-0.292500
13.316000,-0.360000
13.320000,-0.442500
13.324000,-0.532500
13.328000,-0.587500
13.332000,-0.567500
13.336000,-0.517500
13.340000,-0.462500
13.344000,-0.407500
13.348000,-0.345000
13.352000,-0.282500
13.356000,-0.172500
13.360000,0.052500
13.364000,0.312500
13.368000,0.580000
13.372000,0.905000
13.376000,1.185000
13.380000,1.345000
13.384000,1.457500
13.388000,1.522500
13.392000,1.542500
13.396000,1.557500
13.400000,1.480000
13.404000,1.310000
13.408000,1.072500
13.412000,0.885000
13.416000,0.727500
13.420000,0.540000
13.424000,0.360000
13.428000,0.242500
13.432000,0.180000
13.436000,0.182500
13.440000,0.205000
13.444000,0.202500
13.448000,0.177500
13.452000,0.165000
13.456000,0.165000
13.460000,0.160000
13.464000,0.157500
13.468000,0.155000
13.472000,0.152500
13.476000,0.152500
13.480000,0.142500
13.484000,0.130000
13.488000,0.115000
13.492000,0.092500
13.496000,0.065000
13.500000,0.027500
13.504000,-0.027500
13.508000,-0.070000
13.512000,-0.115000
13.516000,-0.170000
13.520000,-0.205000
13.524000,-0.245000
13.528000,-0.290000
13.532000,-0.330000
13.536000,-0.360000
13.540000,-0.387500
13.544000,-0.405000
13.548000,-0.420000
13.552000,-0.435000
13.556000,-0.440000
13.560000,-0.427500
13.564000,-0.412500
13.568000,-0.397500
13.572000,-0.372500
13.576000,-0.342500
13.580000,-0.322500
13.584000,-0.317500
13.588000,-0.312500
13.592000,-0.297500
13.596000,-0.292500
13.600000,-0.295000
13.604000,-0.295000
13.608000,-0.297500
13.612000,-0.277500
13.616000,-0.267500
13.620000,-0.247500
13.624000,-0.227500
13.628000,-0.217500
13.632000,-0.207500
13.636000,-0.207500
13.640000,-0.215000
13.644000,-0.205000
13.648000,-0.202500
13.652000,-0.197500
13.656000,-0.192500
13.660000,-0.197500
13.664000,-0.200000
13.668000,-0.195000
13.672000,-0.182500
13.676000,-0.175000
13.680000,-0.172500
13.684000,-0.172500
13.688000,-0.175000
13.692000,-0.182500
13.696000,-0.182500
13.700000,-0.182500
13.704000,-0.192500
13.708000,-0.227500
13.712000,-0.282500
13.716000,-0.355000
13.720000,-0.440000
13.724000,-0.520000
13.728000,-0.555000
13.732000,-0.530000
13.736000,-0.450000
13.740000,-0.377500
13.744000,-0.305000
13.748000,-0.232500
13.752000,-0.147500
13.756000,0.017500
13.760000,0.227500
13.764000,0.502500
13.768000,0.792500
13.772000,1.095000
13.776000,1.272500
13.780000,1.367500
13.784000,1.437500
13.788000,1.490000
13.792000,1.547500
13.796000,1.512500
13.800000,1.350000
13.804000,1.102500
13.808000,0.892500
13.812000,0.747500
13.816000,0.582500
13.820000,0.397500
13.824000,0.272500
13.828000,0.227500
13.832000,0.237500
13.836000,0.267500
13.840000,0.265000
13.844000,0.230000
13.848000,0.215000
13.852000,0.217500
13.856000,0.215000
13.860000,0.200000
13.864000,0.195000
13.868000,0.187500
13.872000,0.192500
13.876000,0.187500
13.880000,0.182500
13.884000,0.177500
13.888000,0.162500
13.892000,0.132500
13.896000,0.095000
13.900000,0.057500
13.904000,0.017500
13.908000,-0.042500
13.912000,-0.082500
13.916000,-0.117500
13.920000,-0.155000
13.924000,-0.195000
13.928000,-0.240000
13.932000,-0.282500
13.936000,-0.312500
13.940000,-0.337500
13.944000,-0.355000
13.948000,-0.372500
13.952000,-0.380000
13.956000,-0.382500
13.960000,-0.375000
13.964000,-0.365000
13.968000,-0.352500
13.972000,-0.322500
13.976000,-0.305000
13.980000,-0.290000
13.984000,-0.292500
13.988000,-0.282500
13.992000,-0.275000
13.996000,-0.260000
14.000000,-0.242500
14.004000,-0.230000
14.008000,-0.227500
14.012000,-0.207500
14.016000,-0.195000
14.020000,-0.177500
14.024000,-0.170000
14.028000,-0.157500
14.032000,-0.140000
14.036000,-0.135000
14.040000,-0.137500
14.044000,-0.135000
14.048000,-0.117500
14.052000,-0.117500
14.056000,-0.125000
14.060000,-0.135000
14.064000,-0.147500
14.068000,-0.170000
14.072000,-0.182500
14.076000,-0.222500
14.080000,-0.285000
14.084000,-0.342500
14.088000,-0.402500
14.092000,-0.417500
14.096000,-0.365000
14.100000,-0.330000
14.104000,-0.307500
14.108000,-0.282500
14.112000,-0.267500
14.116000,-0.225000
14.120000,-0.110000
14.124000,0.120000
14.128000,0.380000
14.132000,0.680000
14.136000,1.032500
14.140000,1.285000
14.144000,1.455000
14.148000,1.555000
14.152000,1.580000
14.156000,1.592500
14.160000,1.580000
14.164000,1.477500
14.168000,1.277500
14.172000,1.037500
14.176000,0.850000
14.180000,0.675000
14.184000,0.475000
14.188000,0.315000
14.192000,0.202500
14.196000,0.155000
14.200000,0.162500
14.204000,0.187500
14.208000,0.185000
14.212000,0.175000
14.216000,0.187500
14.220000,0.205000
14.224000,0.197500
14.228000,0.182500
14.232000,0.185000
14.236000,0.200000
14.240000,0.195000
14.244000,0.180000
14.248000,0.170000
14.252000,0.150000
14.256000,0.130000
14.260000,0.117500
14.264000,0.110000
14.268000,0.097500
14.272000,0.085000
14.276000,0.035000
14.280000,-0.027500
14.284000,-0.072500
14.288000,-0.110000
14.292000,-0.160000
14.296000,-0.225000
14.300000,-0.285000
14.304000,-0.330000
14.308000,-0.385000
14.312000,-0.430000
14.316000,-0.462500
14.320000,-0.477500
14.324000,-0.475000
14.328000,-0.452500
14.332000,-0.427500
14.336000,-0.417500
14.340000,-0.405000
14.344000,-0.382500
14.348000,-0.357500
14.352000,-0.342500
14.356000,-0.330000
14.360000,-0.310000
14.364000,-0.295000
14.368000,-0.292500
14.372000,-0.275000
14.376000,-0.270000
14.380000,-0.267500
14.384000,-0.270000
14.388000,-0.262500
14.392000,-0.270000
14.396000,-0.272500
14.400000,-0.292500
14.404000,-0.307500
14.408000,-0.322500
14.412000,-0.367500
14.416000,-0.440000
14.420000,-0.497500
14.424000,-0.502500
14.428000,-0.427500
14.432000,-0.360000
14.436000,-0.315000
14.440000,-0.252500
14.444000,-0.195000
14.448000,-0.115000
14.452000,0.027500
14.456000,0.245000
14.460000,0.495000
14.464000,0.765000
14.468000,1.122500
14.472000,1.437500
14.476000,1.662500
14.480000,1.822500
14.484000,1.862500
14.488000,1.850000
14.492000,1.817500
14.496000,1.692500
14.500000,1.515000
14.504000,1.302500
14.508000,1.050000
14.512000,0.845000
14.516000,0.607500
14.520000,0.362500
14.524000,0.185000
14.528000,0.097500
14.532000,0.090000
14.536000,0.110000
14.540000,0.092500
14.544000,0.057500
14.548000,0.027500
14.552000,0.020000
14.556000,0.007500
14.560000,-0.020000
14.564000,-0.022500
14.568000,0.020000
14.572000,0.045000
14.576000,0.047500
14.580000,0.050000
14.584000,0.040000
14.588000,0.005000
14.592000,-0.045000
14.596000,-0.065000
14.600000,-0.087500
14.604000,-0.102500
14.608000,-0.137500
14.612000,-0.162500
14.616000,-0.180000
14.620000,-0.187500
14.624000,-0.222500
14.628000,-0.255000
14.632000,-0.277500
14.636000,-0.295000
14.640000,-0.317500
14.644000,-0.335000
14.648000,-0.337500
14.652000,-0.332500
14.656000,-0.305000
14.660000,-0.267500
14.664000,-0.237500
14.668000,-0.217500
14.672000,-0.205000
14.676000,-0.192500
14.680000,-0.177500
14.684000,-0.152500
14.688000,-0.130000
14.692000,-0.130000
14.696000,-0.142500
14.700000,-0.165000
14.704000,-0.195000
14.708000,-0.220000
14.712000,-0.237500
14.716000,-0.252500
14.720000,-0.262500
14.724000,-0.282500
14.728000,-0.295000
14.732000,-0.315000
14.736000,-0.330000
14.740000,-0.337500
14.744000,-0.337500
14.748000,-0.340000
14.752000,-0.350000
14.756000,-0.350000
14.760000,-0.355000
14.764000,-0.367500
14.768000,-0.405000
14.772000,-0.465000
14.776000,-0.525000
14.780000,-0.545000
14.784000,-0.477500
14.788000,-0.382500
14.792000,-0.292500
14.796000,-0.200000
14.800000,-0.125000
14.804000,-0.045000
14.808000,0.065000
14.812000,0.230000
14.816000,0.447500
14.820000,0.677500
14.824000,0.997500
14.828000,1.300000
14.832000,1.467500
14.836000,1.587500
14.840000,1.665000
14.844000,1.707500
14.848000,1.732500
14.852000,1.645000
14.856000,1.437500
14.860000,1.132500
14.864000,0.882500
14.868000,0.717500
14.872000,0.542500
14.876000,0.380000
14.880000,0.267500
14.884000,0.185000
14.888000,0.155000
14.892000,0.127500
14.896000,0.075000
14.900000,-0.015000
14.904000,-0.067500
14.908000,-0.075000
14.912000,-0.070000
14.916000,-0.082500
14.920000,-0.082500
14.924000,-0.070000
14.928000,-0.060000
14.932000,-0.062500
14.936000,-0.070000
14.940000,-0.075000
14.944000,-0.095000
14.948000,-0.115000
14.952000,-0.142500
14.956000,-0.160000
14.960000,-0.170000
14.964000,-0.172500
14.968000,-0.192500
14.972000,-0.202500
14.976000,-0.237500
14.980000,-0.272500
14.984000,-0.297500
14.988000,-0.297500
14.992000,-0.285000
14.996000,-0.282500
15.000000,-0.282500
15.004000,-0.290000
15.008000,-0.305000
15.012000,-0.317500
15.016000,-0.337500
15.020000,-0.345000
15.024000,-0.337500
15.028000,-0.305000
15.032000,-0.250000
15.036000,-0.220000
15.040000,-0.207500
15.044000,-0.195000
15.048000,-0.195000
15.052000,-0.200000
15.056000,-0.215000
15.060000,-0.210000
15.064000,-0.205000
15.068000,-0.217500
15.072000,-0.217500
15.076000,-0.227500
15.080000,-0.252500
15.084000,-0.295000
15.088000,-0.327500
15.092000,-0.335000
15.096000,-0.335000
15.100000,-0.352500
15.104000,-0.372500
15.108000,-0.405000
15.112000,-0.430000
15.116000,-0.427500
15.120000,-0.402500
15.124000,-0.405000
15.128000,-0.407500
15.132000,-0.402500
15.136000,-0.390000
15.140000,-0.387500
15.144000,-0.387500
15.148000,-0.417500
15.152000,-0.462500
15.156000,-0.522500
15.160000,-0.590000
15.164000,-0.607500
15.168000,-0.560000
15.172000,-0.467500
15.176000,-0.377500
15.180000,-0.292500
15.184000,-0.177500
15.188000,-0.042500
15.192000,0.147500
15.196000,0.360000
15.200000,0.597500
15.204000,0.870000
15.208000,1.172500
15.212000,1.395000
15.216000,1.500000
15.220000,1.582500
15.224000,1.645000
15.228000,1.732500
15.232000,1.737500
15.236000,1.542500
15.240000,1.205000
15.244000,0.897500
15.248000,0.720000
15.252000,0.560000
15.256000,0.387500
15.260000,0.245000
15.264000,0.135000
15.268000,0.092500
15.272000,0.132500
15.276000,0.147500
15.280000,0.110000
15.284000,0.070000
15.288000,0.057500
15.292000,0.045000
15.296000,0.025000
15.300000,-0.025000
15.304000,-0.045000
15.308000,-0.075000
15.312000,-0.115000
15.316000,-0.140000
15.320000,-0.147500
15.324000,-0.160000
15.328000,-0.175000
15.332000,-0.180000
15.336000,-0.197500
15.340000,-0.225000
15.344000,-0.250000
15.348000,-0.272500
15.352000,-0.297500
15.356000,-0.322500
15.360000,-0.352500
15.364000,-0.372500
15.368000,-0.382500
15.372000,-0.387500
15.376000,-0.390000
15.380000,-0.395000
15.384000,-0.407500
15.388000,-0.405000
15.392000,-0.402500
15.396000,-0.390000
15.400000,-0.372500
15.404000,-0.342500
15.408000,-0.317500
15.412000,-0.290000
15.416000,-0.267500
15.420000,-0.260000
15.424000,-0.250000
15.428000,-0.252500
15.432000,-0.270000
15.436000,-0.277500
15.440000,-0.272500
15.444000,-0.265000
15.448000,-0.265000
15.452000,-0.267500
15.456000,-0.270000
15.460000,-0.267500
15.464000,-0.262500
15.468000,-0.260000
15.472000,-0.247500
15.476000,-0.252500
15.480000,-0.260000
15.484000,-0.285000
15.488000,-0.317500
15.492000,-0.375000
15.496000,-0.465000
15.500000,-0.580000
15.504000,-0.697500
15.508000,-0.737500
15.512000,-0.677500
15.516000,-0.615000
15.520000,-0.577500
15.524000,-0.507500
15.528000,-0.430000
15.532000,-0.350000
15.536000,-0.232500
15.540000,-0.047500
15.544000,0.187500
15.548000,0.447500
15.552000,0.805000
15.556000,1.132500
15.560000,1.370000
15.564000,1.532500
15.568000,1.600000
15.572000,1.655000
15.576000,1.682500
15.580000,1.610000
15.584000,1.430000
15.588000,1.152500
15.592000,0.862500
15.596000,0.675000
15.600000,0.457500
15.604000,0.242500
15.608000,0.092500
15.612000,0.002500
15.616000,-0.035000
15.620000,0.000000
15.624000,-0.017500
15.628000,-0.062500
15.632000,-0.075000
15.636000,-0.065000
15.640000,-0.067500
15.644000,-0.090000
15.648000,-0.105000
15.652000,-0.095000
15.656000,-0.087500
15.660000,-0.092500
15.664000,-0.105000
15.668000,-0.120000
15.672000,-0.137500
15.676000,-0.180000
15.680000,-0.227500
15.684000,-0.272500
15.688000,-0.310000
15.692000,-0.372500
15.696000,-0.427500
15.700000,-0.487500
15.704000,-0.537500
15.708000,-0.590000
15.712000,-0.635000
15.716000,-0.657500
15.720000,-0.670000
15.724000,-0.682500
15.728000,-0.692500
15.732000,-0.677500
15.736000,-0.652500
15.740000,-0.627500
15.744000,-0.585000
15.748000,-0.547500
15.752000,-0.517500
15.756000,-0.477500
15.760000,-0.432500
15.764000,-0.382500
15.768000,-0.355000
15.772000,-0.332500
15.776000,-0.317500
15.780000,-0.307500
15.784000,-0.305000
15.788000,-0.295000
15.792000,-0.292500
15.796000,-0.285000
15.800000,-0.282500
15.804000,-0.287500
15.808000,-0.292500
15.812000,-0.305000
15.816000,-0.317500
15.820000,-0.320000
15.824000,-0.330000
15.828000,-0.335000
15.832000,-0.337500
15.836000,-0.332500
15.840000,-0.332500
15.844000,-0.327500
15.848000,-0.320000
15.852000,-0.327500
15.856000,-0.322500
15.860000,-0.320000
15.864000,-0.332500
15.868000,-0.345000
15.872000,-0.357500
15.876000,-0.380000
15.880000,-0.395000
15.884000,-0.400000
15.888000,-0.407500
15.892000,-0.422500
15.896000,-0.420000
15.900000,-0.412500
15.904000,-0.412500
15.908000,-0.425000
15.912000,-0.440000
15.916000,-0.450000
15.920000,-0.447500
15.924000,-0.435000
15.928000,-0.417500
15.932000,-0.402500
15.936000,-0.405000
15.940000,-0.427500
15.944000,-0.462500
15.948000,-0.520000
15.952000,-0.592500
15.956000,-0.642500
15.960000,-0.630000
15.964000,-0.545000
15.968000,-0.432500
15.972000,-0.335000
15.976000,-0.250000
15.980000,-0.152500
15.984000,-0.035000
15.988000,0.155000
15.992000,0.355000
15.996000,0.630000
16.000000,0.915000
16.004000,1.137500
16.008000,1.252500
16.012000,1.350000
16.016000,1.457500
16.020000,1.570000
16.024000,1.590000
16.028000,1.447500
16.032000,1.175000
16.036000,0.917500
16.040000,0.740000
16.044000,0.562500
16.048000,0.362500
16.052000,0.205000
16.056000,0.137500
16.060000,0.127500
16.064000,0.130000
16.068000,0.087500
16.072000,0.040000
16.076000,0.020000
16.080000,0.022500
16.084000,0.020000
16.088000,-0.017500
16.092000,-0.042500
16.096000,-0.050000
16.100000,-0.062500
16.104000,-0.070000
16.108000,-0.072500
16.112000,-0.072500
16.116000,-0.072500
16.120000,-0.075000
16.124000,-0.080000
16.128000,-0.070000
16.132000,-0.065000
16.136000,-0.075000
16.140000,-0.097500
16.144000,-0.125000
16.148000,-0.147500
16.152000,-0.172500
16.156000,-0.182500
16.160000,-0.192500
16.164000,-0.197500
16.168000,-0.207500
16.172000,-0.225000
16.176000,-0.240000
16.180000,-0.252500
16.184000,-0.265000
16.188000,-0.267500
16.192000,-0.275000
16.196000,-0.275000
16.200000,-0.260000
16.204000,-0.252500
16.208000,-0.255000
16.212000,-0.247500
16.216000,-0.247500
16.220000,-0.232500
16.224000,-0.230000
16.228000,-0.225000
16.232000,-0.225000
16.236000,-0.242500
16.240000,-0.265000
16.244000,-0.287500
16.248000,-0.305000
16.252000,-0.317500
16.256000,-0.315000
16.260000,-0.320000
16.264000,-0.322500
16.268000,-0.330000
16.272000,-0.327500
16.276000,-0.330000
16.280000,-0.330000
16.284000,-0.342500
16.288000,-0.352500
16.292000,-0.350000
16.296000,-0.342500
16.300000,-0.335000
16.304000,-0.327500
16.308000,-0.332500
16.312000,-0.352500
16.316000,-0.397500
16.320000,-0.465000
16.324000,-0.540000
16.328000,-0.600000
16.332000,-0.612500
16.336000,-0.557500
16.340000,-0.495000
16.344000,-0.442500
16.348000,-0.387500
16.352000,-0.337500
16.356000,-0.277500
16.360000,-0.152500
16.364000,0.115000
16.368000,0.417500
16.372000,0.747500
16.376000,1.120000
16.380000,1.385000
16.384000,1.555000
16.388000,1.650000
16.392000,1.665000
16.396000,1.687500
16.400000,1.672500
16.404000,1.557500
16.408000,1.367500
16.412000,1.130000
16.416000,0.920000
16.420000,0.717500
16.424000,0.480000
16.428000,0.285000
16.432000,0.147500
16.436000,0.090000
16.440000,0.110000
16.444000,0.130000
16.448000,0.102500
16.452000,0.052500
16.456000,0.037500
16.460000,0.027500
16.464000,0.017500
16.468000,-0.017500
16.472000,0.002500
16.476000,0.020000
16.480000,0.027500
16.484000,0.012500
16.488000,0.015000
16.492000,0.007500
16.496000,-0.027500
16.500000,-0.070000
16.504000,-0.105000
16.508000,-0.132500
16.512000,-0.155000
16.516000,-0.185000
16.520000,-0.215000
16.524000,-0.247500
16.528000,-0.272500
16.532000,-0.277500
16.536000,-0.287500
16.540000,-0.290000
16.544000,-0.292500
16.548000,-0.295000
16.552000,-0.297500
16.556000,-0.300000
16.560000,-0.305000
16.564000,-0.290000
16.568000,-0.275000
16.572000,-0.265000
16.576000,-0.262500
16.580000,-0.247500
16.584000,-0.232500
16.588000,-0.225000
16.592000,-0.225000
16.596000,-0.225000
16.600000,-0.240000
16.604000,-0.247500
16.608000,-0.260000
16.612000,-0.265000
16.616000,-0.277500
16.620000,-0.290000
16.624000,-0.297500
16.628000,-0.300000
16.632000,-0.310000
16.636000,-0.320000
16.640000,-0.322500
16.644000,-0.327500
16.648000,-0.322500
16.652000,-0.315000
16.656000,-0.297500
16.660000,-0.277500
16.664000,-0.270000
16.668000,-0.265000
16.672000,-0.265000
16.676000,-0.267500
16.680000,-0.265000
16.684000,-0.265000
16.688000,-0.265000
16.692000,-0.282500
16.696000,-0.292500
16.700000,-0.330000
16.704000,-0.390000
16.708000,-0.470000
16.712000,-0.540000
16.716000,-0.560000
16.720000,-0.520000
16.724000,-0.447500
16.728000,-0.367500
16.732000,-0.297500
16.736000,-0.230000
16.740000,-0.135000
16.744000,0.042500
16.748000,0.250000
16.752000,0.500000
16.756000,0.792500
16.760000,1.115000
16.764000,1.312500
16.768000,1.435000
16.772000,1.520000
16.776000,1.572500
16.780000,1.637500
16.784000,1.625000
16.788000,1.465000
16.792000,1.205000
16.796000,0.947500
16.800000,0.760000
16.804000,0.562500
16.808000,0.337500
16.812000,0.180000
16.816000,0.102500
16.820000,0.085000
16.824000,0.095000
16.828000,0.105000
16.832000,0.087500
16.836000,0.065000
16.840000,0.070000
16.844000,0.087500
16.848000,0.087500
16.852000,0.072500
16.856000,0.085000
16.860000,0.097500
16.864000,0.097500
16.868000,0.090000
16.872000,0.087500
16.876000,0.075000
16.880000,0.062500
16.884000,0.050000
16.888000,0.047500
16.892000,0.035000
16.896000,0.007500
16.900000,-0.040000
16.904000,-0.070000
16.908000,-0.092500
16.912000,-0.115000
16.916000,-0.137500
16.920000,-0.155000
16.924000,-0.162500
16.928000,-0.175000
16.932000,-0.192500
16.936000,-0.217500
16.940000,-0.227500
16.944000,-0.232500
16.948000,-0.237500
16.952000,-0.240000
16.956000,-0.242500
16.960000,-0.255000
16.964000,-0.262500
16.968000,-0.260000
16.972000,-0.245000
16.976000,-0.232500
16.980000,-0.237500
16.984000,-0.250000
16.988000,-0.262500
16.992000,-0.282500
16.996000,-0.295000
17.000000,-0.297500
17.004000,-0.300000
17.008000,-0.305000
17.012000,-0.295000
17.016000,-0.290000
17.020000,-0.290000
17.024000,-0.297500
17.028000,-0.297500
17.032000,-0.305000
17.036000,-0.310000
17.040000,-0.297500
17.044000,-0.282500
17.048000,-0.265000
17.052000,-0.250000
17.056000,-0.237500
17.060000,-0.237500
17.064000,-0.240000
17.068000,-0.237500
17.072000,-0.237500
17.076000,-0.237500
17.080000,-0.240000
17.084000,-0.265000
17.088000,-0.300000
17.092000,-0.355000
17.096000,-0.407500
17.100000,-0.457500
17.104000,-0.450000
17.108000,-0.390000
17.112000,-0.312500
17.116000,-0.255000
17.120000,-0.222500
17.124000,-0.187500
17.128000,-0.115000
17.132000,0.047500
17.136000,0.290000
17.140000,0.580000
17.144000,0.905000
17.148000,1.215000
17.152000,1.397500
17.156000,1.520000
17.160000,1.590000
17.164000,1.632500
17.168000,1.667500
17.172000,1.602500
17.176000,1.420000
17.180000,1.187500
17.184000,0.982500
17.188000,0.822500
17.192000,0.620000
17.196000,0.425000
17.200000,0.295000
17.204000,0.237500
17.208000,0.237500
17.212000,0.252500
17.216000,0.245000
17.220000,0.215000
17.224000,0.200000
17.228000,0.210000
17.232000,0.207500
17.236000,0.182500
17.240000,0.175000
17.244000,0.180000
17.248000,0.182500
17.252000,0.172500
17.256000,0.155000
17.260000,0.137500
17.264000,0.135000
17.268000,0.125000
17.272000,0.097500
17.276000,0.082500
17.280000,0.075000
17.284000,0.060000
17.288000,0.037500
17.292000,0.005000
17.296000,-0.047500
17.300000,-0.095000
17.304000,-0.140000
17.308000,-0.180000
17.312000,-0.225000
17.316000,-0.267500
17.320000,-0.295000
17.324000,-0.320000
17.328000,-0.337500
17.332000,-0.345000
17.336000,-0.355000
17.340000,-0.360000
17.344000,-0.352500
17.348000,-0.350000
17.352000,-0.367500
17.356000,-0.362500
17.360000,-0.372500
17.364000,-0.372500
17.368000,-0.352500
17.372000,-0.330000
17.376000,-0.317500
17.380000,-0.295000
17.384000,-0.282500
17.388000,-0.287500
17.392000,-0.312500
17.396000,-0.342500
17.400000,-0.407500
17.404000,-0.487500
17.408000,-0.562500
17.412000,-0.607500
17.416000,-0.577500
17.420000,-0.490000
17.424000,-0.430000
17.428000,-0.382500
17.432000,-0.307500
17.436000,-0.230000
17.440000,-0.147500
17.444000,0.027500
17.448000,0.270000
17.452000,0.512500
17.456000,0.777500
17.460000,1.105000
17.464000,1.425000
17.468000,1.702500
17.472000,1.887500
17.476000,1.927500
17.480000,1.920000
17.484000,1.872500
17.488000,1.767500
17.492000,1.605000
17.496000,1.412500
17.500000,1.165000
17.504000,0.922500
17.508000,0.667500
17.512000,0.412500
17.516000,0.220000
17.520000,0.127500
17.524000,0.142500
17.528000,0.162500
17.532000,0.137500
17.536000,0.087500
17.540000,0.047500
17.544000,0.022500
17.548000,-0.030000
17.552000,-0.060000
17.556000,-0.052500
17.560000,-0.045000
17.564000,-0.035000
17.568000,-0.042500
17.572000,-0.045000
17.576000,-0.040000
17.580000,-0.050000
17.584000,-0.090000
17.588000,-0.117500
17.592000,-0.152500
17.596000,-0.172500
17.600000,-0.202500
17.604000,-0.247500
17.608000,-0.292500
17.612000,-0.335000
17.616000,-0.372500
17.620000,-0.397500
17.624000,-0.397500
17.628000,-0.385000
17.632000,-0.372500
17.636000,-0.350000
17.640000,-0.330000
17.644000,-0.312500
17.648000,-0.277500
17.652000,-0.245000
17.656000,-0.225000
17.660000,-0.200000
17.664000,-0.180000
17.668000,-0.182500
17.672000,-0.170000
17.676000,-0.160000
17.680000,-0.152500
17.684000,-0.160000
17.688000,-0.162500
17.692000,-0.175000
17.696000,-0.192500
17.700000,-0.200000
17.704000,-0.215000
17.708000,-0.240000
17.712000,-0.260000
17.716000,-0.265000
17.720000,-0.270000
17.724000,-0.282500
17.728000,-0.295000
17.732000,-0.295000
17.736000,-0.295000
17.740000,-0.277500
17.744000,-0.252500
17.748000,-0.222500
17.752000,-0.215000
17.756000,-0.200000
17.760000,-0.200000
17.764000,-0.200000
17.768000,-0.217500
17.772000,-0.227500
17.776000,-0.225000
17.780000,-0.207500
17.784000,-0.200000
17.788000,-0.187500
17.792000,-0.182500
17.796000,-0.197500
17.800000,-0.202500
17.804000,-0.202500
17.808000,-0.202500
17.812000,-0.215000
17.816000,-0.245000
17.820000,-0.272500
17.824000,-0.315000
17.828000,-0.332500
17.832000,-0.272500
17.836000,-0.175000
17.840000,-0.070000
17.844000,0.040000
17.848000,0.125000
17.852000,0.215000
17.856000,0.357500
17.860000,0.520000
17.864000,0.697500
17.868000,0.957500
17.872000,1.255000
17.876000,1.437500
17.880000,1.537500
17.884000,1.620000
17.888000,1.667500
17.892000,1.707500
17.896000,1.677500
17.900000,1.470000
17.904000,1.122500
17.908000,0.822500
17.912000,0.657500
17.916000,0.510000
17.920000,0.337500
17.924000,0.215000
17.928000,0.172500
17.932000,0.180000
17.936000,0.225000
17.940000,0.265000
17.944000,0.267500
17.948000,0.252500
17.952000,0.242500
17.956000,0.230000
17.960000,0.175000
17.964000,0.117500
17.968000,0.070000
17.972000,0.030000
17.976000,0.020000
17.980000,0.035000
17.984000,0.065000
17.988000,0.110000
17.992000,0.135000
17.996000,0.172500
18.000000,0.202500
18.004000,0.205000
18.008000,0.177500
18.012000,0.140000
18.016000,0.105000
18.020000,0.050000
18.024000,-0.025000
18.028000,-0.090000
18.032000,-0.160000
18.036000,-0.217500
18.040000,-0.262500
18.044000,-0.290000
18.048000,-0.277500
18.052000,-0.242500
18.056000,-0.215000
18.060000,-0.205000
18.064000,-0.192500
18.068000,-0.202500
18.072000,-0.220000
18.076000,-0.227500
18.080000,-0.230000
18.084000,-0.245000
18.088000,-0.255000
18.092000,-0.255000
18.096000,-0.242500
18.100000,-0.222500
18.104000,-0.200000
18.108000,-0.202500
18.112000,-0.220000
18.116000,-0.247500
18.120000,-0.265000
18.124000,-0.252500
18.128000,-0.247500
18.132000,-0.250000
18.136000,-0.255000
18.140000,-0.270000
18.144000,-0.297500
18.148000,-0.327500
18.152000,-0.327500
18.156000,-0.315000
18.160000,-0.307500
18.164000,-0.310000
18.168000,-0.322500
18.172000,-0.355000
18.176000,-0.382500
18.180000,-0.405000
18.184000,-0.407500
18.188000,-0.327500
18.192000,-0.250000
18.196000,-0.207500
18.200000,-0.147500
18.204000,-0.082500
18.208000,-0.017500
18.212000,0.105000
18.216000,0.292500
18.220000,0.525000
18.224000,0.750000
18.228000,1.080000
18.232000,1.380000
18.236000,1.590000
18.240000,1.772500
18.244000,1.865000
18.248000,1.882500
18.252000,1.865000
18.256000,1.735000
18.260000,1.470000
18.264000,1.147500
18.268000,0.855000
18.272000,0.680000
18.276000,0.495000
18.280000,0.332500
18.284000,0.200000
18.288000,0.140000
18.292000,0.140000
18.296000,0.177500
18.300000,0.185000
18.304000,0.132500
18.308000,0.075000
18.312000,0.042500
18.316000,0.025000
18.320000,0.000000
18.324000,-0.027500
18.328000,-0.027500
18.332000,-0.027500
18.336000,-0.080000
18.340000,-0.137500
18.344000,-0.180000
18.348000,-0.200000
18.352000,-0.200000
18.356000,-0.185000
18.360000,-0.160000
18.364000,-0.132500
18.368000,-0.135000
18.372000,-0.157500
18.376000,-0.180000
18.380000,-0.200000
18.384000,-0.225000
18.388000,-0.245000
18.392000,-0.265000
18.396000,-0.282500
18.400000,-0.305000
18.404000,-0.327500
18.408000,-0.340000
18.412000,-0.335000
18.416000,-0.337500
18.420000,-0.340000
18.424000,-0.327500
18.428000,-0.312500
18.432000,-0.290000
18.436000,-0.267500
18.440000,-0.265000
18.444000,-0.270000
18.448000,-0.265000
18.452000,-0.270000
18.456000,-0.267500
18.460000,-0.260000
18.464000,-0.250000
18.468000,-0.250000
18.472000,-0.267500
18.476000,-0.297500
18.480000,-0.337500
18.484000,-0.407500
18.488000,-0.497500
18.492000,-0.612500
18.496000,-0.687500
18.500000,-0.655000
18.504000,-0.575000
18.508000,-0.535000
18.512000,-0.490000
18.516000,-0.425000
18.520000,-0.360000
18.524000,-0.272500
18.528000,-0.130000
18.532000,0.102500
18.536000,0.332500
18.540000,0.650000
18.544000,1.032500
18.548000,1.367500
18.552000,1.640000
18.556000,1.847500
18.560000,1.930000
18.564000,1.960000
18.568000,1.935000
18.572000,1.790000
18.576000,1.550000
18.580000,1.240000
18.584000,0.920000
18.588000,0.677500
18.592000,0.432500
18.596000,0.187500
18.600000,0.022500
18.604000,-0.042500
18.608000,-0.022500
18.612000,0.022500
18.616000,0.005000
18.620000,-0.065000
18.624000,-0.092500
18.628000,-0.090000
18.632000,-0.112500
18.636000,-0.155000
18.640000,-0.177500
18.644000,-0.180000
18.648000,-0.182500
18.652000,-0.210000
18.656000,-0.250000
18.660000,-0.282500
18.664000,-0.315000
18.668000,-0.357500
18.672000,-0.407500
18.676000,-0.465000
18.680000,-0.502500
18.684000,-0.547500
18.688000,-0.587500
18.692000,-0.610000
18.696000,-0.625000
18.700000,-0.642500
18.704000,-0.655000
18.708000,-0.667500
18.712000,-0.660000
18.716000,-0.637500
18.720000,-0.622500
18.724000,-0.597500
18.728000,-0.575000
18.732000,-0.542500
18.736000,-0.507500
18.740000,-0.462500
18.744000,-0.425000
18.748000,-0.382500
18.752000,-0.342500
18.756000,-0.317500
18.760000,-0.295000
18.764000,-0.265000
18.768000,-0.255000
18.772000,-0.260000
18.776000,-0.267500
18.780000,-0.262500
18.784000,-0.252500
18.788000,-0.250000
18.792000,-0.252500
18.796000,-0.250000
18.800000,-0.260000
18.804000,-0.262500
18.808000,-0.262500
18.812000,-0.270000
18.816000,-0.277500
18.820000,-0.275000
18.824000,-0.270000
18.828000,-0.270000
18.832000,-0.285000
18.836000,-0.312500
18.840000,-0.327500
18.844000,-0.335000
18.848000,-0.342500
18.852000,-0.352500
18.856000,-0.360000
18.860000,-0.385000
18.864000,-0.417500
18.868000,-0.442500
18.872000,-0.455000
18.876000,-0.467500
18.880000,-0.455000
18.884000,-0.440000
18.888000,-0.420000
18.892000,-0.407500
18.896000,-0.390000
18.900000,-0.385000
18.904000,-0.395000
18.908000,-0.417500
18.912000,-0.452500
18.916000,-0.502500
18.920000,-0.560000
18.924000,-0.585000
18.928000,-0.542500
18.932000,-0.430000
18.936000,-0.320000
18.940000,-0.225000
18.944000,-0.127500
18.948000,-0.020000
18.952000,0.132500
18.956000,0.305000
18.960000,0.530000
18.964000,0.822500
18.968000,1.127500
18.972000,1.322500
18.976000,1.412500
18.980000,1.482500
18.984000,1.577500
18.988000,1.690000
18.992000,1.695000
18.996000,1.530000
19.000000,1.250000
19.004000,1.002500
19.008000,0.822500
19.012000,0.630000
19.016000,0.425000
19.020000,0.275000
19.024000,0.215000
19.028000,0.205000
19.032000,0.207500
19.036000,0.177500
19.040000,0.130000
19.044000,0.085000
19.048000,0.065000
19.052000,0.035000
19.056000,0.000000
19.060000,-0.035000
19.064000,-0.045000
19.068000,-0.057500
19.072000,-0.067500
19.076000,-0.072500
19.080000,-0.070000
19.084000,-0.070000
19.088000,-0.075000
19.092000,-0.092500
19.096000,-0.102500
19.100000,-0.097500
19.104000,-0.115000
19.108000,-0.135000
19.112000,-0.152500
19.116000,-0.177500
19.120000,-0.217500
19.124000,-0.260000
19.128000,-0.300000
19.132000,-0.340000
19.136000,-0.367500
19.140000,-0.380000
19.144000,-0.382500
19.148000,-0.372500
19.152000,-0.360000
19.156000,-0.350000
19.160000,-0.340000
19.164000,-0.317500
19.168000,-0.305000
19.172000,-0.285000
19.176000,-0.255000
19.180000,-0.225000
19.184000,-0.210000
19.188000,-0.202500
19.192000,-0.202500
19.196000,-0.200000
19.200000,-0.202500
19.204000,-0.215000
19.208000,-0.222500
19.212000,-0.237500
19.216000,-0.252500
19.220000,-0.270000
19.224000,-0.287500
19.228000,-0.307500
19.232000,-0.315000
19.236000,-0.332500
19.240000,-0.352500
19.244000,-0.372500
19.248000,-0.382500
19.252000,-0.397500
19.256000,-0.397500
19.260000,-0.407500
19.264000,-0.410000
19.268000,-0.407500
19.272000,-0.390000
19.276000,-0.375000
19.280000,-0.355000
19.284000,-0.345000
19.288000,-0.337500
19.292000,-0.332500
19.296000,-0.330000
19.300000,-0.330000
19.304000,-0.332500
19.308000,-0.330000
19.312000,-0.315000
19.316000,-0.310000
19.320000,-0.307500
19.324000,-0.307500
19.328000,-0.312500
19.332000,-0.315000
19.336000,-0.315000
19.340000,-0.337500
19.344000,-0.382500
19.348000,-0.447500
19.352000,-0.535000
19.356000,-0.615000
19.360000,-0.675000
19.364000,-0.647500
19.368000,-0.557500
19.372000,-0.445000
19.376000,-0.345000
19.380000,-0.247500
19.384000,-0.140000
19.388000,0.017500
19.392000,0.207500
19.396000,0.465000
19.400000,0.772500
19.404000,1.080000
19.408000,1.277500
19.412000,1.385000
19.416000,1.470000
19.420000,1.550000
19.424000,1.627500
19.428000,1.620000
19.432000,1.447500
19.436000,1.165000
19.440000,0.912500
19.444000,0.732500
19.448000,0.542500
19.452000,0.335000
19.456000,0.202500
19.460000,0.150000
19.464000,0.157500
19.468000,0.177500
19.472000,0.182500
19.476000,0.155000
19.480000,0.140000
19.484000,0.147500
19.488000,0.147500
19.492000,0.132500
19.496000,0.120000
19.500000,0.117500
19.504000,0.107500
19.508000,0.080000
19.512000,0.057500
19.516000,0.037500
19.520000,0.020000
19.524000,-0.015000
19.528000,-0.042500
19.532000,-0.060000
19.536000,-0.080000
19.540000,-0.092500
19.544000,-0.117500
19.548000,-0.137500
19.552000,-0.162500
19.556000,-0.192500
19.560000,-0.227500
19.564000,-0.250000
19.568000,-0.270000
19.572000,-0.285000
19.576000,-0.300000
19.580000,-0.312500
19.584000,-0.327500
19.588000,-0.335000
19.592000,-0.337500
19.596000,-0.332500
19.600000,-0.327500
19.604000,-0.317500
19.608000,-0.305000
19.612000,-0.292500
19.616000,-0.290000
19.620000,-0.292500
19.624000,-0.292500
19.628000,-0.297500
19.632000,-0.292500
19.636000,-0.285000
19.640000,-0.277500
19.644000,-0.277500
19.648000,-0.272500
19.652000,-0.270000
19.656000,-0.262500
19.660000,-0.260000
19.664000,-0.250000
19.668000,-0.247500
19.672000,-0.245000
19.676000,-0.245000
19.680000,-0.250000
19.684000,-0.260000
19.688000,-0.282500
19.692000,-0.312500
19.696000,-0.345000
19.700000,-0.402500
19.704000,-0.485000
19.708000,-0.562500
19.712000,-0.620000
19.716000,-0.587500
19.720000,-0.520000
19.724000,-0.475000
19.728000,-0.442500
19.732000,-0.402500
19.736000,-0.372500
19.740000,-0.292500
19.744000,-0.127500
19.748000,0.160000
19.752000,0.442500
19.756000,0.785000
19.760000,1.122500
19.764000,1.365000
19.768000,1.527500
19.772000,1.587500
19.776000,1.587500
19.780000,1.587500
19.784000,1.535000
19.788000,1.437500
19.792000,1.260000
19.796000,1.020000
19.800000,0.792500
19.804000,0.577500
19.808000,0.340000
19.812000,0.165000
19.816000,0.080000
19.820000,0.065000
19.824000,0.097500
19.828000,0.130000
19.832000,0.120000
19.836000,0.097500
19.840000,0.102500
19.844000,0.105000
19.848000,0.092500
19.852000,0.072500
19.856000,0.080000
19.860000,0.085000
19.864000,0.075000
19.868000,0.057500
19.872000,0.035000
19.876000,0.007500
19.880000,-0.045000
19.884000,-0.085000
19.888000,-0.117500
19.892000,-0.150000
19.896000,-0.180000
19.900000,-0.215000
19.904000,-0.252500
19.908000,-0.285000
19.912000,-0.315000
19.916000,-0.345000
19.920000,-0.372500
19.924000,-0.382500
19.928000,-0.402500
19.932000,-0.420000
19.936000,-0.440000
19.940000,-0.440000
19.944000,-0.435000
19.948000,-0.430000
19.952000,-0.420000
19.956000,-0.420000
19.960000,-0.422500
19.964000,-0.402500
19.968000,-0.377500
19.972000,-0.352500
19.976000,-0.337500
19.980000,-0.330000
19.984000,-0.322500
19.988000,-0.327500
19.992000,-0.320000
19.996000,-0.310000
20.000000,-0.310000
20.004000,-0.317500
20.008000,-0.322500
20.012000,-0.320000
20.016000,-0.322500
20.020000,-0.337500
20.024000,-0.337500
20.028000,-0.332500
20.032000,-0.322500
20.036000,-0.317500
20.040000,-0.307500
20.044000,-0.295000
20.048000,-0.285000
20.052000,-0.282500
20.056000,-0.265000
20.060000,-0.252500
20.064000,-0.250000
20.068000,-0.252500
20.072000,-0.247500
20.076000,-0.252500
20.080000,-0.250000
20.084000,-0.240000
20.088000,-0.225000
20.092000,-0.225000
20.096000,-0.227500
20.100000,-0.225000
20.104000,-0.240000
20.108000,-0.252500
20.112000,-0.272500
20.116000,-0.290000
20.120000,-0.295000
20.124000,-0.292500
20.128000,-0.295000
20.132000,-0.310000
20.136000,-0.337500
20.140000,-0.375000
20.144000,-0.395000
20.148000,-0.382500
20.152000,-0.357500
20.156000,-0.327500
20.160000,-0.307500
20.164000,-0.307500
20.168000,-0.297500
20.172000,-0.277500
20.176000,-0.267500
20.180000,-0.247500
20.184000,-0.237500
20.188000,-0.230000
20.192000,-0.237500
20.196000,-0.222500
20.200000,-0.207500
20.204000,-0.205000
20.208000,-0.207500
20.212000,-0.230000
20.216000,-0.270000
20.220000,-0.322500
20.224000,-0.382500
20.228000,-0.417500
20.232000,-0.360000
20.236000,-0.250000
20.240000,-0.125000
20.244000,0.020000
20.248000,0.177500
20.252000,0.342500
20.256000,0.522500
20.260000,0.710000
20.264000,0.952500
20.268000,1.205000
20.272000,1.392500
20.276000,1.475000
20.280000,1.515000
20.284000,1.592500
20.288000,1.680000
20.292000,1.717500
20.296000,1.592500
20.300000,1.282500
20.304000,0.997500
20.308000,0.845000
20.312000,0.695000
20.316000,0.520000
20.320000,0.377500
20.324000,0.305000
20.328000,0.270000
20.332000,0.267500
20.336000,0.247500
20.340000,0.195000
20.344000,0.150000
20.348000,0.155000
20.352000,0.157500
20.356000,0.135000
20.360000,0.132500
20.364000,0.170000
20.368000,0.192500
20.372000,0.202500
20.376000,0.205000
20.380000,0.215000
20.384000,0.215000
20.388000,0.205000
20.392000,0.200000
20.396000,0.200000
20.400000,0.187500
20.404000,0.170000
20.408000,0.140000
20.412000,0.132500
20.416000,0.125000
20.420000,0.097500
20.424000,0.087500
20.428000,0.067500
20.432000,0.037500
20.436000,0.000000
20.440000,-0.060000
20.444000,-0.087500
20.448000,-0.085000
20.452000,-0.097500
20.456000,-0.107500
20.460000,-0.112500
20.464000,-0.120000
20.468000,-0.127500
20.472000,-0.115000
20.476000,-0.110000
20.480000,-0.090000
20.484000,-0.057500
20.488000,-0.047500
20.492000,-0.067500
20.496000,-0.085000
20.500000,-0.095000
20.504000,-0.095000
20.508000,-0.092500
20.512000,-0.095000
20.516000,-0.112500
20.520000,-0.137500
20.524000,-0.157500
20.528000,-0.195000
20.532000,-0.205000
20.536000,-0.192500
20.540000,-0.175000
20.544000,-0.160000
20.548000,-0.150000
20.552000,-0.177500
20.556000,-0.240000
20.560000,-0.322500
20.564000,-0.387500
20.568000,-0.397500
20.572000,-0.295000
20.576000,-0.217500
20.580000,-0.205000
20.584000,-0.177500
20.588000,-0.130000
20.592000,-0.070000
20.596000,0.060000
20.600000,0.265000
20.604000,0.492500
20.608000,0.787500
20.612000,1.147500
20.616000,1.470000
20.620000,1.745000
20.624000,1.932500
20.628000,1.975000
20.632000,1.952500
20.636000,1.920000
20.640000,1.800000
20.644000,1.597500
20.648000,1.357500
20.652000,1.085000
20.656000,0.847500
20.660000,0.615000
20.664000,0.417500
20.668000,0.247500
20.672000,0.160000
20.676000,0.155000
20.680000,0.160000
20.684000,0.155000
20.688000,0.125000
20.692000,0.110000
20.696000,0.132500
20.700000,0.147500
20.704000,0.120000
20.708000,0.087500
20.712000,0.067500
20.716000,0.042500
20.720000,-0.025000
20.724000,-0.067500
20.728000,-0.075000
20.732000,-0.070000
20.736000,-0.087500
20.740000,-0.112500
20.744000,-0.130000
20.748000,-0.135000
20.752000,-0.147500
20.756000,-0.175000
20.760000,-0.210000
20.764000,-0.237500
20.768000,-0.275000
20.772000,-0.307500
20.776000,-0.345000
20.780000,-0.375000
20.784000,-0.397500
20.788000,-0.407500
20.792000,-0.400000
20.796000,-0.385000
20.800000,-0.372500
20.804000,-0.377500
20.808000,-0.382500
20.812000,-0.372500
20.816000,-0.345000
20.820000,-0.312500
20.824000,-0.287500
20.828000,-0.270000
20.832000,-0.260000
20.836000,-0.247500
20.840000,-0.232500
20.844000,-0.225000
20.848000,-0.232500
20.852000,-0.262500
20.856000,-0.275000
20.860000,-0.292500
20.864000,-0.292500
20.868000,-0.317500
20.872000,-0.350000
20.876000,-0.352500
20.880000,-0.362500
20.884000,-0.367500
20.888000,-0.345000
20.892000,-0.332500
20.896000,-0.337500
20.900000,-0.340000
20.904000,-0.387500
20.908000,-0.490000
20.912000,-0.585000
20.916000,-0.645000
20.920000,-0.590000
20.924000,-0.462500
20.928000,-0.345000
20.932000,-0.240000
20.936000,-0.150000
20.940000,-0.067500
20.944000,0.022500
20.948000,0.155000
20.952000,0.355000
20.956000,0.622500
20.960000,0.995000
20.964000,1.362500
20.968000,1.547500
20.972000,1.645000
20.976000,1.692500
20.980000,1.755000
20.984000,1.817500
20.988000,1.727500
20.992000,1.482500
20.996000,1.155000
21.000000,0.877500
21.004000,0.702500
21.008000,0.520000
21.012000,0.315000
21.016000,0.175000
21.020000,0.110000
21.024000,0.107500
21.028000,0.120000
21.032000,0.112500
21.036000,0.075000
21.040000,0.015000
21.044000,-0.037500
21.048000,-0.047500
21.052000,-0.082500
21.056000,-0.067500
21.060000,0.000000
21.064000,0.040000
21.068000,0.030000
21.072000,0.002500
21.076000,-0.025000
21.080000,-0.057500
21.084000,-0.120000
21.088000,-0.185000
21.092000,-0.220000
21.096000,-0.230000
21.100000,-0.267500
21.104000,-0.327500
21.108000,-0.385000
21.112000,-0.435000
21.116000,-0.450000
21.120000,-0.447500
21.124000,-0.450000
21.128000,-0.472500
21.132000,-0.495000
21.136000,-0.515000
21.140000,-0.525000
21.144000,-0.542500
21.148000,-0.537500
21.152000,-0.530000
21.156000,-0.502500
21.160000,-0.462500
21.164000,-0.420000
21.168000,-0.390000
21.172000,-0.367500
21.176000,-0.345000
21.180000,-0.352500
21.184000,-0.357500
21.188000,-0.355000
21.192000,-0.345000
21.196000,-0.335000
21.200000,-0.317500
21.204000,-0.317500
21.208000,-0.320000
21.212000,-0.320000
21.216000,-0.310000
21.220000,-0.310000
21.224000,-0.315000
21.228000,-0.322500
21.232000,-0.330000
21.236000,-0.350000
21.240000,-0.387500
21.244000,-0.440000
21.248000,-0.502500
21.252000,-0.597500
21.256000,-0.687500
21.260000,-0.760000
21.264000,-0.745000
21.268000,-0.672500
21.272000,-0.610000
21.276000,-0.557500
21.280000,-0.477500
21.284000,-0.387500
21.288000,-0.282500
21.292000,-0.132500
21.296000,0.137500
21.300000,0.425000
21.304000,0.762500
21.308000,1.155000
21.312000,1.435000
21.316000,1.617500
21.320000,1.727500
21.324000,1.745000
21.328000,1.755000
21.332000,1.730000
21.336000,1.595000
21.340000,1.377500
21.344000,1.082500
21.348000,0.817500
21.352000,0.590000
21.356000,0.350000
21.360000,0.155000
21.364000,0.037500
21.368000,-0.022500
21.372000,0.000000
21.376000,0.012500
21.380000,-0.030000
21.384000,-0.072500
21.388000,-0.090000
21.392000,-0.080000
21.396000,-0.087500
21.400000,-0.110000
21.404000,-0.130000
21.408000,-0.142500
21.412000,-0.172500
21.416000,-0.205000
21.420000,-0.237500
21.424000,-0.250000
21.428000,-0.272500
21.432000,-0.305000
21.436000,-0.345000
21.440000,-0.382500
21.444000,-0.432500
21.448000,-0.487500
21.452000,-0.532500
21.456000,-0.560000
21.460000,-0.575000
21.464000,-0.585000
21.468000,-0.597500
21.472000,-0.612500
21.476000,-0.622500
21.480000,-0.625000
21.484000,-0.622500
21.488000,-0.602500
21.492000,-0.577500
21.496000,-0.547500
21.500000,-0.520000
21.504000,-0.495000
21.508000,-0.462500
21.512000,-0.432500
21.516000,-0.397500
21.520000,-0.360000
21.524000,-0.330000
21.528000,-0.317500
21.532000,-0.315000
21.536000,-0.317500
21.540000,-0.317500
21.544000,-0.320000
21.548000,-0.320000
21.552000,-0.330000
21.556000,-0.337500
21.560000,-0.357500
21.564000,-0.377500
21.568000,-0.395000
21.572000,-0.400000
21.576000,-0.402500
21.580000,-0.395000
21.584000,-0.385000
21.588000,-0.387500
21.592000,-0.395000
21.596000,-0.402500
21.600000,-0.412500
21.604000,-0.430000
21.608000,-0.440000
21.612000,-0.450000
21.616000,-0.457500
21.620000,-0.467500
21.624000,-0.465000
21.628000,-0.455000
21.632000,-0.447500
21.636000,-0.450000
21.640000,-0.457500
21.644000,-0.485000
21.648000,-0.520000
21.652000,-0.585000
21.656000,-0.665000
21.660000,-0.732500
21.664000,-0.772500
21.668000,-0.735000
21.672000,-0.642500
21.676000,-0.542500
21.680000,-0.442500
21.684000,-0.327500
21.688000,-0.207500
21.692000,-0.050000
21.696000,0.162500
21.700000,0.380000
21.704000,0.657500
21.708000,0.967500
21.712000,1.190000
21.716000,1.302500
21.720000,1.387500
21.724000,1.482500
21.728000,1.592500
21.732000,1.645000
21.736000,1.530000
21.740000,1.265000
21.744000,0.967500
21.748000,0.765000
21.752000,0.565000
21.756000,0.335000
21.760000,0.157500
21.764000,0.072500
21.768000,0.052500
21.772000,0.060000
21.776000,0.047500
21.780000,0.020000
21.784000,-0.025000
21.788000,-0.045000
21.792000,-0.062500
21.796000,-0.090000
21.800000,-0.112500
21.804000,-0.120000
21.808000,-0.117500
21.812000,-0.130000
21.816000,-0.140000
21.820000,-0.152500
21.824000,-0.157500
21.828000,-0.170000
21.832000,-0.177500
21.836000,-0.185000
21.840000,-0.195000
21.844000,-0.215000
21.848000,-0.240000
21.852000,-0.267500
21.856000,-0.290000
21.860000,-0.312500
21.864000,-0.335000
21.868000,-0.355000
21.872000,-0.367500
21.876000,-0.372500
21.880000,-0.372500
21.884000,-0.380000
21.888000,-0.385000
21.892000,-0.395000
21.896000,-0.390000
21.900000,-0.382500
21.904000,-0.362500
21.908000,-0.345000
21.912000,-0.337500
21.916000,-0.317500
21.920000,-0.310000
21.924000,-0.300000
21.928000,-0.295000
21.932000,-0.295000
21.936000,-0.305000
21.940000,-0.312500
21.944000,-0.320000
21.948000,-0.335000
21.952000,-0.352500
21.956000,-0.362500
21.960000,-0.382500
21.964000,-0.397500
21.968000,-0.407500
21.972000,-0.427500
21.976000,-0.450000
21.980000,-0.462500
21.984000,-0.472500
21.988000,-0.477500
21.992000,-0.480000
21.996000,-0.475000
22.000000,-0.472500
22.004000,-0.475000
22.008000,-0.485000
22.012000,-0.502500
22.016000,-0.542500
22.020000,-0.612500
22.024000,-0.687500
22.028000,-0.740000
22.032000,-0.710000
22.036000,-0.632500
22.040000,-0.562500
22.044000,-0.515000
22.048000,-0.465000
22.052000,-0.410000
22.056000,-0.312500
22.060000,-0.127500
22.064000,0.157500
22.068000,0.450000
22.072000,0.800000
22.076000,1.117500
22.080000,1.340000
22.084000,1.487500
22.088000,1.537500
22.092000,1.567500
22.096000,1.597500
22.100000,1.547500
22.104000,1.407500
22.108000,1.212500
22.112000,0.985000
22.116000,0.807500
22.120000,0.597500
22.124000,0.372500
22.128000,0.197500
22.132000,0.097500
22.136000,0.065000
22.140000,0.080000
22.144000,0.070000
22.148000,0.025000
22.152000,-0.025000
22.156000,-0.035000
22.160000,-0.050000
22.164000,-0.080000
22.168000,-0.102500
22.172000,-0.095000
22.176000,-0.092500
22.180000,-0.105000
22.184000,-0.125000
22.188000,-0.137500
22.192000,-0.150000
22.196000,-0.170000
22.200000,-0.187500
22.204000,-0.205000
22.208000,-0.217500
22.212000,-0.240000
22.216000,-0.267500
22.220000,-0.295000
22.224000,-0.320000
22.228000,-0.352500
22.232000,-0.385000
22.236000,-0.410000
22.240000,-0.422500
22.244000,-0.432500
22.248000,-0.442500
22.252000,-0.447500
22.256000,-0.440000
22.260000,-0.427500
22.264000,-0.410000
22.268000,-0.397500
22.272000,-0.382500
22.276000,-0.372500
22.280000,-0.352500
22.284000,-0.337500
22.288000,-0.330000
22.292000,-0.317500
22.296000,-0.310000
22.300000,-0.300000
22.304000,-0.290000
22.308000,-0.275000
22.312000,-0.275000
22.316000,-0.275000
22.320000,-0.275000
22.324000,-0.272500
22.328000,-0.275000
22.332000,-0.277500
22.336000,-0.295000
22.340000,-0.315000
22.344000,-0.335000
22.348000,-0.350000
22.352000,-0.362500
22.356000,-0.375000
22.360000,-0.385000
22.364000,-0.390000
22.368000,-0.400000
22.372000,-0.407500
22.376000,-0.410000
22.380000,-0.417500
22.384000,-0.410000
22.388000,-0.407500
22.392000,-0.405000
22.396000,-0.417500
22.400000,-0.445000
22.404000,-0.495000
22.408000,-0.552500
22.412000,-0.622500
22.416000,-0.655000
22.420000,-0.620000
22.424000,-0.545000
22.428000,-0.472500
22.432000,-0.397500
22.436000,-0.327500
22.440000,-0.250000
22.444000,-0.125000
22.448000,0.092500
22.452000,0.350000
22.456000,0.652500
22.460000,0.967500
22.464000,1.185000
22.468000,1.305000
22.472000,1.390000
22.476000,1.440000
22.480000,1.507500
22.484000,1.527500
22.488000,1.400000
22.492000,1.167500
22.496000,0.935000
22.500000,0.767500
22.504000,0.585000
22.508000,0.382500
22.512000,0.222500
22.516000,0.132500
22.520000,0.105000
22.524000,0.120000
22.528000,0.125000
22.532000,0.097500
22.536000,0.075000
22.540000,0.085000
22.544000,0.082500
22.548000,0.070000
22.552000,0.057500
22.556000,0.060000
22.560000,0.052500
22.564000,0.042500
22.568000,0.017500
22.572000,-0.025000
22.576000,-0.047500
22.580000,-0.072500
22.584000,-0.095000
22.588000,-0.127500
22.592000,-0.152500
22.596000,-0.177500
22.600000,-0.192500
22.604000,-0.210000
22.608000,-0.227500
22.612000,-0.267500
22.616000,-0.297500
22.620000,-0.335000
22.624000,-0.365000
22.628000,-0.397500
22.632000,-0.425000
22.636000,-0.452500
22.640000,-0.462500
22.644000,-0.457500
22.648000,-0.450000
22.652000,-0.430000
22.656000,-0.405000
22.660000,-0.380000
22.664000,-0.342500
22.668000,-0.317500
22.672000,-0.300000
22.676000,-0.295000
22.680000,-0.282500
22.684000,-0.265000
22.688000,-0.272500
22.692000,-0.282500
22.696000,-0.287500
22.700000,-0.285000
22.704000,-0.277500
22.708000,-0.270000
22.712000,-0.277500
22.716000,-0.282500
22.720000,-0.277500
22.724000,-0.272500
22.728000,-0.255000
22.732000,-0.230000
22.736000,-0.237500
22.740000,-0.250000
22.744000,-0.272500
22.748000,-0.292500
22.752000,-0.305000
22.756000,-0.295000
22.760000,-0.295000
22.764000,-0.292500
22.768000,-0.290000
22.772000,-0.290000
22.776000,-0.300000
22.780000,-0.317500
22.784000,-0.340000
22.788000,-0.367500
22.792000,-0.377500
22.796000,-0.365000
22.800000,-0.345000
22.804000,-0.317500
22.808000,-0.285000
22.812000,-0.275000
22.816000,-0.277500
22.820000,-0.275000
22.824000,-0.262500
22.828000,-0.252500
22.832000,-0.242500
22.836000,-0.260000
22.840000,-0.275000
22.844000,-0.277500
22.848000,-0.267500
22.852000,-0.237500
22.856000,-0.220000
22.860000,-0.215000
22.864000,-0.192500
22.868000,-0.192500
22.872000,-0.192500
22.876000,-0.192500
22.880000,-0.185000
22.884000,-0.172500
22.888000,-0.157500
22.892000,-0.140000
22.896000,-0.137500
22.900000,-0.165000
22.904000,-0.207500
22.908000,-0.255000
22.912000,-0.305000
22.916000,-0.345000
22.920000,-0.405000
22.924000,-0.375000
22.928000,-0.272500
22.932000,-0.132500
22.936000,0.005000
22.940000,0.132500
22.944000,0.267500
22.948000,0.417500
22.952000,0.570000
22.956000,0.765000
22.960000,1.025000
22.964000,1.260000
22.968000,1.390000
22.972000,1.455000
22.976000,1.527500
22.980000,1.600000
22.984000,1.695000
22.988000,1.657500
22.992000,1.402500
22.996000,1.062500
23.000000,0.847500
23.004000,0.697500
23.008000,0.547500
23.012000,0.402500
23.016000,0.292500
23.020000,0.240000
23.024000,0.237500
23.028000,0.240000
23.032000,0.200000
23.036000,0.182500
23.040000,0.205000
23.044000,0.207500
23.048000,0.202500
23.052000,0.197500
23.056000,0.220000
23.060000,0.227500
23.064000,0.215000
23.068000,0.185000
23.072000,0.162500
23.076000,0.155000
23.080000,0.157500
23.084000,0.170000
23.088000,0.152500
23.092000,0.150000
23.096000,0.170000
23.100000,0.140000
23.104000,0.110000
23.108000,0.092500
23.112000,0.065000
23.116000,0.057500
23.120000,0.052500
23.124000,0.045000
23.128000,0.020000
23.132000,0.000000
23.136000,-0.060000
23.140000,-0.085000
23.144000,-0.115000
23.148000,-0.147500
23.152000,-0.177500
23.156000,-0.215000
23.160000,-0.242500
23.164000,-0.245000
23.168000,-0.245000
23.172000,-0.222500
23.176000,-0.195000
23.180000,-0.185000
23.184000,-0.172500
23.188000,-0.172500
23.192000,-0.187500
23.196000,-0.195000
23.200000,-0.177500
23.204000,-0.170000
23.208000,-0.140000
23.212000,-0.112500
23.216000,-0.095000
23.220000,-0.102500
23.224000,-0.117500
23.228000,-0.130000
23.232000,-0.140000
23.236000,-0.177500
23.240000,-0.177500
23.244000,-0.175000
23.248000,-0.175000
23.252000,-0.172500
23.256000,-0.187500
23.260000,-0.217500
23.264000,-0.210000
23.268000,-0.175000
23.272000,-0.142500
23.276000,-0.102500
23.280000,-0.087500
23.284000,-0.082500
23.288000,-0.087500
23.292000,-0.092500
23.296000,-0.092500
23.300000,-0.117500
23.304000,-0.157500
23.308000,-0.192500
23.312000,-0.272500
23.316000,-0.360000
23.320000,-0.422500
23.324000,-0.365000
23.328000,-0.275000
23.332000,-0.180000
23.336000,-0.105000
23.340000,0.007500
23.344000,0.090000
23.348000,0.225000
23.352000,0.425000
23.356000,0.647500
23.360000,0.890000
23.364000,1.212500
23.368000,1.475000
23.372000,1.575000
23.376000,1.620000
23.380000,1.687500
23.384000,1.745000
23.388000,1.750000
23.392000,1.547500
23.396000,1.177500
23.400000,0.822500
23.404000,0.615000
23.408000,0.475000
23.412000,0.360000
23.416000,0.255000
23.420000,0.170000
23.424000,0.130000
23.428000,0.132500
23.432000,0.170000
23.436000,0.160000
23.440000,0.162500
23.444000,0.182500
23.448000,0.207500
23.452000,0.240000
23.456000,0.267500
23.460000,0.275000
23.464000,0.282500
23.468000,0.287500
23.472000,0.270000
23.476000,0.250000
23.480000,0.232500
23.484000,0.217500
23.488000,0.185000
23.492000,0.170000
23.496000,0.130000
23.500000,0.052500
23.504000,-0.042500
23.508000,-0.092500
23.512000,-0.105000
23.516000,-0.115000
23.520000,-0.132500
23.524000,-0.142500
23.528000,-0.187500
23.532000,-0.250000
23.536000,-0.330000
23.540000,-0.357500
23.544000,-0.377500
23.548000,-0.367500
23.552000,-0.355000
23.556000,-0.332500
23.560000,-0.320000
23.564000,-0.317500
23.568000,-0.305000
23.572000,-0.292500
23.576000,-0.292500
23.580000,-0.260000
23.584000,-0.245000
23.588000,-0.275000
23.592000,-0.335000
23.596000,-0.352500
23.600000,-0.337500
23.604000,-0.292500
23.608000,-0.225000
23.612000,-0.205000
23.616000,-0.197500
23.620000,-0.195000
23.624000,-0.185000
23.628000,-0.182500
23.632000,-0.200000
23.636000,-0.282500
23.640000,-0.377500
23.644000,-0.445000
23.648000,-0.397500
23.652000,-0.297500
23.656000,-0.240000
23.660000,-0.202500
23.664000,-0.112500
23.668000,0.000000
23.672000,0.110000
23.676000,0.277500
23.680000,0.515000
23.684000,0.725000
23.688000,1.010000
23.692000,1.385000
23.696000,1.662500
23.700000,1.882500
23.704000,2.000000
23.708000,1.987500
23.712000,1.937500
23.716000,1.862500
23.720000,1.682500
23.724000,1.410000
23.728000,1.072500
23.732000,0.790000
23.736000,0.555000
23.740000,0.327500
23.744000,0.132500
23.748000,0.015000
23.752000,-0.037500
23.756000,0.025000
23.760000,0.075000
23.764000,0.030000
23.768000,-0.067500
23.772000,-0.147500
23.776000,-0.165000
23.780000,-0.155000
23.784000,-0.152500
23.788000,-0.125000
23.792000,-0.095000
23.796000,-0.112500
23.800000,-0.127500
23.804000,-0.110000
23.808000,-0.090000
23.812000,-0.095000
23.816000,-0.132500
23.820000,-0.170000
23.824000,-0.177500
23.828000,-0.170000
23.832000,-0.180000
23.836000,-0.202500
23.840000,-0.215000
23.844000,-0.250000
23.848000,-0.282500
23.852000,-0.312500
23.856000,-0.360000
23.860000,-0.400000
23.864000,-0.390000
23.868000,-0.350000
23.872000,-0.327500
23.876000,-0.315000
23.880000,-0.292500
23.884000,-0.282500
23.888000,-0.275000
23.892000,-0.270000
23.896000,-0.277500
23.900000,-0.270000
23.904000,-0.260000
23.908000,-0.250000
23.912000,-0.285000
23.916000,-0.315000
23.920000,-0.332500
23.924000,-0.337500
23.928000,-0.400000
23.932000,-0.522500
23.936000,-0.680000
23.940000,-0.760000
23.944000,-0.722500
23.948000,-0.642500
23.952000,-0.587500
23.956000,-0.530000
23.960000,-0.445000
23.964000,-0.365000
23.968000,-0.267500
23.972000,-0.097500
23.976000,0.147500
23.980000,0.382500
23.984000,0.700000
23.988000,1.070000
23.992000,1.420000
23.996000,1.727500
24.000000,1.940000
24.004000,2.032500
24.008000,2.112500
24.012000,2.155000
24.016000,2.065000
24.020000,1.805000
24.024000,1.432500
24.028000,1.065000
24.032000,0.817500
24.036000,0.575000
24.040000,0.320000
24.044000,0.135000
24.048000,0.070000
24.052000,0.102500
24.056000,0.152500
24.060000,0.142500
24.064000,0.097500
24.068000,0.080000
24.072000,0.080000
24.076000,0.065000
24.080000,0.030000
24.084000,0.005000
24.088000,-0.017500
24.092000,-0.035000
24.096000,-0.067500
24.100000,-0.110000
24.104000,-0.147500
24.108000,-0.187500
24.112000,-0.250000
24.116000,-0.297500
24.120000,-0.350000
24.124000,-0.397500
24.128000,-0.442500
24.132000,-0.492500
24.136000,-0.542500
24.140000,-0.585000
24.144000,-0.615000
24.148000,-0.645000
24.152000,-0.672500
24.156000,-0.682500
24.160000,-0.682500
24.164000,-0.677500
24.168000,-0.660000
24.172000,-0.637500
24.176000,-0.600000
24.180000,-0.552500
24.184000,-0.497500
24.188000,-0.447500
24.192000,-0.412500
24.196000,-0.402500
24.200000,-0.380000
24.204000,-0.352500
24.208000,-0.320000
24.212000,-0.292500
24.216000,-0.260000
24.220000,-0.237500
24.224000,-0.230000
24.228000,-0.237500
24.232000,-0.232500
24.236000,-0.210000
24.240000,-0.182500
24.244000,-0.170000
24.248000,-0.150000
24.252000,-0.140000
24.256000,-0.140000
24.260000,-0.142500
24.264000,-0.150000
24.268000,-0.162500
24.272000,-0.180000
24.276000,-0.187500
24.280000,-0.192500
24.284000,-0.182500
24.288000,-0.175000
24.292000,-0.165000
24.296000,-0.165000
24.300000,-0.162500
24.304000,-0.175000
24.308000,-0.175000
24.312000,-0.180000
24.316000,-0.185000
24.320000,-0.192500
24.324000,-0.180000
24.328000,-0.175000
24.332000,-0.175000
24.336000,-0.192500
24.340000,-0.210000
24.344000,-0.230000
24.348000,-0.242500
24.352000,-0.242500
24.356000,-0.240000
24.360000,-0.230000
24.364000,-0.220000
24.368000,-0.207500
24.372000,-0.210000
24.376000,-0.200000
24.380000,-0.180000
24.384000,-0.160000
24.388000,-0.140000
24.392000,-0.120000
24.396000,-0.112500
24.400000,-0.107500
24.404000,-0.102500
24.408000,-0.097500
24.412000,-0.102500
24.416000,-0.102500
24.420000,-0.097500
24.424000,-0.092500
24.428000,-0.090000
24.432000,-0.090000
24.436000,-0.102500
24.440000,-0.130000
24.444000,-0.177500
24.448000,-0.242500
24.452000,-0.317500
24.456000,-0.412500
24.460000,-0.502500
24.464000,-0.497500
24.468000,-0.402500
24.472000,-0.267500
24.476000,-0.137500
24.480000,0.005000
24.484000,0.152500
24.488000,0.297500
24.492000,0.465000
24.496000,0.672500
24.500000,0.940000
24.504000,1.187500
24.508000,1.342500
24.512000,1.410000
24.516000,1.480000
24.520000,1.572500
24.524000,1.677500
24.528000,1.645000
24.532000,1.425000
24.536000,1.107500
24.540000,0.885000
24.544000,0.710000
24.548000,0.520000
24.552000,0.345000
24.556000,0.237500
24.560000,0.202500
24.564000,0.230000
24.568000,0.255000
24.572000,0.230000
24.576000,0.210000
24.580000,0.222500
24.584000,0.240000
24.588000,0.225000
24.592000,0.207500
24.596000,0.207500
24.600000,0.215000
24.604000,0.202500
24.608000,0.192500
24.612000,0.182500
24.616000,0.197500
24.620000,0.202500
24.624000,0.205000
24.628000,0.202500
24.632000,0.197500
24.636000,0.175000
24.640000,0.140000
24.644000,0.110000
24.648000,0.087500
24.652000,0.062500
24.656000,0.035000
24.660000,0.012500
24.664000,0.000000
24.668000,-0.025000
24.672000,-0.045000
24.676000,-0.067500
24.680000,-0.097500
24.684000,-0.132500
24.688000,-0.162500
24.692000,-0.177500
24.696000,-0.182500
24.700000,-0.182500
24.704000,-0.180000
24.708000,-0.182500
24.712000,-0.195000
24.716000,-0.200000
24.720000,-0.207500
24.724000,-0.210000
24.728000,-0.217500
24.732000,-0.220000
24.736000,-0.225000
24.740000,-0.225000
24.744000,-0.222500
24.748000,-0.215000
24.752000,-0.205000
24.756000,-0.207500
24.760000,-0.207500
24.764000,-0.207500
24.768000,-0.200000
24.772000,-0.195000
24.776000,-0.182500
24.780000,-0.177500
24.784000,-0.172500
24.788000,-0.172500
24.792000,-0.165000
24.796000,-0.160000
24.800000,-0.157500
24.804000,-0.157500
24.808000,-0.162500
24.812000,-0.177500
24.816000,-0.182500
24.820000,-0.185000
24.824000,-0.182500
24.828000,-0.185000
24.832000,-0.185000
24.836000,-0.182500
24.840000,-0.180000
24.844000,-0.172500
24.848000,-0.155000
24.852000,-0.142500
24.856000,-0.140000
24.860000,-0.140000
24.864000,-0.140000
24.868000,-0.140000
24.872000,-0.140000
24.876000,-0.137500
24.880000,-0.140000
24.884000,-0.147500
24.888000,-0.152500
24.892000,-0.160000
24.896000,-0.172500
24.900000,-0.172500
24.904000,-0.187500
24.908000,-0.217500
24.912000,-0.265000
24.916000,-0.332500
24.920000,-0.412500
24.924000,-0.477500
