peaks
97
378
652
924
1200
1478
1760
2036
2314
2592
2868
3142
3424
3708
3990
4270
4548
4826
5106
5388
5662
5936
6204
6476
6750
7024
7302
7582
7864
8146
8434
8720
9006
9290
9574
9858
10138
10422
10704
10988
11268
11542
11810
12076
12342
12614
12882
13152
13426
13704
13982
14262
14540
14822
15102
15370
15642
15912
16180
16450
16724
17008
17296
17568
17834
18106
18376
18644
18914
19182
19446
19708
19972
20236
20492
20740
20986
21226
21464
21714
21972
22240
22516
22792
23072
23354
23642
23938
24240
24530
24824
25118
25404
25686
25968
26246
26522
26796
27074
27356
27640
27926
28220
28520
28818
29110
29398
29686
29970
30250
30532
30804
31080
31352
31630
31904
32180
32456
32738
33020
33300
33572
33838
34100
34368
34642
34916
35188
35462
35734
36004
36274
36544
36816
37094
37368
37636
37900
38158
38406
38650
38888
39122
39352
39586
39818
40052
40298
40550
40808
41072
41346
41622
41898
42182
42470
42762
43046
43334
43624
43910
44192
44478
44760
45044
45330
45620
45916
46212
46492
46764
47036
47306
47576
47850
48124
48400
48672
48950
49228
49508
49786
50054
50326
50596
50862
51126
51394
51662
51934
52208
52484
52762
53038
53312
53590
53866
54138
54408
54678
54942
55210
55476
55748
56024
56296
56568
56840
57106
57370
57636
57892
58142
58390
58642
58894
59152
59418
59692
59972
60250
60530
60808
61086
61364
61644
61924
62198
62466
62740
63018
63290
63562
63840
64122
64404
64682
64958
65230
65496
65760
66016
66268
66516
66754
66988
67218
67452
67694
67948
68214
68484
68754
69028
69304
69584
69866
70142
70412
70686
70960
71238
71520
71804
72088
72378
72672
72960
73246
73532
73822
74096
74364
74636
74910
75184
75464
75758
76062
76370
76672
76974
77268
77560
77844
78130
78416
78696
78966
79238
79500
79746
79988
80232
80486
80742
81008
81286
81560
81836
82112
82398
82684
82964
83252
83548
83860
84160
84456
84754
85054
85330
85602
85870
86148
86424
86700
86980
87258
87534
87806
88084
88366
88652
88938
89220
89512
89788
90058
90330
90592
90852
91114
91378
91642
91916
92192
92480
92784
93080
93374
93660
93936
94200
94464
94736
95004
95280
95566
95866
96168
96472
96764
97054
97336
97620
97900
98172
98454
98730
99006
99276
99550
99822
100092
100352
100610
100868
101116
101358
101600
101844
102094
102354
102622
102886
103150
103422
103702
103980
104258
104534
104816
105098
105372
105652
105930
106202
106472
106728
106974
107220
107466
107716
107974
108236
108504
108778
109060
109342
109628
109918
110204
110486
110766
111042
111316
111582
111846
112116
112382
112652
112930
113198
113454
113702
113944
114186
114428
114668
114912
115166
115432
115710
115994
116282
116572
116858
117152
117444
117736
118038
118340
118636
118928
119222
119512
119792
120062
120324
120578
120818
121056
121292
121530
121770
122016
122256
122488
122720
122952
123172
123392
123608
123820
124030
124238
124444
124646
124848
125044
125242
125442
125640
125836
126034
126232
126430
126624
126824
127022
127220
127426
127630
127834
128036
128238
128440
128646
128856
129074
129308
129546
129788
130038
130294
130542
130778
131010
131238
131458
131684
131922
132170
132432
132702
132974
133236
133486
133734
133984
134242
134504
134766
135016
135256
135492
135708
135926
136146
136360
136576
136790
137000
137218
137432
137644
137856
138066
138276
138484
138692
138902
139112
139318
139524
139728
139932
140138
140344
140546
140750
140954
141164
141376
141586
141808
142038
142280
142540
142806
143078
143344
143612
143882
144156
144426
144686
144932
145180
145416
145652
145894
146150
146408
146682
146958
147234
147522
147798
148082
148358
148636
148918
149200
149478
149758
150032
150304
150572
150844
151116
151386
151656
151924
152192
152458
152726
153000
153274
153550
153828
154104
154382
154660
154942
155228
155512
155782
156034
156280
156524
156772
157018
157272
157524
157782
158044
158322
158606
158894
159188
159476
159766
160052
160334
160624
160912
161206
161498
161784
162078
162370
162658
162954
163250
163544
163832
164116
164404
164696
164982
165266
165548
165832
166114
166398
166684
166966
167250
167528
167800
168062
168314
168568
168824
169080
169336
169602
169884
170174
170468
170762
171062
171366
171672
171978
172278
172578
172884
173188
173486
173780
174070
174354
174644
174922
175202
175484
175766
176040
176320
176604
176892
177170
177448
177732
178020
178300
178578
178856
179134
179408
179666
179922
180180
180438
180700
180966
181244
181522
181812
182104
182402
182692
182988
183278
183572
183862
184146
184432
184716
185000
185280
185564
185848
186132
186416
186702
186984
187262
187544
187828
188108
188394
188676
188952
189238
189522
189800
190082
190364
190644
190924
191206
191492
191782
192062
192336
192614
192896
193182
193464
193752
194042
194336
194624
194914
195208
195500
195786
196068
196350
196632
196908
197184
197466
197748
198030
198308
198584
198860
199138
199412
199682
199952
200220
200484
200746
201012
201282
201552
201818
202086
202358
202630
202900
203176
203456
203732
204010
204284
204558
204836
205112
205390
205670
205950
206228
206508
206784
207060
207332
207606
207880
208154
208426
208694
208972
209250
209524
209800
210074
210348
210620
210894
211168
211450
211720
211974
212224
212472
212718
212964
213214
213474
213742
214016
214296
214584
214874
215162
215450
215738
216022
216298
216576
216856
217144
217432
217722
218012
218302
218594
218882
219176
219470
219760
220044
220328
220614
220898
221182
221462
221740
222016
222288
222570
222848
223124
223396
223672
223952
224230
224508
224784
225062
225340
225616
225896
226180
226466
226748
227034
227322
227600
227878
228150
228422
228692
228954
229210
229464
229710
229952
230190
230430
230668
230910
231156
231408
231672
231944
232224
232514
232806
233096
233390
233682
233974
234262
234552
234844
235132
235420
235714
236008
236300
236586
236870
237156
237444
237730
238010
238300
238588
238874
239152
239438
239716
240002
240268
240554
240846
241136
241418
241700
241984
242268
242542
242814
243088
243364
243640
243916
244198
244480
244758
245036
245312
245590
245866
246136
246408
246688
246964
247238
247518
247798
248082
248360
248644
248924
249208
249484
249760
250040
250322
250604
250890
251172
251452
251730
252002
252264
252518
252766
253014
253262
253510
253768
254042
254326
254608
254890
255184
255482
255776
256058
256326
256592
256854
257106
257356
257628
257916
258208
258512
258816
259120
259424
259726
260026
260326
260622
260910
261204
261502
261800
262092
262382
262678
262966
263254
263540
263828
264114
264396
264680
264966
265254
265540
265826
266112
266400
266684
266968
267252
267536
267826
268114
268400
268682
268962
269246
269526
269804
270080
270356
270630
270900
271174
271444
271718
271992
272266
272542
272824
273104
273386
273672
273960
274242
274526
274810
275098
275378
275660
275944
276232
276506
276782
277060
277342
277620
277900
278182
278468
278750
279036
279322
279598
279862
280120
280374
280626
280878
281136
281406
281684
281972
282266
282562
282852
283148
283450
283750
284044
284336
284626
284920
285212
285506
285792
286082
286362
286644
286930
287220
287504
287786
288070
288358
288642
288918
289200
289484
289768
290048
290330
290612
290894
291172
291454
291734
292014
292290
292566
292846
293124
293396
293670
293950
294226
294500
294780
295060
295344
295624
295908
296196
296486
296772
297066
297362
297654
297940
298228
298518
298800
299084
299368
299658
299942
300222
300494
300768
301030
301280
301528
301778
302038
302308
302594
302888
303176
303468
303764
304060
304358
304652
304948
305242
305532
305820
306114
306404
306690
306974
307254
307536
307818
308100
308384
308666
308952
309230
309510
309792
310068
310342
310620
310902
311186
311462
311742
312028
312310
312588
312866
313148
313434
313718
314002
314292
314582
314864
315144
315422
315698
315970
316246
316522
316808
317086
317364
317636
317914
318186
318462
318738
319016
319294
319574
319858
320142
320422
320706
320990
321270
321546
321824
322102
322378
322654
322930
323208
323486
323762
324034
324312
324590
324864
325134
325410
325686
325964
326242
326522
326802
327082
327358
327640
327920
328204
328482
328766
329050
329334
329612
329892
330170
330450
330728
331008
331294
331578
331856
332134
332414
332690
332962
333236
333508
333778
334050
334326
334600
334876
335152
335432
335714
336000
336276
336558
336838
337120
337400
337682
337968
338252
338530
338810
339092
339370
339642
339914
340188
340464
340738
341006
341282
341560
341832
342102
342376
342654
342928
343200
343474
343750
344026
344296
344566
344840
345114
345386
345660
345938
346216
346490
346764
347040
347318
347592
347868
348144
348420
348696
348970
349244
349518
349790
350060
350328
350600
350874
351152
351434
351714
351990
352268
352546
352826
353104
353380
353658
353936
354208
354478
354752
355026
355298
355570
355842
356118
356388
356658
356930
357202
357470
357744
358018
358294
358570
358848
359122
359402
359678
359954
360238
360518
360796
361072
361344
361620
361892
362154
362420
362690
362958
363220
363488
363756
364024
364296
364568
364842
365110
365378
365654
365940
366226
366516
366804
367096
367380
367666
367950
368236
368522
368812
369100
369384
369666
369944
370224
370504
370780
371058
371338
371616
371894
372174
372456
372734
373010
373294
373574
373850
374124
374404
374688
374972
375248
375528
375810
376092
376370
376652
376936
377220
377500
377780
378062
378342
378618
378894
379170
379444
379710
379982
380256
380532
380806
381082
381362
381642
381920
382200
382486
382770
383050
383330
383610
383892
384170
384446
384726
385002
385278
385542
385812
386084
386352
386618
386890
387158
387428
387696
387976
388248
388516
388784
389056
389330
389604
389880
390156
390434
390716
390992
391266
391542
391820
392096
392370
392648
392924
393200
393472
393750
394028
394302
394578
394854
395128
395404
395678
395946
396216
396486
396752
397018
397286
397550
397818
398086
398354
398626
398894
399164
399430
399700
399964
400224
400490
400760
401022
401290
401566
401842
402118
402392
402668
402944
403216
403488
403764
404042
404312
404586
404862
405144
405424
405704
405988
406272
406552
406824
407102
407382
407662
407936
408210
408484
408758
409030
409304
409578
409854
410124
410398
410670
410944
411212
411480
411750
412020
412286
412560
412832
413108
413380
413656
413938
414222
414496
414770
415048
415326
415602
415878
416160
416440
416710
416984
417262
417540
417812
418074
418338
418602
418868
419132
419400
419670
419946
420216
420486
420760
421034
421306
421578
421850
422124
422398
422670
422948
423226
423502
423782
424056
424332
424602
424876
425148
425420
425690
425956
426224
426492
426758
427026
427296
427564
427830
428092
428360
428636
428904
429174
429446
429724
429998
430268
430538
430812
431086
431360
431636
431916
432192
432464
432734
433008
433274
433540
433802
434066
434328
434588
434852
435122
435392
435660
435930
436202
436472
436744
437020
437296
437572
437848
438124
438400
438678
438952
439226
439506
439788
440068
440344
440620
440898
441174
441448
441720
441996
442268
442536
442810
443088
443364
443642
443918
444196
444476
444756
445030
445298
445564
445828
446096
446370
446642
446916
447194
447468
447734
448000
448268
448542
448812
449080
449350
449624
449896
450160
450428
450696
450962
451224
451492
451766
452038
452310
452586
452870
453158
453442
453724
454006
454294
454580
454864
455144
455422
455694
455968
456250
456534
456812
457090
457370
457648
457926
458206
458482
458756
459032
459304
459576
459852
460120
460390
460664
460938
461208
461484
461756
462032
462304
462578
462854
463134
463410
463688
463968
464248
464520
464790
465056
465320
465586
465854
466120
466390
466656
466926
467194
467464
467734
468008
468278
468544
468806
469072
469340
469604
469866
470128
470384
470628
470870
471106
471342
471578
471822
472060
472308
472554
472800
473044
473286
473528
473770
474018
474234
474522
474776
475032
475288
475548
475808
476078
476354
476634
476920
477214
477508
477800
478084
478370
478654
478940
479224
479504
479784
480052
480310
480562
480812
481058
481292
481516
481736
481950
482160
482370
482578
482784
482990
483196
483402
483610
483820
484028
484232
484438
484648
484866
485082
485306
485504
485764
486004
486242
486482
486728
486972
487214
487456
487704
487950
488206
488472
488746
489018
489298
489586
489862
490132
490400
490656
490902
491140
491376
491620
491856
492098
492348
492598
492850
493100
493350
493600
493850
494104
494352
494610
494868
495130
495394
495646
495890
496132
496370
496608
496848
497086
497324
497568
497806
498040
498270
498504
498742
498984
499224
499462
499700
499940
500190
500442
500692
500942
501182
501402
501638
501868
502102
502332
502558
502790
503018
503246
503476
503706
503928
504162
504382
504608
504834
505052
505272
505494
505714
505934
506160
506384
506608
506834
507056
507282
507502
507722
507946
508196
508456
508716
508966
509218
509482
509744
510000
510256
510512
510760
510998
511236
511480
511722
511964
512210
512454
512686
512912
513142
513376
513614
513844
514072
514296
514528
514782
515062
515346
515630
515918
516208
516496
516782
517064
517346
517626
517910
518194
518464
518722
518986
519256
519522
519778
520048
520322
520586
520856
521128
521400
521676
521960
522254
522542
522826
523120
523416
523710
524006
524304
524598
524890
525182
525472
525758
526042
526326
526608
526890
527170
527434
527692
527954
528222
528478
528742
529018
529288
529562
529844
530138
530432
530722
531024
531334
531632
531924
532216
532502
532786
533074
533356
533636
533918
534196
534474
534754
535034
535314
535602
535896
536188
536474
536764
537060
537352
537642
537918
538186
538448
538700
538950
539196
539442
539682
539930
540186
540462
540748
541038
541338
541636
541932
542220
542516
542816
543112
543400
543688
543980
544264
544542
544824
545110
545394
545674
545958
546252
546544
546824
547106
547396
547682
547974
548274
548572
548868
549148
549430
549716
550002
550292
550582
550876
551166
551450
551738
552024
552306
552588
552874
553158
553440
553728
554016
554302
554594
554892
555182
555466
555746
556032
556322
556606
556888
557178
557468
557750
558030
558310
558592
558872
559142
559410
559682
559954
560222
560480
560740
561004
561264
561526
561794
562066
562338
562618
562900
563182
563466
563754
564046
564340
564624
564902
565190
565470
565740
566016
566294
566570
566846
567130
567422
567716
568004
568288
568578
568866
569146
569432
569714
570002
570282
570560
570846
571134
571414
571686
571962
572238
572516
572788
573064
573346
573624
573902
574180
574466
574740
575014
575288
575560
575838
576110
576380
576648
576918
577190
577466
577742
578018
578296
578576
578860
579146
579426
579714
579996
580276
580554
580830
581108
581390
581668
581940
582216
582492
582764
583036
583312
583594
583876
584156
584438
584722
585006
585286
585560
585840
586120
586398
586672
586938
587214
587492
587764
588034
588312
588594
588870
589144
589420
589698
589974
590248
590526
590808
591086
591360
591634
591912
592192
592466
592736
593010
593292
593564
593840
594120
594402
594686
594964
595246
595528
595810
596082
596352
596622
596892
597158
597416
597674
597936
598194
598448
598706
598972
599238
599508
599784
600064
600348
600630
600912
601192
601480
601760
602036
602314
602598
602878
603154
603432
603720
604010
604292
604576
604858
605146
605432
605712
606000
606282
606566
606846
607122
607398
607678
607954
608224
608490
608764
609038
609308
609576
609850
610130
610412
610686
610960
611240
611522
611804
612082
612358
612640
612920
613194
613470
613752
614032
614310
614582
614858
615138
615422
615698
615972
616252
616536
616818
617094
617376
617662
617944
618218
618490
618760
619034
619310
619582
619856
620136
620416
620688
620956
621226
621502
621776
622046
622312
622588
622864
623132
623402
623662
623926
624192
624454
624710
624972
625240
625506
625774
626052
626334
626616
626896
627176
627462
627748
628028
628310
628594
628878
629158
629436
629716
630000
630278
630554
630832
631116
631404
631686
631964
632244
632528
632802
633076
633354
633632
633912
634186
634458
634738
635022
635302
635576
635856
636134
636408
636680
636954
637236
637516
637790
638066
638344
638624
638902
639176
639452
639734
640014
640290
640568
640850
641136
641406
641668
641934
642206
642476
642746
643022
643302
643586
643866
644142
644424
644712
644994
645272
645556
645838
646114
646388
646664
646944
647226
647504
647780
648060
648344
648628
648906
649192
649476
649760
650038
650318
650602
650886
651164
651438
651714
651996
652274
652548
652820
653100
653378
653648
653914
654182
654456
654732
655002
655276
655554
655830
656104
656372
656646
656926
657206
657482
657760
658044
658330
658612
658888
659162
659438
659710
659978
660246
660514
660784
661052
661316
661586
661856
662128
662396
662668
662940
663216
663490
663760
664038
664320
664598
664868
665142
665418
665692
665964
666236
666514
666798
667078
667352
667630
667908
668186
668460
668734
669016
669298
669574
669844
670120
670398
670676
670946
671218
671494
671776
672052
672326
672608
672890
673172
673444
673716
673992
674268
674542
674812
675088
675364
675638
675904
676170
676440
676716
676986
677252
677520
677794
678066
678334
678596
678862
679132
679402
679666
679934
680204
680480
680758
681030
681304
681582
681860
682136
682410
682686
682964
683238
683508
683778
684054
684328
684600
684872
685146
685418
685690
685956
686224
686496
686768
687034
687306
687580
687860
688132
688406
688688
688966
689244
689518
689796
690076
690358
690632
690904
691182
691464
691746
692022
692296
692574
692850
693120
693390
693662
693934
694204
694470
694736
695006
695274
695540
695804
696076
696350
696624
696894
697162
697434
697710
697976
698246
698516
698788
699058
699328
699598
699868
700138
700402
700660
700928
701194
701462
701730
702004
702278
702554
702828
703100
703374
703650
703924
704194
704470
704746
705024
705298
705566
705842
706116
706384
706644
706906
707168
707430
707688
707944
708202
708466
708728
708988
709250
709512
709778
710040
710300
710560
710828
711098
711360
711622
711888
712152
712422
712684
712946
713214
713488
713754
714018
714290
714568
714844
715116
715384
715656
715932
716202
716468
716738
717008
717280
717546
717812
718082
718352
718616
718880
719152
719422
719694
719962
720226
720498
720776
721050
721318
721586
721854
722126
722400
722670
722948
723228
723500
723768
724042
724316
724584
724848
725104
725368
725634
725898
726158
726418
726684
726952
727220
727482
727746
728016
728282
728546
728812
729086
729358
729626
729890
730158
730428
730694
730954
731220
731486
731750
732014
732280
732552
732826
733098
733364
733636
733914
734188
734460
734728
735000
735274
735548
735816
736088
736366
736644
736920
737190
737464
737742
738024
738298
738568
738840
739116
739386
739654
739924
740200
740476
740746
741012
741288
741562
741838
742108
742376
742654
742930
743202
743470
743744
744024
744302
744574
744850
745130
745412
745688
745964
746246
746528
746806
747080
747350
747628
747904
748178
748446
748718
748990
749266
749534
749800
750072
750344
750614
750882
751148
751414
751684
751954
752220
752488
752758
753026
753288
753552
753814
754080
754344
754606
754872
755144
755414
755684
755950
756218
756492
756768
757030
757294
757564
757836
758106
758376
758644
758914
759188
759456
759722
759990
760264
760536
760806
761068
761334
761608
761874
762136
762402
762676
762942
763206
763468
763730
763998
764266
764530
764796
765064
765338
765612
765882
766150
766422
766696
766960
767224
767494
767764
768032
768296
768554
768816
769084
769348
769608
769870
770138
770408
770680
770944
771210
771480
771750
772014
772276
772538
772802
773066
773332
773600
773874
774154
774422
774688
774962
775236
775514
775784
776048
776314
776584
776850
777114
777378
777644
777912
778178
778438
778704
778976
779242
779504
779768
780036
780304
780568
780830
781100
781370
781634
781896
782162
782428
782692
782962
783222
783490
783762
784028
784286
784542
784804
785074
785340
785598
785860
786130
786396
786660
786926
787196
787468
787734
787994
788250
788514
788774
789030
789290
789558
789826
790088
790348
790608
790882
791156
791426
791700
791978
792254
792526
792798
793070
793338
793606
793862
794120
794382
794646
794908
795168
795436
795700
795966
796226
796488
796758
797032
797302
797570
797842
798118
798390
798658
798924
799194
799468
799734
800000
800264
800532
800800
801064
801322
801580
801840
802100
802354
802610
802870
803138
803398
803656
803916
804180
804448
804710
804980
805248
805514
805780
806042
806310
806584
806846
807106
807362
807624
807884
808142
808394
808646
808904
809164
809416
809668
809928
810194
810454
810710
810962
811226
811490
811752
812008
812274
812544
812808
813064
813330
813604
813878
814146
814410
814680
814958
815230
815498
815762
816030
816302
816570
816832
817092
817358
817624
817888
818142
818394
818658
818916
819176
819430
819690
819956
820218
820478
820738
821010
821282
821552
821816
822082
822352
822618
822882
823142
823404
823670
823934
824198
824464
824738
825008
825272
825536
825806
826078
826344
826604
826856
827116
827380
827640
827898
828156
828420
828690
828952
829216
829484
829756
830028
830298
830572
830846
831126
831400
831674
831950
832232
832508
832778
833048
833328
833606
833874
834144
834418
834692
834960
835226
835502
835768
836038
836306
836580
836856
837132
837404
837676
837952
838232
838506
838782
839062
839348
839632
839906
840176
840452
840728
840998
841266
841536
841812
842086
842352
842616
842882
843148
843418
843684
843960
844236
844512
844784
845062
845342
845618
845894
846174
846452
846728
847000
847276
847556
847834
848108
848388
848668
848950
849228
849506
849784
850064
850336
850608
850876
851150
851418
851686
851946
852208
852472
852734
852998
853262
853528
853794
854058
854318
854580
854844
855110
855378
855650
855926
856204
856478
856752
857026
857302
857576
857844
858114
858384
858658
858928
859196
859472
859746
860020
860292
860568
860844
861118
861392
861664
861936
862212
862484
862754
863026
863296
863564
863834
864102
864370
864638
864908
865178
865452
865722
865990
866252
866518
866784
867046
867306
867564
867830
868100
868368
868636
868904
869180
869452
869722
869990
870260
870530
870810
871072
871340
871608
871880
872150
872418
872684
872958
873230
873496
873762
874030
874298
874568
874836
875108
875384
875660
875930
876204
876482
876760
877040
877314
877592
877874
878156
878438
878718
879000
879284
879562
879834
880108
880384
880660
880930
881198
881470
881742
882012
882280
882552
882822
883092
883360
883634
883908
884182
884452
884722
885002
885268
885536
885802
886074
886350
886620
886888
887156
887426
887698
887966
888232
888502
888772
889038
889300
889560
889824
890090
890358
890620
890888
891156
891424
891686
891948
892214
892480
892742
892998
893258
893524
893790
894052
894314
894582
894856
895128
895394
895656
895922
896186
896446
896712
896976
897246
897518
897784
898048
898318
898588
898856
899124
899386
899654
899926
900190
900450
900712
900978
901238
901502
901768
902038
902306
902572
902836
903102
903372
903640
903904
904166
904430
904698
904962
905228
905498
905772
906042
906308
906572
906838
907108
907378
907644
907908
908178
908448
908710
908972
909236
909502
909770
910032
910286
910554
910818
911078
911338
911596
911858
912122
912380
912636
912900
913172
913440
913702
913960
914220
914482
914740
915000
915260
915528
915796
916058
916320
916588
916854
917116
917376
917636
917906
918172
918426
918682
918940
919202
919462
919718
919978
920248
920516
920774
921030
921292
921554
921816
922074
922334
922598
922866
923130
923386
923652
923922
924186
924448
924708
924976
925246
925510
925766
926024
926292
926554
926816
927076
927340
927600
927858
928106
928362
928624
928888
929146
929404
929668
929936
930206
930472
930744
931016
931288
931554
931816
932082
932360
932636
932906
933174
933446
933716
933980
934240
934502
934774
935038
935298
935562
935824
936086
936350
936610
936870
937132
937392
937648
937906
938166
938434
938700
938962
939224
939492
939758
940022
940282
940546
940820
941088
941354
941618
941884
942154
942426
942690
942960
943234
943510
943778
944054
944330
944606
944872
945130
945390
945648
945908
946164
946420
946680
946942
947208
947468
947726
947984
948248
948506
948766
949028
949294
949566
949836
950098
950358
950624
950888
951148
951404
951658
951920
952182
952444
952702
952962
953232
953492
953748
954010
954280
954550
954818
955080
955346
955612
955874
956130
956394
956668
956938
957204
957464
957736
958006
958274
958538
958802
959068
959334
959594
959858
960122
960384
960644
960898
961158
961418
961680
961936
962192
962450
962714
962974
963226
963490
963760
964026
964290
964554
964824
965096
965362
965634
965904
966172
966442
966704
966964
967228
967494
967760
968022
968278
968540
968800
969058
969314
969570
969832
970090
970348
970604
970862
971124
971388
971650
971910
972174
972442
972708
972972
973238
973506
973780
974046
974308
974572
974836
975096
975354
975612
975872
976134
976390
976644
976900
977158
977416
977670
977928
978192
978458
978720
978980
979248
979520
979790
980050
980306
980572
980836
981096
981352
981612
981878
982146
982406
982662
982922
983184
983444
983702
983962
984226
984488
984744
984994
985258
985528
985800
986064
986326
986598
986872
987142
987406
987676
987942
988208
988470
988728
988992
989260
989522
989782
990040
990304
990572
990830
991088
991348
991614
991876
992134
992394
992648
992908
993164
993416
993674
993938
994198
994456
994708
994972
995238
995508
995776
996040
996306
996580
996846
997102
997368
997634
997898
998160
998422
998690
998962
999226
999478
999732
999998
1000262
1000524
1000784
1001048
1001312
1001574
1001830
1002082
1002346
1002608
1002862
1003112
1003368
1003632
1003896
1004152
1004410
1004672
1004944
1005204
1005460
1005724
1005992
1006260
1006516
1006772
1007034
1007300
1007558
1007814
1008068
1008332
1008598
1008862
1009120
1009378
1009642
1009902
1010156
1010414
1010678
1010946
1011210
1011468
1011732
1012002
1012270
1012526
1012784
1013050
1013312
1013576
1013832
1014092
1014346
1014600
1014848
1015098
1015356
1015616
1015872
1016126
1016384
1016642
1016902
1017156
1017410
1017670
1017930
1018186
1018438
1018700
1018958
1019224
1019482
1019738
1020002
1020256
1020518
1020770
1021026
1021292
1021552
1021808
1022064
1022324
1022586
1022846
1023102
1023356
1023612
1023864
1024122
1024378
1024632
1024894
1025162
1025430
1025700
1025972
1026242
1026510
1026776
1027042
1027304
1027568
1027830
1028094
1028362
1028630
1028902
1029166
1029428
1029690
1029956
1030220
1030480
1030744
1031014
1031282
1031546
1031808
1032074
1032338
1032600
1032860
1033126
1033396
1033664
1033928
1034194
1034462
1034726
1035002
1035266
1035528
1035796
1036062
1036322
1036580
1036844
1037110
1037374
1037632
1037900
1038174
1038440
1038702
1038966
1039240
1039506
1039770
1040036
1040304
1040578
1040850
1041116
1041392
1041676
1041956
1042232
1042510
1042792
1043080
1043360
1043632
1043898
1044170
1044440
1044704
1044964
1045228
1045500
1045760
1046022
1046286
1046556
1046824
1047084
1047344
1047610
1047880
1048144
1048406
1048674
1048950
1049220
1049490
1049762
1050036
1050308
1050576
1050840
1051112
1051386
1051658
1051926
1052200
1052476
1052748
1053014
1053280
1053550
1053818
1054082
1054342
1054608
1054876
1055146
1055410
1055680
1055954
1056222
1056488
1056750
1057016
1057284
1057548
1057812
1058076
1058340
1058606
1058868
1059130
1059398
1059668
1059938
1060206
1060476
1060746
1061018
1061286
1061546
1061816
1062084
1062346
1062610
1062878
1063148
1063416
1063680
1063944
1064210
1064474
1064734
1064992
1065254
1065518
1065780
1066038
1066304
1066568
1066834
1067100
1067366
1067634
1067902
1068170
1068436
1068696
1068960
1069230
1069494
1069756
1070028
1070296
1070566
1070830
1071102
1071368
1071632
1071898
1072160
1072430
1072700
1072968
1073232
1073500
1073774
1074042
1074308
1074578
1074852
1075126
1075394
1075658
1075926
1076192
1076458
1076718
1076978
1077238
1077502
1077760
1078012
1078268
1078532
1078798
1079060
1079318
1079584
1079860
1080126
1080388
1080654
1080926
1081198
1081464
1081726
1081990
1082258
1082522
1082782
1083048
1083316
1083588
1083852
1084110
1084376
1084644
1084906
1085156
1085410
1085668
1085926
1086178
1086426
1086680
1086938
1087198
1087454
1087710
1087970
1088238
1088506
1088768
1089038
1089298
1089564
1089822
1090078
1090336
1090600
1090868
1091126
1091384
1091642
1091908
1092170
1092426
1092682
1092946
1093212
1093470
1093724
1093980
1094240
1094510
1094778
1095038
1095308
1095574
1095844
1096108
1096368
1096630
1096902
1097172
1097432
1097686
1097950
1098218
1098482
1098748
1099012
1099276
1099544
1099804
1100058
1100318
1100586
1100854
1101122
1101386
1101652
1101932
1102194
1102458
1102724
1102994
1103266
1103532
1103794
1104058
1104332
1104594
1104852
1105110
1105370
1105632
1105892
1106150
1106402
1106662
1106926
1107186
1107440
1107700
1107968
1108236
1108502
1108764
1109032
1109302
1109572
1109834
1110094
1110360
1110620
1110884
1111142
1111398
1111658
1111928
1112190
1112450
1112718
1112986
1113256
1113528
1113792
1114058
1114330
1114596
1114854
1115116
1115380
1115642
1115902
1116158
1116422
1116692
1116954
1117212
1117472
1117744
1118016
1118288
1118554
1118824
1119096
1119364
1119624
1119878
1120142
1120406
1120662
1120918
1121180
1121448
1121718
1121978
1122234
1122492
1122756
1123020
1123284
1123544
1123810
1124078
1124336
1124594
1124856
1125128
1125390
1125654
1125910
1126172
1126438
1126700
1126958
1127212
1127470
1127734
1128000
1128256
1128520
1128790
1129062
1129328
1129592
1129862
1130132
1130402
1130664
1130926
1131194
1131462
1131724
1131978
1132234
1132500
1132752
1133002
1133258
1133514
1133778
1134036
1134292
1134552
1134816
1135080
1135342
1135600
1135864
1136130
1136392
1136652
1136914
1137180
1137448
1137714
1137974
1138242
1138510
1138774
1139032
1139294
1139568
1139834
1140092
1140346
1140608
1140870
1141132
1141386
1141644
1141902
1142166
1142426
1142684
1142948
1143214
1143480
1143740
1144006
1144266
1144528
1144788
1145044
1145310
1145576
1145836
1146096
1146356
1146616
1146876
1147132
1147388
1147646
1147908
1148166
1148428
1148692
1148960
1149226
1149490
1149754
1150016
1150284
1150550
1150818
1151078
1151342
1151608
1151874
1152138
1152394
1152656
1152922
1153182
1153446
1153714
1153984
1154254
1154518
1154782
1155048
1155310
1155570
1155824
1156076
1156334
1156594
1156854
1157110
1157366
1157628
1157890
1158152
1158418
1158678
1158942
1159200
1159460
1159718
1159974
1160240
1160502
1160766
1161028
1161290
1161562
1161822
1162078
1162336
1162594
1162848
1163100
1163356
1163608
1163870
1164126
1164382
1164646
1164908
1165168
1165430
1165690
1165954
1166218
1166480
1166742
1167002
1167262
1167530
1167792
1168052
1168314
1168576
1168834
1169088
1169342
1169600
1169860
1170124
1170384
1170646
1170904
1171168
1171426
1171682
1171938
1172202
1172460
1172714
1172972
1173234
1173500
1173764
1174026
1174292
1174562
1174830
1175092
1175356
1175620
1175886
1176152
1176412
1176676
1176936
1177204
1177464
1177722
1177984
1178242
1178504
1178764
1179020
1179280
1179538
1179796
1180050
1180308
1180566
1180828
1181086
1181346
1181602
1181864
1182132
1182390
1182650
1182914
1183182
1183448
1183708
1183966
1184230
1184496
1184760
1185020
1185284
1185550
1185816
1186084
1186340
1186596
1186860
1187116
1187370
1187624
1187882
1188144
1188404
1188662
1188922
1189182
1189440
1189700
1189960
1190218
1190480
1190738
1190990
1191248
1191506
1191762
1192022
1192282
1192544
1192808
1193074
1193336
1193596
1193862
1194130
1194398
1194662
1194926
1195198
1195464
1195730
1195990
1196246
1196504
1196760
1197016
1197270
1197530
1197790
1198046
1198298
1198550
1198804
1199064
1199330
1199590
1199852
1200116
1200384
1200650
1200906
1201166
1201430
1201694
1201952
1202204
1202464
1202718
1202976
1203226
1203482
1203738
1203992
1204244
1204494
1204746
1205004
1205266
1205528
1205784
1206044
1206310
1206580
1206844
1207100
1207368
1207638
1207906
1208162
1208416
1208670
1208928
1209192
1209452
1209712
1209974
1210236
1210494
1210756
1211014
1211282
1211546
1211806
1212064
1212332
1212602
1212876
1213138
1213396
1213658
1213922
1214182
1214442
1214702
1214960
1215218
1215478
1215732
1215984
1216240
1216500
1216750
1217002
1217264
1217526
1217786
1218042
1218300
1218564
1218826
1219084
1219338
1219592
1219850
1220108
1220364
1220618
1220878
1221144
1221402
1221660
1221924
1222196
1222464
1222724
1222986
1223254
1223526
1223788
1224052
1224326
1224602
1224874
1225136
1225404
1225668
1225930
1226186
1226438
1226690
1226952
1227220
1227480
1227736
1228002
1228266
1228532
1228792
1229056
1229330
1229604
1229872
1230138
1230410
1230680
1230944
1231202
1231462
1231728
1231994
1232252
1232506
1232762
1233022
1233284
1233536
1233788
1234046
1234310
1234566
1234814
1235068
1235326
1235588
1235846
1236098
1236356
1236616
1236876
1237130
1237380
1237638
1237896
1238154
1238406
1238662
1238930
1239202
1239464
1239720
1239986
1240254
1240518
1240774
1241032
1241292
1241554
1241812
1242060
1242316
1242574
1242834
1243090
1243342
1243598
1243856
1244122
1244380
1244638
1244902
1245162
1245422
1245676
1245936
1246202
1246470
1246738
1247008
1247284
1247554
1247822
1248090
1248360
1248626
1248888
1249144
1249398
1249652
1249904
1250152
1250400
1250658
1250914
1251168
1251420
1251682
1251946
1252204
1252464
1252716
1252982
1253248
1253514
1253776
1254042
1254304
1254562
1254818
1255068
1255326
1255584
1255844
1256098
1256356
1256620
1256884
1257140
1257394
1257648
1257904
1258154
1258400
1258650
1258908
1259166
1259422
1259676
1259930
1260192
1260450
1260706
1260954
1261210
1261472
1261724
1261972
1262228
1262490
1262752
1263010
1263270
1263538
1263810
1264074
1264330
1264592
1264860
1265124
1265386
1265640
1265894
1266154
1266412
1266660
1266914
1267170
1267424
1267674
1267918
1268174
1268434
1268698
1268958
1269218
1269482
1269748
1270006
1270264
1270526
1270784
1271040
1271296
1271548
1271802
1272058
1272314
1272564
1272820
1273082
1273344
1273606
1273862
1274124
1274386
1274644
1274902
1275164
1275436
1275700
1275962
1276222
1276482
1276742
1277008
1277268
1277526
1277782
1278042
1278302
1278566
1278824
1279086
1279356
1279620
1279880
1280142
1280410
1280676
1280938
1281194
1281450
1281710
1281970
1282226
1282490
1282760
1283030
1283304
1283572
1283846
1284118
1284390
1284662
1284934
1285212
1285482
1285754
1286022
1286294
1286570
1286846
1287120
1287394
1287668
1287944
1288214
1288482
1288756
1289028
1289296
1289556
1289820
1290084
1290352
1290618
1290880
1291142
1291408
1291672
1291934
1292198
1292466
1292738
1293012
1293286
1293560
1293834
1294108
1294380
1294658
1294934
1295208
1295478
1295750
1296024
1296302
1296558
1296806
1297044
1297276
1297496
1297720
1297936
1298154
1298366
1298578
1298784
1298994
1299204
1299416
1299628
1299842
1300060
1300282
1300512
1300746
1300988
1301236
1301490
1301760
1302042
1302324
1302614
1302900
1303190
1303452
1303710
1303966
1304214
1304468
1304718
1304964
1305212
1305476
1305748
1306026
1306318
1306622
1306926
1307232
1307544
1307858
1308160
1308458
1308756
1309062
1309362
1309658
1309950
1310248
1310548
1310840
1311106
1311368
1311636
1311908
1312180
1312464
1312754
1313036
1313318
1313586
1313854
1314120
1314394
1314678
1314978
1315280
1315588
1315896
1316208
1316516
1316830
1317144
1317460
1317774
1318086
1318390
1318694
1318994
1319296
1319594
1319890
1320186
1320472
1320756
1321042
1321324
1321602
1321880
1322148
1322416
1322694
1322976
1323256
1323546
1323834
1324122
1324416
1324714
1325014
1325306
1325600
1325896
1326190
1326474
1326762
1327048
1327336
1327624
1327910
1328196
1328480
1328760
1329034
1329312
1329600
1329886
1330168
1330450
1330736
1331022
1331300
1331582
1331866
1332148
1332434
1332708
1332986
1333268
1333548
1333822
1334104
1334390
1334676
1334960
1335242
1335526
1335814
1336094
1336372
1336644
1336912
1337190
1337466
1337732
1338008
1338284
1338554
1338818
1339094
1339376
1339656
1339936
1340222
1340518
1340814
1341108
1341400
1341696
1341990
1342284
1342566
1342850
1343138
1343426
1343712
1343982
1344234
1344484
1344734
1344982
1345230
1345478
1345724
1345978
1346244
1346516
1346800
1347082
1347356
1347620
1347874
1348128
1348404
1348696
1348992
1349296
1349604
1349914
1350218
1350518
1350822
1351134
1351440
1351738
1352042
1352344
1352646
1352942
1353228
1353524
1353818
1354112
1354404
1354690
1354978
1355260
1355540
1355828
1356122
1356412
1356704
1357000
1357298
1357592
1357878
1358152
1358432
1358718
1358988
1359256
1359540
1359824
1360104
1360386
1360680
1360984
1361282
1361572
1361878
1362180
1362480
1362768
1363060
1363356
1363650
1363936
1364230
1364534
1364838
1365138
1365434
1365728
1366022
1366310
1366594
1366868
1367132
1367386
1367640
1367894
1368150
1368402
1368650
1368896
1369148
1369406
1369662
1369940
1370242
1370546
1370846
1371154
1371466
1371780
1372092
1372402
1372712
1373014
1373316
1373612
1373908
1374208
1374500
1374792
1375086
1375380
1375672
1375968
1376264
1376580
1376896
1377204
1377506
1377804
1378096
1378382
1378662
1378942
1379218
1379490
1379772
1380056
1380334
1380614
1380892
1381178
1381464
1381746
1382030
1382318
1382600
1382878
1383164
1383452
1383736
1384022
1384304
1384596
1384880
1385160
1385438
1385716
1385994
1386270
1386554
1386840
1387132
1387426
1387720
1388020
1388312
1388602
1388892
1389172
1389444
1389716
1389988
1390256
1390526
1390794
1391066
1391346
1391614
1391880
1392150
1392416
1392682
1392954
1393224
1393494
1393774
1394050
1394330
1394622
1394900
1395182
1395470
1395748
1396024
1396306
1396578
1396842
1397106
1397370
1397634
1397898
1398154
1398406
1398668
1398926
1399180
1399430
1399688
1399940
1400190
1400432
1400674
1400916
1401170
1401422
1401682
1401948
1402216
1402482
1402754
1403028
1403302
1403582
1403856
1404124
1404402
1404688
1404974
1405246
1405528
1405822
1406126
1406424
1406712
1407006
1407298
1407588
1407870
1408148
1408428
1408708
1408976
1409246
1409526
1409808
1410094
1410378
1410668
1410966
1411260
1411544
1411822
1412096
1412370
1412638
1412902
1413168
1413440
1413710
1413960
1414208
1414450
1414678
1414906
1415136
1415354
1415580
1415798
1416016
1416232
1416444
1416658
1416870
1417078
1417288
1417500
1417706
1417912
1418118
1418328
1418536
1418750
1418972
1419200
1419440
1419694
1419960
1420238
1420510
1420792
1421066
1421346
1421628
1421908
1422190
1422474
1422758
1423044
1423330
1423616
1423902
1424182
1424462
1424748
1425040
1425314
1425594
1425870
1426126
1426402
1426670
1426924
1427180
1427434
1427690
1427954
1428214
1428464
1428726
1428990
1429242
1429502
1429750
1429992
1430238
1430492
1430738
1430990
1431256
1431532
1431820
1432114
1432410
1432726
1433054
1433382
1433690
1434010
1434336
1434654
1434964
1435268
1435582
1435878
1436176
1436486
1436792
1437082
1437370
1437646
1437924
1438188
1438446
1438698
1438942
1439180
1439428
1439680
1439924
1440170
1440416
1440654
1440888
1441126
1441364
1441594
1441832
1442086
1442352
1442622
1442908
1443192
1443486
1443770
1444062
1444358
1444664
1444970
1445274
1445576
1445882
1446182
1446482
1446778
1447080
1447386
1447672
1447958
1448258
1448546
1448836
1449126
1449410
1449696
1450000
1450306
1450612
1450914
1451210
1451508
1451792
1452074
1452360
1452650
1452934
1453214
1453494
1453782
1454068
1454354
1454632
1454904
1455180
1455454
1455724
1455996
1456250
1456494
1456738
1456972
1457202
1457436
1457674
1457908
1458144
1458384
1458620
1458854
1459092
1459332
1459582
1459836
1460104
1460380
1460672
1460968
1461254
1461552
1461860
1462162
1462466
1462758
1463048
1463332
1463614
1463908
1464200
1464492
1464790
1465086
1465382
1465678
1465970
1466256
1466554
1466852
1467152
1467452
1467756
1468060
1468368
1468668
1468962
1469262
1469554
1469836
1470108
1470374
1470646
1470916
1471188
1471458
1471726
1471994
1472270
1472544
1472820
1473102
1473388
1473678
1473970
1474274
1474594
1474912
1475222
1475538
1475836
1476130
1476428
1476710
1476986
1477268
1477546
1477818
1478076
1478338
1478610
1478886
1479152
1479420
1479698
1479968
1480236
1480516
1480786
1481052
1481316
1481586
1481854
1482122
1482386
1482656
1482926
1483190
1483450
1483714
1483974
1484230
1484486
1484744
1485008
1485284
1485564
1485842
1486120
1486408
1486698
1486992
1487278
1487558
1487840
1488120
1488386
1488642
1488890
1489130
1489364
1489598
1489830
1490064
1490298
1490534
1490772
1491014
1491256
1491502
1491760
1492030
1492300
1492574
1492844
1493108
1493370
1493640
1493914
1494186
1494460
1494732
1495012
1495290
1495564
1495842
1496122
1496410
1496702
1496990
1497276
1497558
1497838
1498108
1498374
1498634
1498892
1499148
1499396
1499638
1499878
1500114
1500346
1500580
1500806
1501028
1501246
1501458
1501670
1501878
1502082
1502280
1502482
1502682
1502884
1503086
1503294
1503508
1503720
1503938
1504166
1504394
1504628
1504860
1505098
1505340
1505590
1505850
1506114
1506386
1506668
1506948
1507222
1507497
1507764
1508028
1508288
1508542
1508800
1509062
1509330
1509596
1509868
1510134
1510408
1510676
1510956
1511224
1511494
1511758
1512032
1512312
1512590
1512862
1513134
1513410
1513678
1513950
1514230
1514516
1514802
1515078
1515352
1515618
1515878
1516124
1516364
1516600
1516832
1517066
1517298
1517526
1517750
1517984
1518240
1518500
1518770
1519056
1519338
1519620
1519914
1520216
1520520
1520810
1521094
1521388
1521678
1521968
1522244
1522518
1522800
1523080
1523354
1523626
1523904
1524190
1524468
1524744
1525020
1525304
1525582
1525852
1526128
1526418
1526700
1526972
1527258
1527542
1527822
1528102
1528388
1528672
1528952
1529234
1529508
1529794
1530072
1530344
1530622
1530902
1531190
1531476
1531760
1532060
1532356
1532654
1532946
1533234
1533532
1533832
1534126
1534426
1534730
1535022
1535314
1535606
1535896
1536188
1536476
1536772
1537082
1537392
1537698
1538010
1538312
1538608
1538902
1539194
1539486
1539784
1540094
1540404
1540704
1541012
1541314
1541614
1541904
1542192
1542484
1542776
1543064
1543354
1543650
1543940
1544224
1544510
1544804
1545104
1545402
1545702
1546018
1546332
1546638
1546946
1547252
1547548
1547848
1548146
1548456
1548752
1549052
1549360
1549680
1549988
1550290
1550590
1550886
1551180
1551478
1551780
1552072
1552370
1552674
1552988
1553296
1553610
1553916
1554222
1554522
1554836
1555144
1555450
1555760
1556062
1556360
1556650
1556930
1557210
1557494
1557780
1558068
1558362
1558654
1558948
1559244
1559538
1559838
1560136
1560422
1560714
1561006
1561300
1561592
1561886
1562186
1562488
1562782
1563082
1563376
1563662
1563944
1564226
1564506
1564788
1565070
1565352
1565632
1565910
1566192
1566470
1566752
1567036
1567330
1567622
1567916
1568216
1568524
1568828
1569126
1569420
1569712
1569992
1570278
1570564
1570844
1571116
1571380
1571636
1571884
1572138
1572400
1572676
1572956
1573232
1573518
1573810
1574106
1574406
1574706
1575008
1575316
1575622
1575926
1576236
1576548
1576848
1577146
1577446
1577738
1578026
1578320
1578616
1578906
1579200
1579502
1579784
1580070
1580360
1580654
1580952
1581246
1581540
1581844
1582148
1582448
1582752
1583050
1583346
1583640
1583926
1584216
1584514
1584808
1585112
1585410
1585706
1586010
1586306
1586602
1586900
1587198
1587490
1587778
1588064
1588348
1588634
1588916
1589194
1589472
1589744
1590024
1590306
1590588
1590868
1591150
1591422
1591684
1591950
1592220
1592486
1592750
1593012
1593282
1593554
1593832
1594122
1594408
1594700
1595000
1595300
1595592
1595892
1596194
1596484
1596778
1597076
1597370
1597662
1597958
1598256
1598546
1598836
1599128
1599426
1599730
1600028
1600322
1600610
1600900
1601188
1601476
1601770
1602068
1602360
1602650
1602944
1603244
1603548
1603850
1604146
1604440
1604730
1605018
1605308
1605598
1605884
1606172
1606458
1606742
1607024
1607310
1607598
1607884
1608166
1608454
1608740
1609028
1609310
1609594
1609884
1610170
1610448
1610728
1611006
1611286
1611562
1611834
1612108
1612386
1612658
1612928
1613202
1613478
1613750
1614022
1614300
1614584
1614876
1615168
1615458
1615752
1616040
1616326
1616608
1616888
1617166
1617440
1617710
1617982
1618256
1618530
1618798
1619076
1619356
1619644
1619928
1620208
1620492
1620772
1621050
1621328
1621604
1621878
1622150
1622426
1622704
1622982
1623254
1623534
1623814
1624100
1624386
1624664
1624948
1625240
1625532
1625828
1626116
1626416
1626708
1626996
1627284
1627568
1627848
1628124
1628404
1628684
1628966
1629246
1629528
1629806
1630082
1630356
1630636
1630912
1631194
1631474
1631758
1632036
1632316
1632594
1632866
1633148
1633428
1633702
1633978
1634252
1634530
1634808
1635088
1635374
1635658
1635942
1636226
1636510
1636796
1637082
1637368
1637654
1637940
1638224
1638500
1638768
1639036
1639302
1639566
1639832
1640102
1640372
1640646
1640916
1641186
1641464
1641746
1642028
1642314
1642608
1642904
1643194
1643484
1643782
1644076
1644374
1644666
1644958
1645250
1645540
1645824
1646108
1646396
1646686
1646974
1647266
1647564
1647856
1648144
1648434
1648732
1649028
1649314
1649604
1649894
1650178
1650460
1650746
1651030
1651312
1651596
1651878
1652152
1652414
1652664
1652912
1653148
1653378
1653604
1653828
1654048
1654264
1654478
1654688
1654902
1655114
1655328
1655544
1655764
1655990
1656218
1656456
1656696
1656936
1657176
1657422
1657678
1657942
1658210
1658484
1658762
1659044
1659332
1659616
1659896
1660182
1660468
1660744
1661004
1661266
1661524
1661768
1662010
1662246
1662478
1662706
1662942
1663190
1663444
1663700
1663968
1664240
1664530
1664824
1665110
1665406
1665706
1666010
1666316
1666622
1666934
1667244
1667552
1667850
1668152
1668448
1668744
1669038
1669338
1669636
1669934
1670232
1670520
1670812
1671100
1671390
1671680
1671962
1672242
1672520
1672800
1673078
1673350
1673624
1673900
1674178
1674456
1674728
1674998
1675274
1675542
1675808
1676066
1676322
1676590
1676854
1677120
1677378
1677644
1677926
1678208
1678492
1678772
1679060
1679360
1679668
1679976
1680274
1680572
1680864
1681148
1681436
1681726
1682018
1682302
1682578
1682856
1683132
1683416
1683698
1683972
1684254
1684540
1684832
1685128
1685418
1685712
1686008
1686298
1686578
1686858
1687134
1687416
1687694
1687970
1688248
1688524
1688792
1689054
1689316
1689586
1689856
1690122
1690388
1690658
1690932
1691200
1691470
1691740
1692014
1692298
1692592
1692882
1693174
1693466
1693748
1694022
1694298
1694578
1694846
1695112
1695384
1695668
1695950
1696226
1696500
1696778
1697064
1697348
1697632
1697912
1698200
1698486
1698768
1699046
1699330
1699622
1699916
1700202
1700486
1700770
1701062
1701358
1701648
1701944
1702244
1702538
1702820
1703108
1703394
1703670
1703944
1704220
1704500
1704778
1705052
1705326
1705604
1705886
1706158
1706424
1706698
1706972
1707236
1707498
1707758
1708024
1708290
1708554
1708814
1709074
1709338
1709606
1709872
1710136
1710406
1710684
1710964
1711232
1711490
1711740
1711986
1712226
1712472
1712728
1712990
1713254
1713536
1713832
1714126
1714420
1714716
1715016
1715314
1715614
1715904
1716196
1716492
1716794
1717090
1717384
1717682
1717986
1718278
1718570
1718862
1719146
1719428
1719706
1719982
1720258
1720538
1720808
1721074
1721340
1721610
1721888
1722162
1722436
1722718
1723000
1723286
1723572
1723850
1724136
1724420
1724700
1724972
1725252
1725540
1725834
1726124
1726416
1726718
1727026
1727324
1727620
1727920
1728212
1728502
1728794
1729092
1729396
1729692
1730000
1730310
1730618
1730922
1731232
1731532
1731826
1732122
1732420
1732716
1733004
1733288
1733574
1733862
1734152
1734434
1734718
1735012
1735306
1735594
1735882
1736172
1736462
1736752
1737040
1737330
1737620
1737900
1738180
1738462
1738740
1739018
1739290
1739566
1739840
1740118
1740382
1740640
1740898
1741170
1741440
1741708
1741984
1742266
1742550
1742834
1743114
1743404
1743694
1743988
1744272
1744552
1744844
1745142
1745434
1745724
1746014
1746312
1746612
1746912
1747210
1747520
1747830
1748140
1748452
1748766
1749072
1749368
1749668
1749966
1750262
1750550
1750834
1751122
1751414
1751702
1751992
1752272
1752558
1752844
1753132
1753414
1753704
1753998
1754290
1754580
1754864
1755156
1755444
1755730
1756010
1756298
1756596
1756902
1757208
1757526
1757836
1758138
1758438
1758740
1759030
1759320
1759610
1759902
1760188
1760468
1760748
1761032
1761318
1761604
1761888
1762174
1762460
1762746
1763036
1763328
1763624
1763914
1764200
1764482
1764766
1765052
1765338
1765624
1765910
1766208
1766516
1766816
1767126
1767438
1767746
1768048
1768356
1768658
1768952
1769246
1769540
1769830
1770116
1770410
1770702
1770994
1771288
1771586
1771886
1772184
1772486
1772788
1773086
1773378
1773666
1773956
1774242
1774520
1774794
1775072
1775350
1775628
1775906
1776188
1776468
1776750
1777028
1777308
1777588
1777868
1778146
1778426
1778708
1778990
1779270
1779548
1779812
1780078
1780352
1780626
1780900
1781174
1781456
1781742
1782028
1782316
1782602
1782888
1783176
1783468
1783762
1784054
1784352
1784656
1784960
1785260
1785556
1785848
1786140
1786436
1786732
1787020
1787308
1787598
1787886
1788172
1788456
1788740
1789034
1789324
1789616
1789904
1790194
1790480
1790762
1791042
1791324
1791608
1791884
1792154
1792426
1792700
1792970
1793234
1793498
1793762
1794024
1794284
1794546
1794810
1795078
1795344
1795616
1795886
1796170
1796456
1796744
1797024
1797304
1797586
1797870
1798154
1798448
1798742
1799028
1799302
1799576
1799847
