peaks
157
326
492
660
829
998
1166
1333
1499
1663
1828
1992
2159
2323
2485
2651
2819
2987
3154
3322
3489
3656
3825
3990
4158
4324
4487
4656
4829
4992
5163
5329
5496
5663
5827
5992
6159
6326
6488
6650
6812
6974
7141
7303
7471
7637
7806
7974
8137
8309
8480
8645
8814
8981
9147
9314
9476
9640
9804
9968
10127
10289
10449
10610
10772
10936
11105
11267
11432
11600
11768
11941
12110
12279
12448
12620
12795
12964
13131
13303
13464
13628
13788
13946
14109
14274
14431
14598
14764
14933
15103
15277
15454
15629
15800
15977
16150
16322
16496
16668
16842
17013
17181
17352
17522
17688
17851
18014
18172
18332
18484
18645
18798
18955
19116
19275
19440
19601
19765
19928
20092
20256
20421
20581
20749
20913
21075
21236
21398
21558
21721
21884
22044
22205
22364
22520
22669
22823
22977
23131
23287
23446
23609
23772
23940
24102
24265
24428
24596
24764
24932
25096
25261
25418
25584
25750
25912
26073
26235
26399
26564
26736
26907
27077
27247
27415
27582
27748
27916
28079
28242
28407
28576
28741
28901
29062
29227
29390
29554
29717
29872
30027
30189
30347
30506
30671
30837
31002
31166
31327
31495
31664
31828
31994
32161
32329
32495
32662
32822
32987
33148
33315
33474
33637
33797
33961
34124
34289
34450
34614
34778
34946
35108
35271
35434
35597
35760
35922
36084
36247
36413
36574
36743
36912
37080
37246
37413
37576
37741
37912
38075
38237
38398
38559
38721
38882
39041
39206
39366
39526
39689
39849
40011
40172
40334
40497
40662
40823
40987
41147
41309
41473
41640
41811
41974
42142
42306
42466
42627
42790
42956
43120
43279
43439
43604
43765
43928
44088
44248
44409
44573
44739
44906
45070
45234
45398
45564
45728
45891
46055
46219
46382
46544
46711
46871
47031
47193
47355
47513
47673
47834
47997
48157
48315
48480
48636
48797
48960
49119
49284
49447
49610
49774
49934
50098
50261
50424
50588
50751
50912
51073
51237
51402
51574
51733
51901
52075
52240
52400
52554
52706
52859
53007
53158
53304
53451
53595
53735
53879
54021
54162
54303
54444
54588
54740
54890
55034
55181
55350
55504
55662
55818
55981
56138
56302
56461
56619
56778
56939
57097
57257
57414
57575
57736
57897
58062
58223
58382
58541
58700
58857
59015
59172
59329
59483
59639
59794
59950
60105
60257
60405
60553
60702
60852
61003
61155
61312
61478
61640
61808
61978
62146
62314
62478
62642
62808
62976
63140
63306
63470
63630
63792
63954
64114
64274
64434
64594
64748
64902
65058
65212
65374
65540
65710
65878
66044
66214
66384
66554
66726
66902
67074
67246
67414
67584
67754
67920
68090
68262
68430
68602
68772
68944
69104
69260
69418
69578
69740
69906
70074
70244
70410
70578
70744
70908
71072
71240
71404
71574
71742
71916
72094
72272
72450
72626
72800
72972
73152
73334
73514
73690
73862
74032
74198
74362
74526
74684
74844
75004
75160
75316
75470
75628
75794
75960
76126
76290
76454
76620
76792
76962
77136
77312
77486
77672
77854
78034
78214
78390
78562
78738
78916
79094
79274
79452
79632
79808
79988
80168
80348
80528
80704
80866
81026
81188
81350
81504
81662
81818
81976
82130
82280
82432
82580
82728
82880
83034
83192
83352
83518
83688
83864
84042
84222
84398
84572
84742
84914
85090
85268
85452
85634
85814
85992
86168
86342
86514
86688
86860
87030
87198
87372
87544
87720
87898
88076
88252
88426
88598
88770
88946
89118
89294
89466
89642
89814
89988
90160
90334
90512
90690
90872
91050
91230
91410
91588
91762
91936
92110
92280
92454
92628
92802
92974
93150
93320
93494
93664
93838
94010
94182
94350
94514
94676
94838
94998
95160
95324
95490
95660
95832
96008
96184
96366
96544
96724
96906
97088
97270
97456
97642
97824
97998
98174
98346
98522
98694
98872
99048
99222
99392
99560
99728
99896
100066
100244
100420
100592
100766
100936
101104
101276
101450
101622
101794
101966
102134
102306
102482
102652
102822
102992
103162
103328
103498
103668
103836
104008
104174
104340
104508
104676
104846
105016
105184
105354
105520
105686
105852
106020
106194
106366
106534
106708
106882
107056
107232
107406
107586
107766
107948
108134
108320
108506
108694
108882
109070
109248
109420
109586
109758
109928
110096
110266
110436
110606
110774
110942
111108
111274
111440
111606
111766
111928
112084
112234
112382
112536
112690
112846
113008
113170
113336
113506
113676
113846
114018
114190
114360
114530
114700
114870
115042
115214
115386
115562
115742
115926
116110
116296
116484
116668
116850
117026
117206
117382
117558
117730
117906
118084
118260
118440
118618
118798
118974
119148
119324
119496
119666
119838
120008
120176
120348
120520
120690
120864
121034
121202
121368
121534
121698
121864
122034
122202
122374
122544
122716
122888
123060
123230
123402
123574
123740
123908
124074
124238
124404
124570
124740
124906
125072
125242
125408
125576
125744
125914
126082
126248
126414
126580
126746
126912
127076
127246
127414
127582
127748
127914
128084
128250
128418
128590
128762
128936
129112
129288
129462
129632
129800
129968
130132
130302
130474
130650
130828
131010
131186
131364
131542
131716
131892
132062
132232
132398
132566
132732
132898
133058
133212
133370
133530
133692
133856
134022
134186
134352
134518
134686
134854
135022
135188
135352
135518
135682
135850
136018
136188
136358
136528
136704
136880
137058
137230
137402
137570
137738
137906
138076
138252
138428
138604
138784
138964
139142
139318
139496
139674
139854
140032
140206
140378
140552
140722
140890
141058
141222
141386
141550
141718
141886
142056
142222
142390
142560
142728
142894
143062
143232
143398
143562
143730
143896
144062
144226
144390
144556
144720
144890
145060
145230
145402
145582
145758
145932
146102
146274
146442
146610
146778
146946
147116
147286
147460
147634
147810
147988
148166
148346
148526
148706
148888
149064
149240
149416
149590
149762
149938
150112
150288
150462
150638
150810
150982
151148
151312
151480
151644
151812
151978
152146
152312
152476
152640
152804
152968
153136
153300
153462
153628
153794
153962
154130
154300
154470
154638
154808
154978
155148
155320
155494
155668
155838
156010
156182
156352
156520
156690
156858
157022
157196
157376
157558
157730
157900
158068
158230
158394
158552
158710
158862
159014
159170
159326
159486
159648
159810
159976
160144
160314
160482
160648
160810
160974
161138
161304
161472
161636
161802
161968
162136
162308
162478
162652
162828
163002
163176
163342
163506
163684
163856
164030
164212
164388
164566
164740
164920
165098
165270
165438
165604
165764
165926
166086
166246
166406
166568
166730
166890
167052
167214
167376
167538
167700
167862
168024
168184
168348
168510
168674
168834
168996
169160
169328
169496
169668
169842
170016
170192
170366
170538
170706
170876
171046
171216
171386
171562
171738
171910
172082
172256
172428
172600
172772
172940
173110
173278
173448
173616
173788
173962
174138
174314
174484
174656
174824
174994
175166
175342
175514
175684
175858
176032
176202
176374
176544
176712
176884
177054
177228
177400
177578
177756
177932
178106
178278
178452
178628
178798
178974
179146
179320
179496
179670
179844
180018
180190
180360
180530
180700
180870
181040
181210
181382
181552
181720
181892
182062
182236
182412
182584
182758
182932
183100
183282
183466
183646
183822
183994
184160
184322
184480
184640
184798
184962
185128
185298
185470
185646
185822
186000
186182
186370
186554
186736
186912
187090
187264
187436
187612
187782
187956
188124
188292
188466
188638
188814
188988
189160
189330
189498
189666
189832
189998
190164
190328
190486
190638
190792
190950
191110
191272
191436
191602
191774
191948
192120
192292
192462
192628
192794
192960
193126
193292
193458
193624
193792
193962
194132
194304
194476
194648
194822
194992
195166
195336
195506
195676
195846
196016
196186
196356
196524
196690
196858
197026
197196
197368
197542
197714
197882
198050
198220
198390
198560
198728
198898
199066
199234
199400
199568
199734
199898
200064
200226
200390
200554
200718
200882
201050
201214
201380
201544
201708
201874
202038
202206
202374
202544
202714
202882
203056
203224
203392
203556
203722
203882
204042
204202
204362
204524
204686
204848
205006
205168
205332
205494
205660
205824
205990
206158
206322
206488
206652
206816
206978
207144
207310
207480
207650
207824
207996
208164
208334
208500
208666
208834
209000
209166
209332
209502
209672
209842
210012
210178
210346
210518
210688
210860
211034
211208
211382
211556
211730
211900
212074
212246
212420
212588
212758
212930
213100
213272
213440
213610
213778
213946
214116
214284
214452
214624
214790
214964
215134
215304
215478
215654
215832
216012
216194
216376
216556
216738
216916
217096
217276
217460
217642
217822
218000
218176
218356
218534
218714
218890
219072
219254
219434
219610
219784
219954
220126
220294
220464
220636
220806
220976
221148
221318
221488
221660
221828
222000
222170
222336
222504
222670
222842
223008
223174
223342
223514
223686
223860
224038
224216
224394
224570
224746
224922
225096
225268
225440
225614
225788
225964
226138
226308
226480
226650
226822
226992
227158
227326
227492
227656
227820
227980
228140
228298
228456
228614
228774
228934
229098
229264
229432
229598
229766
229932
230098
230264
230432
230602
230770
230938
231102
231266
231430
231598
231774
231950
232130
232308
232488
232672
232852
233032
233208
233384
233556
233730
233902
234072
234246
234416
234584
234752
234920
235090
235256
235422
235590
235760
235926
236090
236256
236424
236590
236758
236924
237090
237254
237420
237584
237748
237916
238080
238236
238388
238536
238682
238826
238968
239112
239254
239396
239534
239674
239816
239958
240100
240242
240390
240536
240680
240824
240966
241110
241254
241396
241536
241674
241810
241944
242080
242216
242350
242488
242620
242758
242896
243034
243172
243308
243448
243590
243732
243880
244024
244170
244314
244458
244602
244742
244886
245028
245170
245312
245452
245592
245736
245880
246024
246168
246314
246460
246600
246748
246890
247030
247172
247320
247464
247608
247758
247910
248062
248214
248362
248508
248654
248796
248940
249080
249220
249358
249498
249638
249780
249924
250068
250212
250352
250494
250636
250778
250918
251060
251200
251342
251484
251630
251776
251924
252074
252224
252374
252520
252666
252808
252952
253092
253234
253374
253518
253660
253810
253964
254122
254284
254436
254590
254744
254900
255058
255214
255368
255518
255670
255824
255980
256138
256294
256452
256612
256770
256928
257082
257230
257376
257518
257660
257806
257940
258080
258226
258376
258538
258702
258888
259066
259242
259414
259594
259768
259954
260144
260324
260498
260674
260850
261026
261204
261378
261544
261712
261870
262026
262184
262342
262504
262672
262828
262982
263138
263298
263466
263640
263814
263994
264170
264342
264510
264672
264832
264992
265156
265316
265482
265644
265808
265970
266134
266300
266472
266648
266820
266994
267176
267358
267538
267708
267880
268050
268218
268388
268560
268732
268906
269084
269262
269436
269614
269794
269976
270160
270340
270518
270692
270866
271044
271222
271396
271568
271734
271906
272076
272244
272418
272592
272768
272942
273116
273288
273458
273628
273796
273964
274130
274294
274458
274624
274796
274966
275134
275298
275460
275620
275782
275942
276104
276264
276428
276592
276756
276926
277108
277290
277466
277644
277818
277982
278140
278298
278458
278618
278782
278950
279116
279280
279442
279606
279768
279930
280090
280256
280420
280588
280756
280926
281096
281270
281442
281612
281786
281970
282156
282340
282514
282686
282860
283030
283198
283356
283514
283666
283818
283974
284130
284286
284442
284608
284768
284934
285094
285252
285404
285558
285710
285860
286006
286152
286300
286448
286598
286754
286914
287074
287234
287396
287554
287710
287864
288020
288180
288340
288502
288664
288822
288978
289134
289288
289444
289604
289766
289926
290088
290242
290394
290546
290694
290844
290996
291150
291304
291456
291608
291758
291908
292056
292206
292358
292510
292670
292834
293002
293164
293320
293476
293630
293786
293938
294092
294246
294404
294558
294718
294878
295040
295202
295372
295548
295730
295920
296100
296274
296444
296608
296768
296926
297084
297246
297410
297576
297740
297902
298066
298228
298394
298558
298722
298884
299044
299210
299394
299580
299766
299944
300118
300288
300452
300616
300778
300938
301102
301270
301444
301618
301794
301980
302168
302346
302528
302706
302884
303064
303238
303410
303580
303750
303914
304080
304242
304412
304580
304736
304896
305060
305228
305406
305588
305772
305960
306140
306324
306502
306684
306864
307042
307216
307382
307544
307708
307872
308042
308210
308378
308548
308724
308906
309088
309274
309452
309628
309800
309968
310138
310308
310484
310662
310842
311022
311200
311376
311554
311736
311916
312094
312274
312454
312632
312806
312980
313154
313330
313506
313686
313864
314038
314212
314384
314556
314728
314898
315068
315242
315412
315580
315750
315918
316084
316244
316408
316572
316734
316896
317056
317216
317374
317540
317702
317870
318042
318214
318390
318564
318744
318924
319108
319290
319466
319642
319806
319966
320124
320284
320448
320612
320780
320950
321120
321288
321460
321634
321804
321970
322134
322298
322458
322618
322784
322948
323112
323282
323452
323624
323792
323966
324138
324308
324478
324648
324818
324986
325154
325324
325494
325668
325842
326020
326194
326364
326536
326706
326874
327042
327206
327372
327542
327714
327890
328064
328240
328418
328594
328772
328948
329118
329286
329454
329628
329802
329972
330138
330304
330464
330626
330784
330940
331100
331260
331428
331602
331774
331948
332130
332310
332486
332664
332836
333008
333178
333350
333520
333690
333862
334034
334206
334376
334544
334710
334874
335040
335206
335374
335538
335708
335880
336052
336218
336382
336538
336692
336848
337006
337166
337330
337496
337664
337828
337992
338152
338310
338464
338614
338768
338916
339064
339218
339374
339528
339686
339844
340004
340164
340322
340480
340634
340790
340942
341094
341248
341408
341568
341734
341904
342074
342238
342404
342568
342734
342900
343066
343240
343414
343588
343758
343926
344090
344248
344406
344562
344720
344882
345046
345214
345384
345558
345726
345892
346052
346212
346372
346536
346698
346860
347028
347192
347348
347506
347662
347818
347980
348144
348312
348478
348646
348810
348972
349132
349284
349440
349594
349752
349910
350070
350230
350390
350544
350700
350858
351024
351194
351366
351538
351708
351872
352032
352192
352354
352518
352682
352846
353008
353168
353326
353482
353638
353792
353944
354094
354246
354396
354548
354700
354850
355004
355160
355322
355488
355660
355838
356016
356192
356366
356544
356722
356904
357092
357282
357466
357648
357822
357996
358170
358344
358514
358678
358836
358994
359152
359308
359464
359624
359784
359950
360118
360286
360446
360604
360756
360912
361064
361216
361370
361522
361678
361830
361980
362134
362286
362440
362598
362756
362914
363072
363228
363386
363546
363704
363862
364022
364182
364348
364510
364672
364836
364996
365156
365316
365476
365638
365798
365958
366116
366274
366432
366590
366748
366904
367058
367212
367366
367520
367676
367832
367988
368144
368302
368460
368618
368778
368940
369100
369262
369424
369586
369744
369906
370066
370228
370384
370544
370702
370862
371018
371180
371338
371498
371656
371812
371968
372118
372266
372412
372560
372712
372862
373020
373178
373336
373494
373652
373812
373972
374132
374288
374446
374604
374760
374918
375080
375236
375398
375556
375718
375878
376032
376192
376350
376512
376676
376838
377002
377164
377326
377484
377634
377784
377932
378084
378232
378378
378520
378662
378804
378946
379092
379242
379394
379554
379718
379882
380046
380210
380376
380548
380720
380886
381056
381218
381376
381532
381688
381844
381998
382154
382314
382474
382638
382806
382972
383146
383320
383492
383664
383836
384004
384178
384348
384530
384710
384882
385048
385208
385366
385526
385684
385844
386006
386170
386340
386510
386684
386858
387028
387198
387366
387536
387708
387880
388048
388204
388360
388518
388680
388842
389006
389166
389328
389488
389644
389806
389968
390134
390304
390470
390630
390792
390944
391098
391252
391404
391552
391702
391848
391992
392138
392286
392438
392592
392748
392908
393064
393220
393380
393544
393698
393858
394018
394170
394320
394474
394628
394788
394954
395118
395284
395450
395614
395780
395950
396118
396292
396468
396642
396816
396990
397160
397332
397502
397672
397840
398006
398172
398336
398500
398664
398828
398996
399170
399342
399510
399676
399838
400000
400160
400320
400476
400636
400796
400962
401128
401294
401464
401634
401798
401960
402116
402270
402424
402572
402724
402876
403024
403172
403328
403484
403640
403800
403960
404126
404296
404470
404640
404810
404982
405160
405332
405508
405684
405862
406044
406220
406394
406564
406728
406888
407046
407202
407358
407518
407678
407840
407998
408158
408318
408480
408638
408794
408946
409096
409244
409394
409544
409694
409848
410008
410172
410344
410522
410708
410900
411090
411280
411464
411646
411828
412006
412182
412356
412532
412704
412874
413042
413206
413370
413530
413682
413834
413986
414138
414292
414448
414606
414768
414930
415090
415244
415402
415562
415728
415892
416054
416214
416368
416520
416668
416816
416962
417104
417246
417390
417532
417674
417822
417986
418160
418340
418524
418704
418878
419050
419220
419384
419546
419704
419858
420016
420174
420338
420502
420666
420832
420996
421158
421326
421496
421670
421840
422006
422166
422326
422484
422640
422800
422960
423120
423288
423468
423654
423840
424028
424208
424390
424570
424748
424926
425100
425276
425448
425614
425774
425938
426100
426260
426422
426582
426736
426890
427042
427194
427342
427490
427640
427800
427974
428158
428352
428534
428708
428882
429052
429222
429388
429552
429714
429874
430026
430178
430330
430482
430634
430788
430944
431098
431250
431404
431560
431714
431872
432026
432182
432340
432500
432662
432824
432990
433158
433328
433498
433666
433832
434002
434170
434334
434496
434658
434814
434970
435126
435284
435442
435598
435758
435916
436074
436232
436390
436546
436698
436852
437010
437168
437328
437492
437660
437826
437992
438154
438316
438474
438630
438786
438942
439098
439256
439414
439570
439726
439878
440030
440188
440346
440504
440666
440826
440984
441140
441300
441464
441628
441792
441958
442120
442278
442434
442590
442748
442912
443078
443246
443416
443588
443764
443938
444106
444272
444440
444604
444766
444926
445084
445240
445396
445554
445714
445876
446040
446208
446382
446556
446734
446912
447100
447286
447470
447648
447824
447998
448170
448338
448504
448670
448832
448998
449166
449330
449498
449660
449822
449982
450140
450296
450456
450618
450780
450942
451104
451264
451432
451598
451764
451932
452100
452270
452444
452618
452790
452958
453124
453286
453446
453610
453772
453936
454106
454278
454450
454626
454798
454974
455152
455324
455494
455660
455826
455992
456156
456320
456484
456646
456806
456968
457132
457296
457458
457618
457780
457946
458116
458286
458456
458626
458792
458958
459126
459302
459478
459664
459854
460040
460228
460416
460600
460778
460954
461118
461278
461438
461596
461760
461930
462102
462282
462458
462634
462806
462974
463142
463312
463478
463650
463820
463988
464150
464310
464468
464626
464784
464940
465094
465246
465398
465548
465698
465844
465988
466134
466280
466432
466586
466752
466918
467086
467250
467412
467578
467744
467916
468082
468248
468410
468576
468738
468898
469054
469210
469364
469514
469668
469822
469980
470144
470312
470488
470658
470832
471006
471180
471348
471516
471684
471850
472016
472180
472338
472492
472648
472804
472962
473124
473284
473452
473620
473786
473956
474132
474316
474500
474678
474856
475028
475196
475354
475510
475666
475826
475982
476140
476298
476456
476618
476784
476950
477114
477278
477438
477600
477762
477924
478086
478246
478410
478578
478746
478922
479094
479266
479436
479612
479788
479968
480144
480318
480486
480646
480802
480958
481116
481276
481440
481602
481762
481924
482088
482254
482424
482594
482762
482928
483092
483254
483414
483574
483738
483898
484052
484210
484370
484542
484722
484910
485094
485272
485446
485614
485778
485940
486100
486254
486410
486562
486718
486870
487028
487182
487336
487490
487646
487802
487958
488116
488274
488430
488586
488740
488894
489048
489206
489370
489530
489690
489852
490020
490192
490362
490532
490702
490874
491044
491214
491386
491556
491726
491892
492054
492212
492372
492528
492682
492832
492984
493136
493286
493436
493586
493740
493892
494044
494196
494348
494494
494644
494794
494944
495090
495234
495384
495532
495676
495818
495962
496104
496246
496390
496542
496694
496854
497020
497186
497354
497522
497690
497862
498036
498218
498396
498574
498758
498944
499130
499324
499522
499720
499914
500106
500298
500488
500676
500870
501056
501244
501428
501612
501792
501970
502146
502332
502518
502700
502882
503058
503230
503398
503562
503724
503886
504048
504214
504378
504542
504704
504864
505024
505182
505344
505512
505682
505852
506018
506180
506344
506510
506672
506834
506994
507160
507332
507506
507676
507842
508006
508166
508324
508484
508644
508806
508974
509146
509330
509514
509706
509894
510084
510270
510452
510632
510806
510982
511152
511322
511492
511652
511818
511984
512156
512324
512488
512652
512814
512976
513138
513298
513462
513626
513792
513952
514108
514260
514414
514572
514734
514900
515068
515240
515414
515596
515778
515960
516136
516312
516486
516656
516826
516994
517168
517340
517514
517692
517866
518040
518206
518374
518538
518702
518876
519048
519222
519392
519566
519740
519912
520086
520260
520436
520608
520780
520950
521120
521298
521472
521644
521814
521980
522142
522302
522456
522612
522768
522928
523088
523252
523416
523578
523740
523900
524062
524226
524406
524594
524780
524962
525140
525316
525492
525666
525842
526016
526188
526362
526530
526700
526872
527040
527208
527378
527548
527714
527880
528042
528198
528354
528510
528668
528830
528992
529156
529326
529492
529660
529830
530002
530176
530352
530528
530706
530884
531062
531234
531402
531568
531734
531894
532052
532208
532362
532514
532664
532808
532952
533094
533236
533380
533526
533674
533828
533996
534172
534374
534592
534800
535000
535190
535382
535564
535746
535924
536100
536276
536456
536640
536820
537000
537178
537358
537538
537714
537890
538066
538242
538416
538586
538756
538926
539100
539274
539446
539620
539792
539962
540132
540300
540466
540628
540794
540956
541120
541282
541446
541610
541774
541936
542100
542262
542420
542580
542738
542898
543056
543214
543374
543530
543684
543834
543984
544138
544294
544452
544614
544778
544942
545108
545278
545442
545608
545774
545940
546106
546274
546444
546614
546786
546960
547130
547296
547466
547632
547802
547972
548138
548302
548468
548636
548798
548966
549124
549284
549444
549606
549768
549930
550092
550254
550414
550576
550736
550896
551056
551216
551378
551544
551712
551880
552050
552220
552386
552552
552720
552886
553048
553214
553382
553550
553716
553886
554054
554214
554378
554538
554702
554864
555024
555188
555348
555510
555674
555834
555996
556160
556324
556488
556652
556816
556984
557152
557320
557486
557652
557812
557966
558120
558276
558434
558590
558750
558912
559072
559236
559398
559560
559726
559894
560062
560232
560400
560568
560734
560898
561056
561210
561370
561532
561690
561848
562002
562164
562330
562496
562658
562820
562986
563154
563324
563498
563674
563854
564038
564214
564390
564562
564734
564904
565072
565242
565410
565586
565754
565920
566084
566250
566414
566578
566744
566910
567078
567244
567408
567568
567728
567888
568050
568214
568378
568544
568708
568872
569034
569198
569362
569526
569694
569862
570028
570196
570360
570524
570688
570848
571008
571170
571330
571488
571644
571798
571950
572104
572264
572428
572594
572764
572932
573104
573272
573440
573612
573776
573938
574096
574254
574414
574578
574736
574898
575058
575220
575384
575546
575704
575864
576022
576178
576330
576482
576636
576792
576950
577106
577266
577428
577592
577758
577926
578092
578264
578430
578596
578764
578920
579080
579232
579382
579532
579688
579846
580002
580158
580316
580476
580634
580794
580952
581110
581268
581426
581582
581738
581900
582058
582216
582376
582534
582694
582850
583006
583162
583318
583478
583638
583794
583954
584114
584272
584432
584590
584750
584912
585072
585232
585390
585548
585704
585862
586020
586176
586330
586486
586642
586800
586958
587118
587278
587438
587596
587754
587912
588074
588234
588396
588558
588716
588872
589030
589190
589346
589500
589658
589814
589968
590128
590284
590444
590600
590758
590916
591072
591230
591390
591550
591710
591868
592026
592190
592352
592516
592682
592846
593012
593178
593342
593506
593660
593812
593962
594112
594264
594416
594570
594726
594882
595044
595208
595374
595540
595710
595880
596044
596206
596368
596526
596686
596844
597002
597162
597322
597484
597646
597808
597974
598142
598310
598476
598642
598806
598972
599140
599302
599470
599636
599800
599966
600130
600296
600462
600628
600792
600954
601118
601280
601444
601608
601772
601930
602090
602248
602406
602562
602720
602878
603038
603196
603356
603516
603674
603836
604000
604164
604330
604498
604662
604828
604992
605156
605320
605486
605650
605814
605974
606138
606300
606464
606624
606788
606950
607110
607272
607438
607602
607768
607934
608104
608274
608446
608618
608790
608964
609136
609308
609478
609646
609816
609982
610150
610318
610492
610660
610832
610998
611168
611332
611500
611668
611834
612000
612166
612332
612504
612674
612846
613016
613188
613354
613514
613676
613838
614000
614162
614324
614486
614660
614834
615010
615194
615370
615544
615716
615886
616056
616224
616388
616550
616710
616870
617032
617192
617356
617524
617694
617866
618034
618202
618370
618538
618706
618874
619048
619220
619388
619556
619718
619878
620042
620206
620372
620538
620702
620864
621020
621174
621328
621478
621628
621774
621924
622076
622232
622394
622562
622730
622896
623062
623226
623388
623552
623714
623878
624044
624206
624370
624532
624696
624860
625024
625190
625360
625528
625696
625862
626026
626190
626352
626510
626672
626826
626978
627132
627288
627446
627608
627770
627928
628090
628250
628412
628574
628734
628894
629056
629216
629378
629544
629712
629880
630048
630220
630390
630558
630730
630898
631066
631230
631394
631560
631724
631888
632054
632222
632394
632564
632734
632902
633070
633236
633406
633576
633748
633914
634074
634240
634404
634568
634726
634888
635052
635216
635380
635542
635704
635866
636030
636196
636362
636530
636696
636860
637024
637186
637348
637508
637670
637828
637988
638144
638302
638458
638616
638772
638932
639092
639252
639410
639570
639730
639892
640056
640220
640382
640550
640716
640884
641058
641228
641396
641564
641728
641890
642050
642212
642374
642538
642698
642858
643014
643164
643316
643472
643630
643788
643944
644100
644258
644416
644576
644734
644894
645052
645212
645374
645536
645704
645874
646044
646216
646386
646554
646720
646888
647054
647220
647386
647552
647716
647880
648040
648202
648366
648530
648690
648854
649016
649180
649344
649508
649674
649842
650008
650176
650344
650512
650678
650846
651010
651174
651336
651496
651658
651820
651982
652144
652308
652468
652624
652776
652924
653074
653224
653374
653524
653678
653832
653986
654140
654288
654436
654582
654730
654880
655030
655178
655328
655480
655630
655784
655936
656092
656246
656406
656568
656734
656900
657072
657242
657408
657576
657742
657906
658074
658238
658400
658564
658722
658882
659042
659200
659358
659516
659672
659832
659990
660148
660300
660448
660594
660740
660882
661024
661164
661302
661444
661590
661742
661898
662060
662226
662392
662562
662736
662908
663070
663226
663388
663552
663714
663880
664040
664200
664364
664522
664680
664832
664980
665128
665274
665424
665574
665724
665872
666020
666170
666322
666476
666634
666796
666960
667126
667290
667456
667618
667782
667946
668110
668274
668440
668602
668768
668932
669094
669258
669420
669582
669744
669904
670068
670226
670380
670534
670694
670854
671016
671176
671340
671504
671670
671838
672006
672174
672340
672506
672672
672836
673002
673160
673322
673480
673636
673794
673952
674112
674276
674442
674606
674776
674942
675106
675272
675438
675610
675782
675956
676128
676294
676460
676624
676784
676944
677106
677270
677436
677604
677778
677950
678122
678298
678470
678650
678828
679004
679180
679356
679532
679708
679886
680068
680252
680436
680618
680804
680988
681174
681360
681544
681730
681914
682100
682284
682464
682636
682804
682968
683128
683288
683444
683600
683760
683922
684094
684266
684446
684622
684800
684974
685148
685322
685492
685662
685834
686006
686178
686348
686518
686690
686862
687034
687206
687378
687552
687726
687898
688070
688240
688410
688578
688746
688914
689080
689246
689410
689572
689732
689896
690060
690226
690392
690558
690728
690892
691056
691216
691376
691538
691698
691860
692018
692180
692340
692504
692670
692836
693002
693168
693332
693494
693660
693828
693994
694162
694330
694494
694660
694824
694992
695158
695328
695502
695676
695856
696032
696208
696386
696564
696738
696908
697074
697240
697404
697572
697738
697904
698070
698238
698406
698572
698736
698900
699060
699222
699384
699548
699712
699878
700046
700218
700390
700560
700732
700902
701070
701236
701402
701566
701728
701888
702048
702208
702370
702530
702696
702860
703026
703190
703360
703528
703696
703864
704034
704208
704382
704558
704736
704912
705092
705272
705452
705634
705812
705988
706166
706340
706512
706680
706846
707012
707176
707342
707508
707678
707852
708026
708200
708374
708550
708722
708898
709072
709240
709408
709576
709746
709914
710082
710252
710422
710590
710756
710924
711094
711264
711432
711600
711768
711934
712098
712264
712430
712598
712766
712938
713108
713282
713454
713624
713794
713962
714126
714294
714458
714624
714788
714954
715122
715286
715454
715618
715782
715944
716108
716270
716430
716590
716752
716914
717076
717240
717406
717572
717740
717906
718072
718242
718412
718580
718748
718912
719076
719244
719408
719574
719736
719902
720066
720230
720394
720560
720728
720900
721076
721256
721436
721620
721802
721984
722164
722346
722526
722704
722880
723050
723226
723398
723576
723752
723928
724104
724280
724458
724636
724816
725000
725184
725364
725542
725718
725892
726064
726236
726406
726572
726742
726908
727076
727240
727410
727574
727738
727904
728070
728234
728400
728570
728738
728906
729072
729238
729404
729572
729742
729910
730078
730242
730410
730572
730740
730908
731076
731242
731408
731570
731736
731902
732072
732244
732420
732594
732770
732940
733114
733286
733452
733616
733778
733942
734106
734274
734446
734614
734778
734938
735096
735256
735412
735566
735722
735878
736034
736190
736346
736500
736654
736806
736960
737108
737262
737414
737566
737716
737872
738028
738184
738338
738490
738636
738784
738928
739070
739210
739348
739488
739626
739764
739902
740040
740176
740312
740448
740584
740722
740862
741002
741140
741278
741416
741552
741692
741828
741964
742100
742236
742372
742510
742650
742788
742928
743068
743206
743348
743492
743632
743772
743912
744054
744196
744338
744478
744618
744758
744898
745038
745176
745316
745454
745592
745732
745876
746018
746164
746314
746462
746614
746770
746928
747086
747240
747396
747550
747708
747864
748018
748172
748326
748476
748624
748772
748920
749068
749216
749366
749520
749666
749812
749956
750106
750256
750406
750554
750704
750852
750994
751138
751284
751430
751572
751722
751872
752024
752176
752328
752478
752626
752772
752920
753070
753222
753374
753526
753672
753818
753960
754106
754250
754392
754534
754672
754810
754948
755086
755228
755370
755516
755664
755812
755956
756100
756242
756382
756524
756666
756808
756948
757086
757226
757366
757506
757648
757792
757934
758080
758226
758372
758516
758662
758808
758958
759104
759252
759400
759544
759688
759826
759966
760106
760248
760390
760534
760678
760820
760958
761096
761234
761370
761508
761644
761780
761918
762052
762186
762322
762458
762592
762724
762860
762992
763124
763256
763386
763516
763644
763774
763904
764032
764162
764292
764422
764552
764680
764808
764936
765066
765194
765322
765450
765578
765706
765834
765960
766088
766212
766338
766462
766588
766710
766836
766958
767078
767200
767324
767446
767568
767690
767814
767936
768060
768182
768300
768422
768544
768664
768784
768906
769026
769146
769264
769384
769502
769620
769738
769854
769968
770082
770198
770314
770430
770546
770660
770776
770888
771004
771118
771232
771346
771460
771574
771690
771804
771920
772034
772148
772262
772376
772490
772604
772718
772834
772950
773064
773178
773294
773408
773524
773638
773754
773872
773986
774102
774218
774334
774448
774562
774676
774790
774904
775020
775134
775250
775364
775476
775590
775702
775816
775926
776038
776150
776260
776372
776482
776594
776704
776816
776926
777036
777146
777256
777366
777476
777586
777698
777810
777922
778030
778142
778250
778358
778470
778578
778686
778794
778902
779012
779120
779228
779336
779444
779554
779662
779770
779880
779988
780098
780210
780320
780428
780538
780648
780756
780868
780976
781086
781196
781304
781412
781522
781630
781738
781846
781954
782060
782168
782274
782382
782488
782596
782704
782810
782914
783020
783124
783228
783332
783436
783542
783646
783750
783854
783960
784064
784168
784274
784378
784482
784586
784690
784796
784898
785002
785108
785212
785316
785418
785522
785624
785726
785828
785930
786032
786134
786236
786340
786442
786546
786648
786750
786852
786954
787054
787156
787260
787362
787464
787566
787670
787774
787876
787978
788080
788182
788284
788386
788488
788588
788690
788792
788892
788994
789094
789194
789294
789394
789494
789592
789692
789792
789892
789992
790092
790190
790290
790390
790490
790588
790690
790790
790892
790994
791094
791198
791298
791402
791504
791610
791712
791814
791916
792016
792118
792220
792322
792420
792522
792622
792722
792818
792916
793014
793110
793208
793304
793402
793496
793594
793688
793786
793882
793980
794076
794174
794270
794368
794464
794560
794662
794754
794854
794952
795050
795146
795244
795340
795436
795538
795630
795726
795824
795920
796014
796110
796208
796306
796402
796500
796598
796694
796790
796888
796986
797082
797180
797282
797376
797474
797572
797670
797764
797862
797960
798056
798152
798248
798344
798442
798538
798634
798730
798826
798922
799018
799114
799208
799306
799402
799498
799594
799690
799786
799884
799982
800076
800174
800270
800364
800462
800556
800652
800746
800844
800940
801036
801132
801230
801328
801426
801526
801620
801718
801822
801922
802022
802116
802218
802324
802424
802524
802618
802718
802820
802922
803018
803118
803218
803316
803422
803522
803622
803720
803820
803922
804022
804126
804224
804324
804426
804528
804632
804736
804834
804938
805042
805146
805248
805350
805448
805548
805650
805752
805858
805956
806058
806160
806266
806372
806478
806588
806694
806800
806902
807006
807114
807220
807330
807436
807542
807646
807750
807850
807952
808056
808160
808262
808366
808470
808574
808678
808784
808890
808994
809100
809200
809304
809410
809516
809622
809728
809836
809942
810050
810152
810258
810364
810472
810580
810692
810804
810916
811028
811138
811250
811360
811466
811576
811684
811790
811900
812008
812114
812220
812324
812430
812536
812638
812742
812850
812956
813066
813178
813290
813404
813522
813640
813762
813884
814006
814124
814242
814358
814474
814592
814712
814824
814938
815052
815166
815280
815394
815506
815620
815732
815846
815962
816076
816188
816302
816414
816526
816638
816750
816860
816974
817090
817206
817322
817440
817556
817674
817790
817906
818024
818142
818260
818376
818498
818618
818732
818850
818966
819084
819202
819320
819444
819564
819680
819798
819916
820032
820150
820268
820386
820508
820622
820740
820858
820978
821096
821216
821336
821458
821578
821692
821810
821928
822046
822162
822278
822392
822506
822624
822734
822848
822962
823082
823202
823326
823440
823560
823678
823796
823912
824032
824144
824260
824376
824490
824606
824718
824832
824946
825062
825176
825292
825410
825528
825648
825772
825894
826016
826136
826254
826374
826492
826612
826736
826856
826974
827094
827212
827328
827448
827566
827684
827804
827926
828044
828164
828286
828408
828530
828654
828778
828900
829024
829148
829272
829396
829520
829644
829766
829886
830010
830130
830250
830368
830482
830600
830718
830836
830954
831072
831186
831300
831414
831526
831638
831748
831860
831970
832078
832188
832296
832406
832516
832624
832734
832844
832958
833068
833180
833290
833400
833510
833622
833734
833846
833954
834066
834178
834292
834406
834518
834630
834742
834854
834968
835080
835194
835310
835424
835538
835654
835774
835892
836012
836132
836252
836374
836500
836618
836738
836858
836978
837094
837212
837328
837444
837558
837672
837786
837898
838010
838124
838236
838346
838458
838570
838684
838798
838912
839026
839144
839262
839380
839496
839612
839728
839846
839964
840086
840200
840320
840436
840552
840670
840788
840908
841026
841146
841266
841388
841512
841638
841766
841894
842020
842146
842266
842386
842504
842620
842740
842860
842980
843102
843224
843346
843466
843590
843714
843838
843964
844092
844220
844346
844474
844600
844726
844852
844978
845102
845226
845350
845476
845600
845722
845844
845964
846082
846202
846326
846448
846574
846700
846826
846950
847078
847204
847332
847460
847586
847714
847842
847970
848098
848228
848350
848476
848602
848730
848858
848984
849112
849238
849366
849490
849612
849734
849862
849988
850116
850244
850374
850504
850632
850758
850884
851008
851134
851260
851384
851512
851640
851768
851898
852032
852168
852302
852440
852580
852718
852858
852990
853124
853256
853392
853524
853656
853786
853914
854040
854166
854292
854416
854540
854666
854792
854918
855040
855164
855288
855414
855542
855672
855800
855932
856068
856204
856342
856480
856616
856748
856878
857012
857142
857272
857406
857536
857664
857792
857920
858052
858184
858322
858462
858602
858738
858880
859024
859166
859306
859446
859586
859726
859866
860008
860144
860278
860410
860544
860680
860818
860960
861102
861242
861386
861532
861676
861820
861960
862102
862242
862382
862518
862656
862796
862936
863070
863204
863336
863468
863602
863738
863876
864012
864148
864282
864418
864552
864682
864814
864944
865074
865206
865334
865462
865588
865714
865840
865968
866102
866240
866382
866524
866664
866812
866962
867110
867256
867404
867550
867696
867838
867980
868118
868254
868390
868526
868660
868796
868928
869060
869188
869320
869450
869582
869714
869850
869988
870132
870270
870410
870554
870698
870846
870994
871142
871294
871442
871592
871740
871888
872040
872188
872336
872480
872624
872764
872906
873046
873188
873330
873472
873618
873768
873920
874072
874222
874374
874520
874664
874804
874942
875082
875220
875358
875498
875638
875780
875920
876060
876202
876342
876478
876612
876748
876884
877022
877162
877306
877450
877596
877742
877890
878036
878184
878330
878480
878626
878776
878922
879068
879216
879364
879516
879672
879826
879982
880140
880300
880456
880610
880758
880908
881056
881200
881340
881476
881612
881750
881890
882034
882178
882324
882470
882618
882768
882916
883066
883218
883372
883530
883688
883838
883980
884126
884272
884424
884574
884722
884870
885016
885162
885304
885448
885588
885734
885878
886022
886164
886306
886446
886582
886718
886854
886992
887134
887282
887438
887602
887770
887930
888096
888256
888414
888570
888720
888868
889014
889158
889302
889448
889592
889738
889884
890034
890182
890324
890472
890618
890772
890986
891172
891344
891492
891634
891774
891914
892052
892188
892322
892458
892592
892726
892862
892996
893136
893276
893420
893564
893710
893858
894006
894154
894304
894454
894602
894750
894890
895030
895174
895320
895472
895626
895784
895946
896108
896278
896448
896608
896768
896924
897080
897236
897394
897552
897712
897874
898038
898204
898364
898530
898692
898854
899016
899176
899338
899502
899660
899816
899966
900116
900270
900428
900588
900752
900912
901074
901230
901388
901542
901696
901850
902004
902158
902306
902450
902592
902732
902878
903024
903170
903318
903468
903620
903774
903926
904082
904238
904398
904564
904728
904892
905054
905212
905366
905514
905660
905808
905956
906106
906256
906406
906558
906710
906864
907016
907172
907328
907490
907648
907806
907968
908132
908294
908456
908616
908780
908944
909104
909264
909426
909582
909738
909888
910038
910186
910330
910474
910618
910766
910914
911066
911218
911370
911524
911674
911828
911978
912124
912270
912414
912556
912702
912848
912998
913150
913302
913454
913606
913760
913916
914068
914220
914372
914524
914676
914826
914978
915130
915284
915444
915600
915758
915916
916074
916234
916394
916560
916726
916894
917056
917214
917368
917520
917670
917818
917966
918112
918256
918400
918546
918692
918840
918990
919140
919296
919454
919612
919768
919924
920076
920224
920370
920516
920658
920800
920944
921086
921230
921374
921520
921666
921814
921964
922110
922258
922408
922558
922710
922864
923020
923178
923336
923492
923646
923798
923950
924102
924254
924402
924552
924700
924844
924988
925138
925294
925470
925644
925814
925978
926136
926292
926440
926588
926734
926876
927020
927162
927304
927450
927592
927732
927876
928022
928172
928324
928480
928636
928796
928956
929120
929284
929450
929612
929772
929928
930086
930240
930394
930546
930700
930854
931010
931168
931330
931498
931662
931822
931980
932132
932284
932434
932582
932732
932888
933048
933212
933378
933546
933716
933884
934054
934230
934404
934580
934754
934926
935094
935258
935414
935566
935712
935858
936000
936142
936282
936422
936562
936706
936848
936992
937144
937292
937444
937598
937754
937912
938060
938212
938360
938512
938666
938818
938972
939126
939280
939432
939584
939734
939884
940034
940182
940328
940472
940614
940756
940898
941046
941194
941352
941516
941676
941834
941986
942134
942278
942424
942566
942708
942850
942990
943136
943282
943432
943588
943746
943908
944064
944222
944378
944532
944684
944834
944984
945128
945272
945410
945550
945692
945840
945988
946142
946298
946458
946618
946778
946938
947096
947252
947408
947564
947720
947874
948030
948180
948328
948472
948620
948766
948916
949064
949212
949358
949508
949662
949818
949976
950134
950292
950452
950616
950784
950946
951106
951266
951422
951580
951734
951886
952040
952194
952348
952506
952662
952822
952980
953140
953294
953444
953596
953750
953902
954056
954208
954360
954514
954674
954834
954994
955154
955316
955478
955636
955794
955952
956110
956266
956424
956578
956732
956888
957046
957202
957362
957522
957684
957844
958006
958166
958324
958482
958638
958790
958940
959090
959236
959384
959532
959678
959822
959962
960102
960242
960386
960532
960680
960828
960980
961134
961290
961446
961602
961762
961918
962076
962232
962388
962542
962696
962850
963002
963154
963306
963456
963608
963760
963912
964062
964212
964362
964514
964666
964818
964970
965122
965272
965424
965572
965718
965864
966006
966150
966290
966428
966562
966700
966836
966972
967106
967240
967380
967520
967660
967806
967954
968102
968252
968400
968552
968702
968850
968996
969142
969286
969432
969578
969722
969866
970008
970152
970300
970450
970598
970750
970902
971058
971216
971372
971530
971688
971842
971998
972154
972304
972454
972604
972750
972898
973044
973192
973340
973488
973634
973780
973930
974078
974224
974370
974516
974662
974808
974952
975098
975244
975394
975544
975696
975848
975998
976146
976288
976432
976576
976724
976876
977034
977190
977346
977500
977654
977806
977958
978108
978258
978406
978554
978702
978844
978988
979130
979276
979422
979570
979724
979878
980030
980188
980344
980502
980660
980816
980974
981134
981286
981440
981592
981742
981894
982046
982198
982350
982502
982652
982804
982958
983112
983268
983424
983584
983742
983898
984052
984206
984360
984510
984660
984810
984958
985106
985254
985400
985540
985684
985830
985976
986124
986270
986418
986572
986724
986874
987022
987170
987318
987464
987610
987752
987894
988034
988174
988314
988454
988596
988740
988888
989038
989192
989350
989508
989666
989826
989986
990142
990302
990462
990620
990778
990936
991094
991252
991410
991566
991724
991884
992040
992196
992350
992504
992656
992810
992960
993112
993262
993412
993560
993712
993860
994010
994160
994310
994460
994608
994758
994908
995056
995202
995350
995498
995646
995794
995942
996088
996232
996378
996526
996672
996820
996964
997108
997250
997394
997534
997676
997818
997962
998104
998250
998394
998540
998688
998834
998982
999130
999278
999426
999576
999722
999868
1000014
1000160
1000304
1000448
1000592
1000734
1000874
1001016
1001154
1001292
1001430
1001570
1001712
1001858
1002000
1002144
1002290
1002436
1002580
1002722
1002870
1003014
1003158
1003300
1003444
1003582
1003722
1003860
1004002
1004142
1004284
1004428
1004570
1004712
1004856
1005000
1005148
1005294
1005444
1005592
1005736
1005878
1006022
1006166
1006312
1006456
1006602
1006750
1006896
1007046
1007196
1007352
1007506
1007660
1007818
1007970
1008122
1008266
1008412
1008554
1008696
1008838
1008982
1009122
1009260
1009398
1009534
1009672
1009810
1009948
1010086
1010226
1010366
1010506
1010648
1010790
1010930
1011074
1011214
1011358
1011500
1011644
1011786
1011926
1012068
1012208
1012352
1012494
1012638
1012778
1012920
1013060
1013202
1013342
1013482
1013622
1013762
1013904
1014044
1014182
1014322
1014460
1014600
1014738
1014880
1015022
1015170
1015316
1015466
1015612
1015760
1015906
1016054
1016198
1016346
1016490
1016636
1016778
1016924
1017066
1017210
1017354
1017496
1017642
1017788
1017932
1018078
1018222
1018364
1018506
1018646
1018786
1018924
1019064
1019200
1019336
1019470
1019602
1019736
1019870
1020004
1020140
1020276
1020412
1020546
1020680
1020814
1020946
1021082
1021218
1021358
1021500
1021640
1021782
1021926
1022070
1022212
1022356
1022500
1022644
1022786
1022930
1023072
1023212
1023354
1023494
1023634
1023774
1023912
1024048
1024184
1024320
1024456
1024594
1024734
1024876
1025020
1025162
1025304
1025450
1025594
1025738
1025882
1026024
1026168
1026310
1026452
1026592
1026736
1026876
1027018
1027158
1027300
1027440
1027580
1027722
1027862
1028006
1028148
1028294
1028440
1028590
1028738
1028886
1029034
1029178
1029322
1029466
1029608
1029750
1029892
1030034
1030176
1030316
1030456
1030594
1030736
1030876
1031016
1031158
1031302
1031444
1031588
1031732
1031876
1032020
1032164
1032310
1032454
1032598
1032742
1032890
1033034
1033178
1033324
1033472
1033622
1033768
1033916
1034064
1034212
1034360
1034508
1034654
1034798
1034944
1035090
1035234
1035378
1035522
1035666
1035810
1035952
1036094
1036234
1036376
1036518
1036660
1036802
1036944
1037088
1037230
1037372
1037516
1037658
1037800
1037942
1038084
1038228
1038370
1038516
1038662
1038806
1038952
1039098
1039244
1039390
1039538
1039688
1039838
1039984
1040134
1040278
1040424
1040568
1040714
1040858
1041002
1041144
1041286
1041428
1041570
1041712
1041858
1042002
1042148
1042298
1042448
1042600
1042752
1042904
1043058
1043210
1043364
1043522
1043674
1043828
1043978
1044122
1044262
1044404
1044544
1044686
1044828
1044970
1045114
1045254
1045396
1045540
1045680
1045822
1045968
1046112
1046262
1046412
1046564
1046716
1046868
1047016
1047164
1047312
1047458
1047600
1047744
1047888
1048030
1048176
1048320
1048464
1048608
1048752
1048898
1049036
1049176
1049316
1049458
1049600
1049746
1049892
1050034
1050178
1050322
1050466
1050610
1050754
1050896
1051034
1051170
1051306
1051442
1051576
1051710
1051846
1051986
1052124
1052266
1052408
1052554
1052704
1052856
1053014
1053176
1053338
1053500
1053654
1053810
1053960
1054110
1054260
1054410
1054556
1054706
1054852
1055002
1055148
1055294
1055438
1055582
1055724
1055868
1056010
1056154
1056296
1056440
1056586
1056732
1056880
1057030
1057182
1057334
1057486
1057640
1057794
1057946
1058098
1058252
1058400
1058548
1058698
1058842
1058986
1059128
1059268
1059410
1059552
1059694
1059836
1059976
1060116
1060256
1060400
1060542
1060688
1060834
1060984
1061138
1061290
1061448
1061598
1061746
1061888
1062032
1062178
1062324
1062470
1062616
1062762
1062904
1063050
1063194
1063336
1063480
1063622
1063766
1063912
1064060
1064210
1064360
1064508
1064658
1064808
1064958
1065108
1065258
1065408
1065556
1065706
1065852
1066002
1066150
1066298
1066448
1066598
1066748
1066900
1067052
1067208
1067362
1067518
1067670
1067824
1067974
1068126
1068274
1068422
1068566
1068710
1068854
1068996
1069138
1069280
1069424
1069568
1069712
1069858
1070006
1070154
1070304
1070456
1070612
1070768
1070922
1071076
1071230
1071384
1071538
1071690
1071840
1071990
1072142
1072292
1072440
1072590
1072742
1072902
1073062
1073220
1073382
1073540
1073696
1073854
1074008
1074158
1074308
1074456
1074602
1074746
1074890
1075036
1075182
1075326
1075472
1075618
1075762
1075906
1076050
1076194
1076338
1076478
1076620
1076764
1076906
1077046
1077190
1077332
1077474
1077614
1077760
1077906
1078050
1078194
1078338
1078482
1078626
1078772
1078916
1079060
1079208
1079360
1079516
1079674
1079832
1079990
1080148
1080302
1080454
1080602
1080752
1080898
1081042
1081188
1081330
1081474
1081618
1081762
1081904
1082048
1082192
1082338
1082484
1082634
1082790
1082948
1083114
1083280
1083442
1083602
1083758
1083912
1084066
1084220
1084368
1084518
1084666
1084812
1084960
1085106
1085252
1085398
1085546
1085688
1085830
1085968
1086110
1086252
1086396
1086546
1086698
1086850
1087006
1087168
1087328
1087490
1087652
1087812
1087970
1088128
1088284
1088442
1088596
1088752
1088902
1089054
1089204
1089354
1089500
1089646
1089790
1089936
1090080
1090224
1090368
1090512
1090656
1090800
1090942
1091086
1091230
1091372
1091516
1091662
1091808
1091956
1092104
1092254
1092404
1092552
1092700
1092840
1092980
1093118
1093256
1093394
1093532
1093670
1093806
1093946
1094084
1094220
1094358
1094496
1094632
1094770
1094904
1095040
1095176
1095312
1095450
1095588
1095732
1095876
1096026
1096178
1096330
1096482
1096636
1096786
1096938
1097088
1097238
1097390
1097540
1097688
1097832
1097976
1098122
1098266
1098410
1098556
1098700
1098846
1098994
1099142
1099290
1099438
1099588
1099736
1099886
1100040
1100192
1100342
1100496
1100646
1100796
1100946
1101098
1101248
1101398
1101548
1101696
1101842
1101992
1102140
1102290
1102440
1102590
1102740
1102888
1103038
1103184
1103334
1103482
1103630
1103778
1103930
1104078
1104230
1104380
1104530
1104682
1104836
1104988
1105138
1105288
1105436
1105582
1105728
1105874
1106022
1106166
1106312
1106456
1106600
1106742
1106886
1107024
1107164
1107304
1107448
1107592
1107736
1107882
1108030
1108172
1108316
1108462
1108610
1108756
1108902
1109048
1109192
1109336
1109478
1109620
1109764
1109908
1110048
1110188
1110330
1110468
1110608
1110752
1110896
1111040
1111190
1111340
1111494
1111650
1111808
1111966
1112118
1112262
1112408
1112554
1112700
1112846
1112992
1113136
1113282
1113428
1113572
1113716
1113856
1113996
1114136
1114272
1114408
1114544
1114682
1114824
1114972
1115122
1115278
1115438
1115604
1115776
1115956
1116132
1116308
1116484
1116650
1116814
1116972
1117130
1117286
1117442
1117596
1117746
1117896
1118044
1118192
1118338
1118486
1118632
1118780
1118928
1119074
1119224
1119374
1119526
1119682
1119842
1119996
1120150
1120306
1120460
1120616
1120772
1120928
1121080
1121232
1121384
1121534
1121684
1121832
1121978
1122126
1122276
1122424
1122572
1122718
1122866
1123012
1123160
1123308
1123456
1123604
1123752
1123902
1124050
1124202
1124350
1124500
1124652
1124802
1124950
1125100
1125248
1125398
1125546
1125698
1125844
1125992
1126140
1126288
1126434
1126582
1126728
1126878
1127026
1127178
1127332
1127486
1127640
1127794
1127946
1128098
1128246
1128396
1128544
1128686
1128826
1128966
1129104
1129244
1129388
1129528
1129670
1129814
1129958
1130104
1130250
1130396
1130546
1130694
1130846
1130996
1131148
1131298
1131448
1131602
1131756
1131910
1132064
1132214
1132364
1132514
1132662
1132810
1132956
1133100
1133244
1133388
1133532
1133676
1133818
1133960
1134098
1134240
1134380
1134518
1134660
1134802
1134948
1135094
1135244
1135398
1135552
1135710
1135870
1136028
1136186
1136340
1136496
1136650
1136806
1136962
1137112
1137264
1137412
1137560
1137708
1137856
1138004
1138152
1138298
1138446
1138594
1138740
1138886
1139032
1139178
1139322
1139466
1139608
1139750
1139892
1140030
1140172
1140316
1140458
1140600
1140740
1140880
1141018
1141156
1141292
1141428
1141564
1141700
1141838
1141974
1142106
1142242
1142374
1142506
1142638
1142770
1142902
1143032
1143164
1143292
1143418
1143544
1143668
1143792
1143914
1144034
1144158
1144278
1144398
1144520
1144640
1144764
1144888
1145016
1145146
1145280
1145414
1145548
1145684
1145816
1145948
1146080
1146210
1146340
1146466
1146594
1146720
1146846
1146972
1147096
1147218
1147340
1147464
1147586
1147710
1147830
1147952
1148074
1148196
1148318
1148440
1148562
1148684
1148808
1148934
1149064
1149194
1149324
1149456
1149590
1149722
1149856
1149988
1150122
1150254
1150386
1150518
1150650
1150780
1150912
1151042
1151172
1151304
1151434
1151566
1151698
1151832
1151962
1152094
1152224
1152354
1152484
1152614
1152744
1152872
1153000
1153126
1153252
1153378
1153504
1153628
1153752
1153876
1153998
1154122
1154252
1154382
1154514
1154652
1154794
1154940
1155084
1155222
1155362
1155500
1155634
1155768
1155900
1156032
1156160
1156286
1156416
1156542
1156670
1156798
1156924
1157050
1157178
1157306
1157434
1157562
1157690
1157818
1157946
1158074
1158204
1158332
1158460
1158590
1158720
1158850
1158984
1159116
1159246
1159376
1159506
1159638
1159766
1159894
1160022
1160150
1160278
1160408
1160536
1160666
1160794
1160924
1161052
1161182
1161312
1161442
1161570
1161698
1161826
1161952
1162080
1162210
1162338
1162468
1162602
1162738
1162872
1163006
1163140
1163272
1163406
1163540
1163672
1163806
1163942
1164074
1164206
1164338
1164472
1164608
1164744
1164880
1165016
1165154
1165290
1165422
1165556
1165690
1165822
1165956
1166092
1166230
1166366
1166504
1166644
1166778
1166912
1167050
1167186
1167322
1167460
1167598
1167738
1167880
1168018
1168154
1168292
1168426
1168560
1168692
1168826
1168956
1169088
1169216
1169344
1169474
1169606
1169742
1169880
1170016
1170154
1170296
1170436
1170576
1170718
1170860
1171000
1171148
1171296
1171440
1171588
1171734
1171876
1172020
1172162
1172302
1172444
1172586
1172724
1172866
1173008
1173150
1173290
1173434
1173576
1173714
1173852
1173988
1174124
1174260
1174396
1174530
1174666
1174804
1174940
1175078
1175216
1175356
1175492
1175628
1175764
1175900
1176034
1176166
1176300
1176432
1176566
1176702
1176836
1176972
1177108
1177246
1177386
1177524
1177662
1177800
1177932
1178066
1178200
1178330
1178462
1178594
1178724
1178856
1178986
1179122
1179262
1179410
1179564
1179734
1179904
1180070
1180248
1180424
1180592
1180752
1180912
1181066
1181216
1181364
1181512
1181658
1181804
1181950
1182096
1182240
1182384
1182530
1182670
1182808
1182944
1183078
1183210
1183344
1183478
1183612
1183748
1183880
1184016
1184150
1184288
1184424
1184562
1184698
1184836
1184974
1185110
1185242
1185374
1185504
1185636
1185770
1185912
1186066
1186224
1186382
1186542
1186706
1186876
1187046
1187222
1187394
1187564
1187726
1187890
1188046
1188198
1188350
1188500
1188652
1188806
1188964
1189118
1189272
1189422
1189576
1189724
1189876
1190022
1190162
1190306
1190448
1190592
1190736
1190882
1191032
1191182
1191334
1191480
1191626
1191772
1191916
1192062
1192212
1192364
1192514
1192670
1192826
1192978
1193130
1193284
1193434
1193580
1193726
1193872
1194016
1194162
1194306
1194454
1194600
1194750
1194906
1195060
1195218
1195374
1195528
1195684
1195838
1195990
1196142
1196290
1196440
1196590
1196744
1196898
1197050
1197200
1197350
1197500
1197650
1197802
1197952
1198106
1198260
1198416
1198566
1198718
1198872
1199024
1199172
1199322
1199472
1199624
1199774
1199922
1200066
1200208
1200350
1200490
1200628
1200770
1200910
1201054
1201196
1201336
1201482
1201630
1201784
1201940
1202102
1202262
1202428
1202596
1202758
1202918
1203082
1203248
1203412
1203570
1203726
1203882
1204034
1204186
1204340
1204502
1204672
1204842
1205014
1205190
1205366
1205536
1205706
1205878
1206044
1206202
1206364
1206528
1206694
1206856
1207032
1207212
1207402
1207594
1207788
1207980
1208164
1208342
1208514
1208684
1208850
1209018
1209186
1209352
1209522
1209706
1209940
1210150
1210360
1210564
1210762
1210952
1211140
1211336
1211528
1211720
1211920
1212120
1212310
1212506
1212708
1212906
1213102
1213294
1213470
1213638
1213814
1213996
1214186
1214370
1214546
1214716
1214884
1215054
1215226
1215398
1215570
1215746
1215914
1216088
1216258
1216426
1216588
1216752
1216914
1217074
1217232
1217398
1217562
1217728
1217900
1218066
1218230
1218394
1218558
1218720
1218882
1219046
1219210
1219370
1219530
1219690
1219848
1220006
1220162
1220316
1220470
1220626
1220778
1220926
1221078
1221230
1221384
1221536
1221684
1221836
1221986
1222140
1222290
1222440
1222594
1222746
1222900
1223052
1223204
1223354
1223504
1223652
1223802
1223950
1224100
1224248
1224398
1224544
1224688
1224832
1224978
1225124
1225268
1225412
1225554
1225698
1225840
1225980
1226120
1226258
1226396
1226536
1226674
1226812
1226948
1227084
1227222
1227358
1227492
1227628
1227766
1227904
1228038
1228174
1228308
1228444
1228580
1228714
1228848
1228984
1229122
1229258
1229396
1229532
1229668
1229802
1229936
1230070
1230202
1230334
1230466
1230596
1230726
1230854
1230982
1231108
1231238
1231364
1231492
1231620
1231746
1231874
1232000
1232128
1232256
1232382
1232510
1232638
1232770
1232898
1233028
1233158
1233290
1233420
1233550
1233682
1233814
1233948
1234078
1234210
1234340
1234470
1234602
1234732
1234862
1234996
1235128
1235262
1235392
1235524
1235654
1235788
1235920
1236054
1236186
1236320
1236454
1236586
1236720
1236850
1236980
1237112
1237242
1237374
1237502
1237632
1237760
1237888
1238014
1238138
1238262
1238386
1238510
1238632
1238756
1238880
1239006
1239128
1239254
1239380
1239506
1239632
1239756
1239882
1240006
1240130
1240252
1240374
1240496
1240616
1240736
1240856
1240974
1241094
1241214
1241332
1241450
1241568
1241688
1241804
1241924
1242040
1242160
1242280
1242400
1242522
1242642
1242762
1242882
1243002
1243124
1243242
1243362
1243480
1243600
1243716
1243832
1243948
1244064
1244178
1244292
1244408
1244524
1244642
1244758
1244876
1244998
1245120
1245240
1245360
1245480
1245600
1245718
1245834
1245954
1246070
1246188
1246304
1246420
1246532
1246646
1246762
1246876
1246990
1247102
1247216
1247332
1247446
1247562
1247676
1247790
1247904
1248022
1248138
1248256
1248374
1248496
1248616
1248738
1248860
1248982
1249104
1249226
1249344
1249464
1249584
1249702
1249822
1249942
1250060
1250180
1250296
1250414
1250532
1250652
1250770
1250892
1251014
1251140
1251272
1251406
1251546
1251686
1251824
1251966
1252104
1252238
1252374
1252508
1252642
1252770
1252898
1253028
1253158
1253290
1253426
1253558
1253688
1253824
1253956
1254088
1254224
1254356
1254490
1254622
1254752
1254884
1255014
1255142
1255268
1255394
1255520
1255648
1255774
1255902
1256032
1256164
1256304
1256448
1256592
1256734
1256876
1257016
1257156
1257298
1257444
1257592
1257736
1257888
1258040
1258188
1258338
1258488
1258638
1258786
1258934
1259082
1259228
1259380
1259534
1259688
1259846
1260016
1260174
1260338
1260494
1260648
1260800
1260950
1261100
1261248
1261398
1261544
1261694
1261844
1261994
1262146
1262292
1262446
1262596
1262746
1262898
1263050
1263204
1263354
1263506
1263654
1263800
1263946
1264100
1264256
1264414
1264580
1264750
1264906
1265068
1265226
1265380
1265538
1265692
1265842
1265994
1266146
1266300
1266450
1266598
1266744
1266886
1267032
1267180
1267330
1267476
1267626
1267784
1267946
1268116
1268290
1268476
1268654
1268822
1268980
1269130
1269292
1269446
1269598
1269748
1269896
1270044
1270192
1270342
1270492
1270646
1270800
1270958
1271118
1271278
1271438
1271600
1271762
1271926
1272090
1272254
1272412
1272572
1272734
1272898
1273062
1273226
1273388
1273554
1273720
1273888
1274054
1274218
1274382
1274558
1274736
1274916
1275088
1275262
1275428
1275592
1275748
1275900
1276054
1276214
1276380
1276552
1276724
1276902
1277080
1277254
1277422
1277588
1277760
1277926
1278096
1278274
1278454
1278632
1278828
1279032
1279218
1279408
1279592
1279764
1279930
1280098
1280264
1280432
1280606
1280782
1280960
1281144
1281322
1281506
1281684
1281856
1282030
1282200
1282368
1282534
1282704
1282876
1283048
1283256
1283472
1283668
1283856
1284038
1284214
1284384
1284548
1284712
1284870
1285028
1285188
1285348
1285508
1285670
1285830
1285988
1286150
1286312
1286472
1286626
1286778
1286928
1287078
1287226
1287376
1287524
1287674
1287826
1287976
1288130
1288284
1288444
1288602
1288764
1288930
1289098
1289268
1289442
1289610
1289776
1289946
1290120
1290292
1290462
1290636
1290810
1290976
1291148
1291312
1291480
1291646
1291810
1291972
1292132
1292292
1292448
1292608
1292770
1292930
1293092
1293252
1293410
1293570
1293734
1293894
1294054
1294208
1294368
1294522
1294678
1294836
1294990
1295146
1295304
1295460
1295614
1295770
1295920
1296070
1296220
1296364
1296514
1296662
1296808
1296956
1297100
1297246
1297392
1297542
1297686
1297832
1297980
1298128
1298274
1298418
1298566
1298712
1298862
1299016
1299174
1299326
1299478
1299628
1299776
1299920
1300064
1300206
1300348
1300490
1300628
1300766
1300904
1301044
1301184
1301324
1301466
1301606
1301750
1301894
1302038
1302182
1302326
1302468
1302612
1302750
1302892
1303030
1303168
1303302
1303436
1303570
1303706
1303844
1303984
1304130
1304282
1304444
1304620
1304802
1304992
1305172
1305340
1305500
1305654
1305802
1305948
1306096
1306242
1306392
1306544
1306694
1306844
1306994
1307150
1307302
1307458
1307612
1307764
1307918
1308068
1308214
1308360
1308508
1308654
1308804
1308954
1309104
1309262
1309418
1309582
1309748
1309922
1310096
1310266
1310432
1310598
1310756
1310918
1311076
1311232
1311386
1311538
1311696
1311858
1312020
1312186
1312360
1312534
1312710
1312888
1313062
1313236
1313412
1313590
1313780
1313968
1314160
1314358
1314550
1314726
1314890
1315054
1315220
1315390
1315564
1315754
1315938
1316132
1316332
1316528
1316716
1316898
1317080
1317258
1317436
1317614
1317800
1317992
1318186
1318384
1318600
1318782
1318960
1319142
1319364
1319614
1319862
1320094
1320320
1320536
1320740
1320934
1321128
1321342
1321620
1321848
1322056
1322254
1322444
1322636
1322862
1323118
1323358
1323586
1323800
1323996
1324176
1324360
1324548
1324750
1324960
1325166
1325390
1325598
1325810
1326018
1326280
1326528
1326766
1327002
1327232
1327462
1327698
1327934
1328170
1328406
1328644
1328880
1329114
1329344
1329546
1329736
1329944
1330226
1330488
1330726
1330964
1331202
1331430
1331658
1331892
1332128
1332362
1332596
1332824
1333046
1333264
1333472
1333682
1333892
1334140
1334380
1334612
1334828
1335030
1335228
1335428
1335700
1335956
1336206
1336442
1336676
1336900
1337124
1337334
1337522
1337700
1337890
1338102
1338384
1338648
1338898
1339132
1339352
1339564
1339766
1339962
1340162
1340366
1340598
1340860
1341104
1341336
1341558
1341770
1341978
1342180
1342378
1342576
1342776
1342972
1343168
1343368
1343568
1343772
1343986
1344190
1344396
1344604
1344814
1345018
1345226
1345426
1345608
1345790
1345976
1346166
1346360
1346556
1346754
1346956
1347154
1347340
1347512
1347686
1347866
1348054
1348284
1348520
1348744
1348954
1349154
1349350
1349550
1349752
1349952
1350152
1350360
1350578
1350778
1350970
1351156
1351346
1351542
1351742
1351952
1352170
1352384
1352588
1352790
1352990
1353192
1353392
1353588
1353784
1353980
1354178
1354376
1354574
1354776
1354976
1355180
1355382
1355580
1355782
1355990
1356194
1356396
1356594
1356782
1356958
1357136
1357318
1357498
1357690
1357874
1358060
1358246
1358432
1358620
1358804
1358986
1359168
1359354
1359544
1359730
1359920
1360116
1360306
1360492
1360682
1360874
1361068
1361260
1361446
1361630
1361816
1362018
1362224
1362452
1362666
1362856
1363036
1363224
1363418
1363624
1363842
1364066
1364308
1364546
1364770
1364988
1365192
1365392
1365586
1365782
1365976
1366176
1366386
1366598
1366808
1367032
1367252
1367472
1367696
1367912
1368120
1368328
1368532
1368732
1368934
1369136
1369340
1369550
1369758
1369966
1370178
1370374
1370568
1370752
1370932
1371102
1371272
1371450
1371652
1371864
1372080
1372292
1372498
1372696
1372888
1373070
1373244
1373418
1373586
1373758
1373932
1374108
1374290
1374474
1374652
1374830
1375006
1375182
1375362
1375542
1375722
1375900
1376086
1376276
1376470
1376662
1376856
1377050
1377242
1377432
1377628
1377824
1378026
1378220
1378414
1378602
1378784
1378968
1379146
1379328
1379506
1379690
1379870
1380052
1380236
1380422
1380606
1380784
1380964
1381142
1381322
1381502
1381680
1381862
1382046
1382236
1382428
1382620
1382810
1382998
1383182
1383366
1383546
1383720
1383888
1384058
1384234
1384412
1384590
1384776
1384964
1385156
1385348
1385540
1385730
1385922
1386114
1386306
1386496
1386684
1386870
1387056
1387246
1387428
1387606
1387786
1387964
1388142
1388322
1388504
1388694
1388884
1389080
1389274
1389462
1389650
1389838
1390020
1390208
1390396
1390574
1390748
1390914
1391082
1391256
1391430
1391596
1391772
1391952
1392134
1392316
1392502
1392690
1392876
1393058
1393240
1393420
1393592
1393766
1393938
1394108
1394280
1394454
1394630
1394812
1394996
1395182
1395370
1395558
1395748
1395940
1396128
1396316
1396504
1396686
1396860
1397030
1397196
1397364
1397540
1397718
1397904
1398094
1398290
1398486
1398682
1398880
1399078
1399276
1399476
1399676
1399876
1400076
1400270
1400466
1400658
1400852
1401050
1401250
1401444
1401636
1401824
1402010
1402194
1402380
1402570
1402750
1402922
1403094
1403262
1403428
1403592
1403756
1403926
1404098
1404276
1404454
1404638
1404824
1405004
1405188
1405368
1405546
1405726
1405904
1406080
1406256
1406430
1406602
1406776
1406952
1407130
1407302
1407472
1407646
1407824
1408004
1408184
1408368
1408552
1408746
1408944
1409138
1409334
1409526
1409728
1409924
1410118
1410308
1410502
1410690
1410878
1411066
1411254
1411436
1411618
1411802
1411992
1412178
1412374
1412562
1412748
1412932
1413118
1413302
1413488
1413666
1413840
1414010
1414180
1414350
1414516
1414684
1414852
1415020
1415186
1415348
1415508
1415672
1415840
1416008
1416182
1416360
1416538
1416720
1416900
1417082
1417262
1417440
1417610
1417776
1417946
1418120
1418304
1418486
1418670
1418846
1419024
1419200
1419380
1419556
1419732
1419906
1420080
1420256
1420434
1420614
1420800
1420988
1421178
1421370
1421560
1421748
1421936
1422126
1422314
1422508
1422700
1422896
1423088
1423280
1423472
1423666
1423858
1424046
1424238
1424424
1424612
1424794
1424976
1425158
1425342
1425524
1425704
1425886
1426068
1426254
1426440
1426628
1426818
1427008
1427198
1427388
1427572
1427754
1427934
1428112
1428290
1428470
1428650
1428832
1429016
1429202
1429392
1429582
1429774
1429964
1430150
1430340
1430528
1430714
1430894
1431072
1431242
1431408
1431570
1431738
1431906
1432076
1432244
1432416
1432590
1432766
1432942
1433116
1433288
1433462
1433636
1433812
1433990
1434166
1434342
1434516
1434690
1434864
1435036
1435214
1435388
1435570
1435752
1435934
1436112
1436288
1436460
1436634
1436808
1436980
1437154
1437328
1437504
1437678
1437852
1438022
1438188
1438354
1438522
1438688
1438854
1439024
1439196
1439372
1439550
1439728
1439906
1440084
1440262
1440440
1440612
1440784
1440954
1441122
1441288
1441458
1441630
1441804
1441976
1442148
1442322
1442490
1442656
1442824
1442994
1443166
1443336
1443506
1443676
1443848
1444020
1444190
1444362
1444534
1444702
1444872
1445036
1445204
1445372
1445542
1445708
1445874
1446038
1446200
1446364
1446530
1446700
1446872
1447042
1447202
1447366
1447536
1447710
1447884
1448062
1448240
1448418
1448590
1448762
1448938
1449114
1449288
1449462
1449638
1449814
1449986
1450160
1450334
1450506
1450672
1450836
1451000
1451166
1451334
1451506
1451682
1451860
1452034
1452206
1452380
1452552
1452726
1452898
1453074
1453250
1453424
1453600
1453774
1453952
1454130
1454302
1454474
1454646
1454818
1454992
1455164
1455336
1455510
1455682
1455856
1456026
1456196
1456370
1456542
1456710
1456872
1457038
1457204
1457372
1457550
1457726
1457906
1458086
1458262
1458440
1458618
1458792
1458968
1459148
1459328
1459504
1459678
1459850
1460028
1460204
1460382
1460558
1460732
1460904
1461074
1461244
1461414
1461586
1461760
1461934
1462108
1462284
1462458
1462632
1462804
1462974
1463142
1463310
1463476
1463644
1463812
1463984
1464154
1464326
1464496
1464660
1464826
1464994
1465160
1465322
1465484
1465644
1465806
1465964
1466124
1466286
1466446
1466606
1466768
1466930
1467096
1467260
1467426
1467592
1467758
1467924
1468090
1468252
1468414
1468576
1468738
1468902
1469064
1469230
1469400
1469574
1469746
1469912
1470080
1470250
1470416
1470578
1470736
1470894
1471048
1471204
1471362
1471520
1471684
1471852
1472022
1472194
1472368
1472542
1472718
1472892
1473070
1473246
1473424
1473600
1473774
1473948
1474118
1474288
1474462
1474638
1474814
1474988
1475162
1475336
1475510
1475684
1475856
1476030
1476204
1476378
1476552
1476728
1476904
1477082
1477260
1477434
1477612
1477784
1477954
1478122
1478288
1478452
1478616
1478778
1478936
1479094
1479250
1479408
1479570
1479734
1479902
1480072
1480240
1480410
1480582
1480752
1480918
1481084
1481246
1481408
1481570
1481736
1481902
1482068
1482236
1482408
1482582
1482754
1482926
1483102
1483278
1483454
1483630
1483804
1483974
1484140
1484306
1484468
1484634
1484802
1484968
1485136
1485304
1485468
1485634
1485794
1485956
1486122
1486284
1486448
1486610
1486774
1486938
1487102
1487264
1487426
1487586
1487746
1487908
1488074
1488240
1488404
1488566
1488726
1488888
1489050
1489214
1489376
1489542
1489708
1489874
1490042
1490208
1490374
1490538
1490704
1490866
1491028
1491192
1491354
1491516
1491676
1491838
1492002
1492164
1492328
1492494
1492656
1492818
1492986
1493152
1493320
1493488
1493658
1493824
1493996
1494164
1494336
1494506
1494678
1494850
1495022
1495194
1495364
1495536
1495710
1495884
1496060
1496232
1496408
1496582
1496754
1496920
1497086
1497248
1497410
1497574
1497738
1497910
1498082
1498258
1498430
1498604
1498776
1498944
1499112
1499280
1499448
1499616
1499786
1499956
1500124
1500296
1500464
1500636
1500808
1500980
1501150
1501320
1501490
1501662
1501832
1502000
1502168
1502338
1502508
1502676
1502846
1503016
1503186
1503356
1503522
1503686
1503850
1504012
1504176
1504342
1504508
1504678
1504848
1505022
1505198
1505374
1505550
1505724
1505900
1506072
1506246
1506416
1506586
1506758
1506926
1507094
1507260
1507432
1507606
1507778
1507952
1508126
1508296
1508464
1508628
1508794
1508958
1509120
1509284
1509448
1509610
1509774
1509934
1510092
1510248
1510404
1510564
1510728
1510892
1511060
1511228
1511398
1511568
1511734
1511902
1512068
1512234
1512398
1512564
1512728
1512894
1513060
1513226
1513390
1513554
1513718
1513886
1514058
1514234
1514410
1514584
1514754
1514924
1515092
1515258
1515424
1515592
1515758
1515930
1516102
1516274
1516448
1516622
1516794
1516964
1517134
1517300
1517470
1517638
1517808
1517974
1518146
1518314
1518484
1518656
1518826
1518996
1519168
1519344
1519522
1519702
1519882
1520066
1520250
1520432
1520616
1520796
1520976
1521158
1521338
1521512
1521678
1521838
1522004
1522172
1522342
1522512
1522686
1522862
1523036
1523208
1523374
1523538
1523700
1523860
1524022
1524188
1524358
1524526
1524694
1524860
1525026
1525190
1525358
1525526
1525692
1525860
1526028
1526194
1526362
1526526
1526692
1526854
1527016
1527184
1527360
1527544
1527738
1527934
1528128
1528320
1528508
1528698
1528884
1529072
1529258
1529440
1529622
1529798
1529978
1530160
1530342
1530524
1530704
1530882
1531058
1531240
1531420
1531598
1531778
1531954
1532132
1532308
1532486
1532662
1532840
1533016
1533192
1533366
1533544
1533724
1533902
1534078
1534254
1534426
1534598
1534770
1534942
1535118
1535298
1535488
1535682
1535876
1536070
1536276
1536480
1536690
1536886
1537070
1537246
1537420
1537590
1537758
1537926
1538094
1538262
1538426
1538588
1538750
1538910
1539074
1539238
1539400
1539564
1539730
1539896
1540064
1540234
1540404
1540574
1540746
1540920
1541098
1541280
1541458
1541636
1541810
1541984
1542158
1542328
1542500
1542672
1542844
1543018
1543192
1543368
1543542
1543720
1543898
1544084
1544264
1544446
1544626
1544808
1544988
1545170
1545350
1545526
1545702
1545876
1546052
1546228
1546406
1546584
1546760
1546936
1547112
1547292
1547470
1547646
1547818
1547986
1548148
1548308
1548470
1548638
1548808
1548980
1549154
1549330
1549508
1549688
1549866
1550046
1550224
1550404
1550584
1550764
1550942
1551120
1551300
1551482
1551662
1551846
1552026
1552208
1552390
1552572
1552752
1552930
1553108
1553282
1553454
1553620
1553788
1553950
1554110
1554270
1554434
1554598
1554766
1554942
1555122
1555304
1555488
1555668
1555850
1556026
1556202
1556378
1556552
1556740
1556926
1557108
1557290
1557470
1557646
1557820
1557996
1558170
1558344
1558518
1558692
1558862
1559030
1559200
1559368
1559538
1559710
1559882
1560052
1560224
1560394
1560562
1560732
1560898
1561066
1561232
1561394
1561556
1561716
1561876
1562038
1562200
1562364
1562530
1562698
1562866
1563040
1563216
1563390
1563564
1563740
1563918
1564098
1564276
1564456
1564628
1564802
1564974
1565142
1565314
1565482
1565648
1565816
1565982
1566150
1566318
1566486
1566656
1566826
1566996
1567168
1567338
1567510
1567682
1567854
1568026
1568196
1568368
1568546
1568724
1568902
1569072
1569242
1569414
1569586
1569756
1569928
1570096
1570260
1570426
1570594
1570762
1570930
1571102
1571270
1571440
1571612
1571786
1571970
1572150
1572328
1572508
1572688
1572870
1573056
1573240
1573422
1573604
1573782
1573956
1574128
1574304
1574478
1574654
1574832
1575006
1575182
1575360
1575538
1575716
1575896
1576072
1576244
1576420
1576590
1576760
1576930
1577100
1577266
1577432
1577598
1577766
1577936
1578106
1578280
1578452
1578622
1578790
1578960
1579128
1579298
1579474
1579654
1579832
1580014
1580196
1580384
1580574
1580760
1580950
1581134
1581314
1581496
1581674
1581856
1582034
1582210
1582382
1582548
1582714
1582886
1583064
1583246
1583430
1583612
1583794
1583976
1584158
1584346
1584538
1584732
1584922
1585110
1585294
1585478
1585656
1585836
1586016
1586194
1586370
1586546
1586730
1586920
1587110
1587300
1587490
1587682
1587868
1588058
1588242
1588424
1588606
1588782
1588960
1589138
1589316
1589496
1589676
1589860
1590040
1590220
1590398
1590576
1590754
1590934
1591110
1591284
1591460
1591636
1591818
1592000
1592182
1592364
1592544
1592728
1592916
1593106
1593296
1593484
1593668
1593848
1594030
1594212
1594392
1594560
1594728
1594900
1595074
1595254
1595432
1595614
1595790
1595966
1596144
1596324
1596504
1596690
1596878
1597062
1597250
1597434
1597618
1597798
1597980
1598160
1598338
1598514
1598690
1598864
1599038
1599210
1599384
1599558
1599732
1599906
1600082
1600260
1600436
1600608
1600780
1600952
1601126
1601298
1601472
1601644
1601818
1601994
1602168
1602338
1602502
1602664
1602822
1602988
1603154
1603324
1603496
1603674
1603852
1604032
1604206
1604378
1604548
1604720
1604894
1605066
1605240
1605410
1605584
1605754
1605926
1606096
1606268
1606442
1606616
1606792
1606964
1607140
1607310
1607482
1607652
1607822
1607992
1608160
1608330
1608500
1608672
1608846
1609022
1609196
1609362
1609532
1609700
1609872
1610040
1610212
1610380
1610548
1610716
1610882
1611048
1611214
1611384
1611552
1611726
1611900
1612076
1612254
1612430
1612604
1612782
1612958
1613132
1613304
1613472
1613636
1613796
1613960
1614126
1614296
1614464
1614634
1614802
1614970
1615142
1615312
1615484
1615654
1615824
1615992
1616156
1616318
1616478
1616636
1616792
1616946
1617098
1617250
1617406
1617570
1617734
1617906
1618080
1618264
1618450
1618638
1618826
1619014
1619200
1619382
1619564
1619748
1619936
1620122
1620306
1620490
1620676
1620862
1621046
1621236
1621424
1621610
1621798
1621988
1622174
1622354
1622532
1622706
1622882
1623056
1623230
1623408
1623582
1623758
1623934
1624106
1624282
1624456
1624630
1624802
1624972
1625144
1625308
1625472
1625634
1625794
1625958
1626124
1626288
1626452
1626620
1626788
1626966
1627146
1627334
1627524
1627714
1627904
1628088
1628274
1628458
1628638
1628822
1629000
1629180
1629356
1629534
1629712
1629888
1630068
1630248
1630426
1630604
1630778
1630952
1631120
1631288
1631452
1631616
1631774
1631934
1632094
1632256
1632418
1632586
1632752
1632922
1633092
1633262
1633432
1633602
1633772
1633940
1634106
1634272
1634438
1634610
1634782
1634952
1635122
1635294
1635466
1635636
1635806
1635974
1636134
1636292
1636452
1636614
1636776
1636942
1637108
1637276
1637444
1637614
1637784
1637952
1638124
1638292
1638462
1638634
1638806
1638974
1639144
1639314
1639486
1639654
1639826
1639996
1640164
1640336
1640504
1640674
1640846
1641016
1641184
1641352
1641518
1641684
1641846
1642008
1642170
1642332
1642494
1642658
1642820
1642984
1643150
1643314
1643482
1643648
1643816
1643982
1644150
1644320
1644486
1644656
1644828
1644996
1645166
1645338
1645506
1645678
1645850
1646018
1646188
1646358
1646526
1646694
1646860
1647022
1647182
1647346
1647510
1647676
1647846
1648022
1648200
1648382
1648558
1648730
1648902
1649076
1649246
1649418
1649590
1649764
1649934
1650104
1650278
1650452
1650624
1650804
1650972
1651136
1651294
1651450
1651604
1651762
1651920
1652080
1652244
1652406
1652568
1652726
1652884
1653042
1653200
1653364
1653526
1653690
1653854
1654022
1654192
1654362
1654530
1654700
1654868
1655036
1655206
1655378
1655550
1655720
1655892
1656058
1656222
1656384
1656548
1656712
1656878
1657044
1657212
1657376
1657546
1657722
1657898
1658080
1658258
1658432
1658602
1658768
1658936
1659100
1659264
1659430
1659594
1659756
1659918
1660080
1660242
1660404
1660568
1660734
1660902
1661068
1661238
1661410
1661584
1661762
1661948
1662136
1662326
1662512
1662700
1662884
1663064
1663244
1663422
1663600
1663780
1663956
1664132
1664310
1664486
1664660
1664832
1665004
1665178
1665350
1665522
1665690
1665854
1666016
1666172
1666336
1666502
1666668
1666832
1667000
1667170
1667342
1667514
1667686
1667862
1668042
1668222
1668402
1668582
1668760
1668934
1669108
1669278
1669448
1669614
1669782
1669950
1670116
1670282
1670456
1670632
1670810
1670992
1671170
1671352
1671538
1671724
1671900
1672062
1672232
1672406
1672582
1672758
1672942
1673128
1673314
1673498
1673682
1673864
1674050
1674238
1674424
1674610
1674792
1674978
1675168
1675360
1675558
1675748
1675936
1676118
1676300
1676478
1676660
1676840
1677020
1677200
1677382
1677560
1677742
1677924
1678102
1678280
1678456
1678634
1678804
1678976
1679144
1679316
1679490
1679662
1679836
1680010
1680188
1680362
1680536
1680706
1680874
1681044
1681212
1681382
1681546
1681716
1681892
1682070
1682250
1682430
1682610
1682786
1682962
1683140
1683318
1683492
1683662
1683826
1683992
1684164
1684338
1684512
1684686
1684860
1685038
1685218
1685398
1685574
1685748
1685924
1686092
1686264
1686436
1686604
1686776
1686950
1687124
1687296
1687468
1687636
1687802
1687968
1688130
1688296
1688458
1688628
1688802
1688982
1689162
1689344
1689524
1689706
1689888
1690066
1690250
1690430
1690610
1690792
1690970
1691148
1691324
1691502
1691678
1691848
1692016
1692180
1692348
1692518
1692690
1692864
1693038
1693214
1693390
1693566
1693742
1693920
1694092
1694264
1694434
1694602
1694772
1694942
1695118
1695298
1695476
1695646
1695814
1695982
1696150
1696316
1696484
1696652
1696824
1696998
1697180
1697362
1697546
1697732
1697916
1698102
1698292
1698476
1698658
1698842
1699022
1699198
1699374
1699548
1699718
1699888
1700056
1700220
1700388
1700554
1700722
1700894
1701062
1701232
1701404
1701576
1701750
1701924
1702098
1702274
1702446
1702622
1702800
1702972
1703134
1703300
1703464
1703632
1703802
1703974
1704146
1704318
1704488
1704660
1704832
1705008
1705182
1705354
1705526
1705698
1705868
1706038
1706204
1706366
1706534
1706702
1706878
1707056
1707244
1707434
1707626
1707818
1708012
1708208
1708398
1708586
1708770
1708952
1709132
1709310
1709486
1709660
1709830
1710000
1710170
1710340
1710510
1710684
1710862
1711038
1711220
1711400
1711578
1711756
1711932
1712110
1712288
1712464
1712638
1712810
1712984
1713152
1713322
1713484
1713648
1713808
1713970
1714138
1714312
1714486
1714668
1714854
1715042
1715230
1715416
1715600
1715778
1715952
1716124
1716298
1716470
1716644
1716818
1716994
1717170
1717344
1717516
1717688
1717860
1718030
1718202
1718370
1718540
1718712
1718882
1719052
1719222
1719390
1719558
1719724
1719886
1720042
1720200
1720360
1720526
1720696
1720868
1721048
1721228
1721414
1721602
1721786
1721972
1722154
1722334
1722512
1722688
1722866
1723042
1723220
1723398
1723576
1723756
1723934
1724116
1724296
1724476
1724652
1724830
1725004
1725176
1725352
1725530
1725706
1725880
1726056
1726232
1726404
1726576
1726746
1726914
1727080
1727248
1727418
1727588
1727760
1727934
1728104
1728278
1728450
1728622
1728792
1728960
1729124
1729290
1729454
1729620
1729786
1729954
1730120
1730288
1730454
1730620
1730788
1730956
1731126
1731296
1731468
1731646
1731824
1732004
1732180
1732358
1732532
1732710
1732878
1733046
1733212
1733376
1733540
1733702
1733866
1734028
1734192
1734358
1734528
1734696
1734870
1735042
1735212
1735382
1735546
1735712
1735878
1736044
1736208
1736368
1736526
1736680
1736836
1736992
1737150
1737310
1737472
1737634
1737800
1737964
1738128
1738296
1738462
1738630
1738798
1738972
1739144
1739320
1739498
1739672
1739842
1740008
1740172
1740338
1740506
1740672
1740838
1741000
1741162
1741322
1741482
1741642
1741800
1741958
1742120
1742288
1742468
1742650
1742846
1743042
1743234
1743422
1743608
1743792
1743968
1744140
1744312
1744478
1744638
1744800
1744960
1745126
1745296
1745468
1745642
1745816
1745994
1746176
1746356
1746542
1746724
1746904
1747080
1747258
1747436
1747612
1747788
1747962
1748138
1748316
1748496
1748678
1748864
1749058
1749248
1749436
1749618
1749804
1749988
1750172
1750352
1750534
1750712
1750890
1751074
1751258
1751444
1751636
1751826
1752014
1752194
1752376
1752556
1752744
1752936
1753196
1753430
1753660
1753878
1754088
1754284
1754480
1754678
1754878
1755074
1755266
1755454
1755640
1755824
1756002
1756172
1756344
1756518
1756696
1756876
1757054
1757234
1757416
1757592
1757770
1757948
1758126
1758300
1758474
1758648
1758820
1758994
1759176
1759360
1759542
1759722
1759902
1760086
1760270
1760458
1760646
1760828
1761012
1761194
1761380
1761566
1761750
1761942
1762134
1762328
1762520
1762712
1762902
1763086
1763270
1763448
1763626
1763804
1763982
1764162
1764338
1764508
1764678
1764852
1765028
1765208
1765386
1765566
1765746
1765922
1766092
1766258
1766424
1766594
1766762
1766930
1767098
1767272
1767446
1767620
1767786
1767958
1768132
1768314
1768500
1768688
1768878
1769068
1769258
1769446
1769632
1769818
1770002
1770186
1770368
1770548
1770726
1770900
1771076
1771250
1771426
1771600
1771772
1771952
1772136
1772322
1772510
1772696
1772888
1773076
1773262
1773444
1773622
1773798
1773976
1774154
1774332
1774514
1774700
1774886
1775070
1775260
1775450
1775640
1775826
1776012
1776196
1776378
1776554
1776722
1776890
1777064
1777242
1777424
1777612
1777796
1777988
1778178
1778362
1778550
1778738
1778920
1779102
1779282
1779460
1779638
1779814
1779990
1780166
1780342
1780514
1780690
1780864
1781036
1781212
1781386
1781562
1781738
1781910
1782084
1782260
1782440
1782620
1782800
1782982
1783162
1783346
1783532
1783720
1783910
1784098
1784290
1784482
1784674
1784864
1785052
1785236
1785414
1785590
1785770
1785946
1786124
1786302
1786478
1786650
1786816
1786980
1787142
1787302
1787466
1787628
1787794
1787962
1788136
1788304
1788468
1788632
1788806
1788988
1789174
1789356
1789538
1789722
1789908
1790090
1790272
1790456
1790646
1790836
1791024
1791212
1791398
1791582
1791766
1791954
1792144
1792338
1792530
1792722
1792912
1793096
1793278
1793464
1793646
1793826
1794000
1794174
1794348
1794522
1794698
1794876
1795054
1795232
1795414
1795596
1795782
1795966
1796150
1796336
1796520
1796708
1796898
1797086
1797270
1797444
1797616
1797784
1797948
1798110
1798274
1798440
1798606
1798772
1798938
1799110
1799288
1799464
1799646
1799826
