peaks
8
273
532
790
1042
1296
1548
1794
2036
2280
2528
2776
3024
3276
3530
3780
4028
4278
4528
4774
5022
5272
5522
5772
6020
6266
6518
6772
7030
7290
7552
7812
8070
8328
8580
8832
9080
9328
9566
9804
10044
10290
10540
10790
11048
11308
11566
11818
12074
12326
12574
12822
13066
13304
13538
13768
13998
14232
14472
14720
14970
15222
15478
15736
15994
16248
16504
16762
17016
17268
17520
17774
18030
18290
18546
18804
19066
19330
19592
19854
20110
20370
20628
20882
21140
21404
21670
21936
22204
22472
22730
22980
23232
23484
23732
23978
24226
24474
24722
24966
25216
25470
25724
25978
26238
26500
26762
27024
27290
27554
27818
28076
28338
28600
28864
29128
29388
29646
29908
30172
30440
30704
30962
31220
31484
31748
32010
32268
32530
32792
33058
33320
33580
33836
34082
34330
34582
34836
35084
35338
35598
35860
36118
36376
36636
36898
37156
37414
37668
37914
38160
38406
38650
38894
39140
39386
39632
39882
40140
40400
40660
40916
41174
41432
41688
41942
42194
42450
42714
42980
43246
43514
43784
44054
44318
44584
44848
45106
45360
45612
45866
46120
46374
46628
46896
47168
47434
47698
47964
48224
48478
48732
48986
49240
49488
49738
49990
50248
50508
50766
51030
51296
51560
51826
52092
52358
52622
52884
53144
53404
53664
53930
54194
54462
54728
54992
55254
55516
55788
56062
56336
56600
56858
57116
57372
57620
57862
58108
58354
58604
58854
59100
59354
59610
59866
60120
60382
60648
60916
61184
61448
61716
61984
62250
62516
62784
63050
63316
63582
63848
64112
64380
64642
64902
65162
65422
65682
65938
66188
66442
66698
66952
67204
67458
67716
67972
68224
68478
68732
68988
69240
69490
69746
70008
70266
70526
70792
71054
71310
71562
71812
72056
72292
72522
72752
72980
73210
73440
73678
73920
74164
74404
74640
74876
75110
75340
75562
75786
76004
76220
76434
76644
76858
77072
77288
77504
77720
77934
78152
78370
78586
78802
79020
79244
79472
79704
79948
80206
80470
80732
80974
81216
81460
81704
81952
82206
82468
82730
82984
83248
83516
83788
84056
84312
84572
84832
85098
85364
85626
85894
86164
86436
86696
86950
87208
87464
87720
87974
88226
88482
88744
89014
89286
89548
89810
90072
90332
90592
90848
91094
91346
91602
91858
92116
92378
92632
92892
93158
93432
93708
93978
94252
94524
94792
95050
95300
95554
95808
96060
96306
96552
96806
97060
97312
97554
97800
98048
98298
98546
98792
99042
99302
99566
99830
100096
100364
100630
100894
101150
101408
101670
101934
102190
102448
102708
102972
103238
103502
103762
104022
104280
104532
104780
105028
105276
105528
105778
106028
106284
106542
106800
107054
107314
107574
107824
108070
108318
108570
108824
109074
109324
109580
109840
110096
110344
110596
110850
111104
111356
111616
111880
112148
112416
112682
112952
113218
113482
113744
114006
114268
114528
114780
115038
115302
115560
115816
116064
116318
116580
116846
117114
117386
117654
117918
118178
118440
118698
118954
119206
119464
119726
119982
120236
120486
120732
120974
121218
121468
121716
121960
122212
122464
122716
122964
123216
123468
123724
123976
124226
124476
124728
124976
125230
125488
125756
126022
126292
126560
126832
127108
127378
127648
127904
128162
128420
128680
128938
129192
129452
129716
129972
130222
130478
130736
130984
131228
131476
131730
131978
132220
132464
132708
132952
133190
133430
133670
133914
134156
134398
134648
134900
135156
135410
135658
135896
136124
136354
136580
136806
137030
137250
137470
137686
137900
138106
138312
138518
138718
138914
139108
139308
139514
139736
139993
140244
140506
140758
141000
141244
141490
141734
141970
142202
142432
142656
142884
143116
143350
143588
143824
144060
144292
144520
144750
144982
145220
145468
145720
145968
146222
146478
146730
146974
147216
147458
147696
147932
148166
148406
148650
148894
149134
149376
149618
149854
150092
150326
150554
150774
150994
151208
151422
151632
151848
152066
152290
152520
152756
153000
153248
153500
153752
153998
154244
154494
154742
154988
155232
155470
155708
155944
156176
156404
156628
156856
157084
157312
157550
157800
158056
158308
158552
158798
159040
159282
159522
159756
159990
160228
160476
160732
160996
161258
161522
161782
162036
162284
162524
162762
162998
163234
163462
163690
163920
164150
164384
164620
164858
165096
165336
165570
165804
166038
166272
166504
166732
166964
167200
167440
167684
167924
168164
168400
168628
168860
169088
169318
169544
169772
170004
170242
170480
170722
170960
171200
171444
171686
171932
172174
172414
172658
172902
173144
173384
173616
173850
174082
174306
174532
174752
174968
175174
175380
175580
175774
175970
176166
176356
176548
176734
176924
177114
177304
177496
177688
177880
178074
178270
178466
178670
178876
179088
179304
179516
179732
179944
180156
180374
180592
180808
181026
181240
181458
181670
181880
182088
182296
182500
182706
182914
183124
183334
183544
183756
183964
184172
184380
184590
184802
185016
185230
185448
185668
185890
186112
186332
186546
186764
186982
187200
187422
187652
187876
188106
188336
188566
188796
189026
189258
189490
189722
189952
190184
190412
190638
190860
191082
191304
191524
191748
191968
192188
192412
192642
192868
193094
193322
193546
193766
193990
194218
194448
194678
194914
195154
195392
195630
195872
196114
196358
196600
196838
197076
197316
197558
197802
198048
198296
198546
198792
199036
199278
199516
199744
199970
200196
200424
200654
200886
201122
201360
201598
201844
202092
202338
202580
202822
203068
203314
203560
203802
204046
204292
204536
204778
205018
205256
205492
205726
205960
206194
206426
206658
206886
207110
207334
207556
207774
207992
208210
208422
208634
208848
209068
209290
209518
209750
209984
210222
210456
210694
210932
211172
211412
211650
211890
212130
212366
212606
212844
213080
213318
213550
213786
214024
214258
214484
214708
214930
215150
215372
215598
215828
216060
216290
216524
216764
217002
217242
217484
217724
217964
218202
218436
218670
218908
219148
219388
219630
219876
220124
220370
220618
220862
221106
221352
221596
221834
222072
222306
222538
222768
223000
223234
223464
223694
223930
224168
224408
224648
224890
225130
225376
225622
225866
226108
226352
226592
226828
227062
227300
227540
227782
228026
228274
228526
228778
229028
229274
229518
229764
230004
230246
230492
230738
230986
231240
231492
231734
231976
232220
232464
232704
232942
233178
233410
233638
233868
234094
234320
234544
234764
234982
235202
235426
235652
235882
236118
236364
236612
236868
237126
237378
237632
237888
238142
238394
238646
238898
239152
239414
239678
239936
240192
240442
240694
240946
241196
241452
241710
241970
242228
242488
242754
243018
243274
243528
243788
244054
244312
244568
244820
245064
245302
245546
245794
246040
246298
246560
246822
247080
247336
247598
247862
248124
248386
248644
248906
249170
249432
249696
249958
250216
250482
250752
251010
251264
251518
251776
252034
252288
252542
252802
253060
253318
253570
253818
254062
254298
254530
254760
254992
255224
255458
255692
255920
256148
256380
256610
256836
257062
257294
257532
257784
258040
258302
258564
258834
259104
259378
259648
259920
260184
260450
260720
260992
261262
261524
261790
262056
262322
262578
262830
263070
263304
263542
263782
264028
264284
264546
264808
265068
265332
265602
265870
266136
266400
266668
266936
267206
267476
267742
268016
268292
268572
268854
269130
269408
269686
269962
270236
270506
270774
271044
271312
271580
271852
272128
272400
272668
272932
273196
273460
273716
273976
274238
274504
274768
275030
275300
275572
275840
276100
276362
276620
276876
277132
277386
277644
277904
278168
278434
278700
278968
279232
279502
279774
280046
280320
280592
280862
281126
281394
281660
281928
282194
282456
282716
282976
283244
283518
283786
284048
284312
284580
284842
285096
285352
285614
285874
286124
286374
286626
286868
287120
287352
287590
287824
288056
288286
288518
288756
289000
289258
289524
289796
290066
290334
290602
290864
291126
291388
291656
291928
292198
292464
292736
293014
293294
293572
293842
294104
294368
294632
294892
295150
295404
295662
295922
296190
296456
296722
296996
297272
297548
297822
298090
298364
298642
298922
299196
299472
299748
300024
300296
300564
300828
301086
301344
301608
301870
302130
302394
302658
302920
303188
303462
303736
304004
304272
304538
304808
305076
305338
305606
305876
306144
306408
306676
306946
307212
307474
307730
307988
308244
308498
308746
308996
309242
309478
309712
309948
310182
310418
310648
310882
311112
311342
311566
311796
312008
312224
312442
312644
312850
313054
313256
313456
313654
313856
314056
314260
314470
314690
314918
315148
315382
315622
315868
316120
316380
316640
316898
317162
317426
317690
317956
318220
318490
318762
319036
319300
319558
319810
320054
320292
320524
320749
320970
321186
321400
321612
321822
322034
322252
322480
322728
322980
323234
323494
323762
324032
324294
324556
324816
325074
325328
325576
325824
326074
326322
326574
326832
327094
327354
327616
327878
328140
328396
328646
328892
329142
329392
329640
329890
330140
330388
330636
330892
331150
331410
331666
331916
332170
332426
332682
332930
333174
333430
333688
333944
334194
334444
334696
334948
335196
335446
335698
335954
336212
336474
336738
337004
337266
337530
337794
338056
338316
338576
338834
339092
339352
339608
339864
340122
340386
340648
340908
341164
341422
341674
341918
342158
342406
342658
342910
343158
343412
343666
343916
344166
344420
344674
344922
345174
345430
345682
345936
346194
346452
346708
346962
347216
347468
347716
347960
348202
348438
348672
348908
349142
349372
349606
349842
350080
350318
350566
350820
351076
351328
351578
351830
352078
352322
352566
352810
353050
353286
353526
353768
354014
354260
354514
354776
355040
355300
355560
355818
356064
356310
356552
356794
357030
357264
357498
357728
357956
358182
358408
358640
358878
359136
359400
359660
359916
360172
360428
360676
360920
361168
361412
361656
361896
362140
362388
362634
362884
363138
363394
363650
363910
364168
364420
364668
364916
365162
365406
365648
365890
366134
366382
366632
366882
367138
367392
367648
367900
368156
368412
368668
368918
369172
369424
369674
369918
370166
370414
370656
370898
371144
371390
371626
371860
372100
372340
372580
372826
373074
373324
373568
373814
374062
374308
374556
374800
375050
375300
375550
375800
376052
376308
376564
376820
377082
377340
377596
377852
378108
378364
378614
378860
379106
379354
379604
379848
380096
380344
380592
380834
381078
381326
381572
381816
382064
382314
382566
382818
383070
383326
383584
383836
384090
384344
384596
384842
385090
385334
385572
385806
386042
386280
386514
386748
386982
387216
387452
387694
387938
388180
388426
388674
388924
389174
389424
389682
389924
390168
390418
390670
390922
391176
391434
391700
391970
392242
392518
392792
393070
393352
393618
393876
394144
394412
394674
394932
395190
395438
395670
395920
396146
396376
396592
396804
397218
397424
397632
397844
398062
398288
398550
398804
399066
399324
399564
399798
400030
400258
400480
400700
400906
401126
401336
401546
401758
401972
402202
402454
402728
403006
403266
403520
403766
404004
404244
404482
404716
404946
405174
405400
405622
405842
406064
406292
406524
406752
406992
407236
407482
407726
407970
408220
408472
408716
408966
409218
409466
409716
409970
410228
410478
410730
410982
411230
411472
411708
411952
412202
412452
412702
412950
413198
413442
413682
413916
414152
414382
414618
414856
415100
415340
415584
415834
416072
416308
416548
416786
417028
417278
417534
417796
418056
418314
418580
418848
419106
419364
419636
419908
420178
420438
420700
420966
421226
421480
421736
421986
422234
422486
422750
422996
423248
423492
423734
423971
424208
424442
424678
424914
425150
425370
425598
425824
426052
426288
426532
426784
427052
427332
427614
427890
428156
428428
428700
428970
429236
429496
429760
430026
430294
430552
430798
431050
431308
431560
431808
432054
432302
432542
432780
433018
433250
433476
433684
433900
434110
434316
434520
434720
434922
435128
435344
435580
435836
436100
436368
436636
436914
437200
437486
437764
438040
438318
438596
438874
439144
439408
439668
439924
440174
440428
440684
440944
441206
441464
441722
441990
442264
442538
442806
443076
443344
443614
443884
444156
444416
444682
444948
445212
445478
445746
446008
446262
446518
446778
447042
447310
447574
447828
448074
448328
448576
448826
449074
449322
449572
449818
450064
450306
450548
450788
451018
451248
451468
451690
451914
452136
452358
452580
452800
453018
453232
453448
453664
453878
454086
454298
454518
454746
454982
455218
455446
455678
455910
456140
456376
456606
456834
457056
457280
457504
457714
457932
458146
458578
458790
459010
459232
459458
459684
459918
460156
460400
460640
460886
461136
461390
461646
461898
462152
462406
462658
462906
463152
463398
463640
463880
464126
464370
464620
464870
465116
465368
465620
465870
466124
466372
466608
466850
467092
467332
467572
467804
468042
468282
468522
468762
468996
469236
469482
469730
469976
470218
470464
470716
470968
471222
471470
471722
471976
472228
472478
472722
472966
473208
473448
473688
473930
474178
474426
474670
474912
475160
475412
475666
475914
476164
476416
476670
476926
477176
477426
477682
477938
478188
478434
478686
478936
479182
479420
479662
479900
480132
480360
480592
480822
481052
481288
481526
481770
482010
482244
482480
482720
482962
483206
483446
483694
483948
484208
484470
484724
484980
485238
485496
485756
486012
486266
486524
486784
487046
487302
487552
487802
488058
488312
488562
488810
489062
489312
489558
489800
490042
490288
490532
490770
491014
491262
491512
491762
492010
492262
492514
492762
493000
493242
493486
493726
493964
494200
494440
494682
494926
495166
495414
495668
495928
496180
496436
496696
496956
497210
497460
497712
497964
498220
498474
498724
498980
499234
499486
499728
499976
500228
500474
500716
500962
501214
501470
501718
501964
502214
502466
502710
502950
503196
503444
503696
503944
504192
504448
504704
504958
505210
505466
505724
505978
506230
506486
506742
506996
507252
507504
507758
508016
508274
508530
508782
509034
509286
509536
509778
510026
510278
510536
510794
511038
511288
511538
511784
512022
512256
512490
512728
512966
513198
513436
513682
513926
514168
514414
514664
514920
515176
515430
515690
515952
516214
516476
516736
517002
517270
517538
517796
518052
518308
518568
518826
519082
519336
519590
519850
520108
520366
520622
520886
521144
521394
521642
521894
522142
522388
522634
522884
523138
523392
523644
523898
524158
524408
524660
524914
525170
525418
525672
525926
526178
526426
526684
526944
527204
527454
527710
527966
528220
528470
528716
528960
529206
529452
529694
529940
530192
530448
530702
530960
531214
531470
531722
531978
532234
532490
532740
532990
533244
533502
533758
534012
534270
534528
534788
535044
535298
535550
535806
536052
536298
536548
536804
537058
537310
537566
537820
538070
538316
538560
538802
539050
539298
539546
539798
540054
540314
540570
540828
541086
541340
541586
541834
542082
542330
542576
542820
543066
543316
543568
543814
544060
544314
544570
544826
545078
545336
545596
545854
546108
546362
546616
546874
547130
547384
547640
547896
548150
548404
548658
548916
549170
549424
549684
549944
550202
550462
550720
550976
551224
551472
551720
551968
552210
552452
552696
552946
553194
553438
553690
553942
554192
554438
554690
554948
555212
555476
555744
556012
556278
556538
556796
557054
557310
557562
557810
558062
558316
558578
558838
559086
559326
559562
559792
560012
560228
560446
560660
560868
561078
561294
561514
561730
561952
562176
562394
562606
562820
563034
563246
563462
563682
563904
564132
564376
564632
564896
565164
565434
565708
565982
566252
566520
566782
567040
567300
567566
567834
568104
568366
568620
568874
569132
569390
569642
569884
570132
570388
570650
570908
571170
571432
571690
571940
572180
572424
572672
572920
573164
573412
573672
573936
574200
574460
574720
574982
575238
575488
575732
575980
576226
576468
576708
576956
577212
577472
577730
577996
578260
578522
578782
579040
579300
579560
579814
580068
580326
580582
580830
581072
581316
581562
581802
582034
582272
582514
582756
582992
583230
583472
583710
583942
584176
584414
584650
584886
585120
585358
585598
585838
586080
586324
586570
586820
587070
587324
587578
587828
588072
588318
588566
588812
589056
589292
589532
589776
590022
590266
590508
590748
590994
591240
591484
591724
591958
592196
592434
592672
592908
593144
593384
593628
593874
594114
594360
594604
594842
595076
595314
595552
595794
596030
596274
596520
596772
597026
597272
597518
597766
598012
598254
598496
598742
598990
599240
599488
599738
599984
600228
600464
600696
600928
601166
601400
601636
601870
602108
602350
602596
602840
603082
603326
603572
603820
604064
604302
604542
604782
605020
605254
605486
605720
605958
606196
606426
606664
606908
607152
607390
607634
607878
608122
608358
608600
608842
609084
609326
609570
609820
610072
610326
610578
610834
611088
611338
611580
611820
612066
612312
612560
612804
613044
613286
613530
613752
613972
614188
614402
614608
614808
615002
615194
615390
615582
615770
615960
616150
616334
616516
616696
616874
617058
617236
617408
617596
617790
617996
618204
618442
618728
619026
619334
619644
619944
620241
620514
620778
621038
621292
621546
621794
622040
622292
622550
622804
623058
623318
623576
623830
624080
624328
624580
624838
625100
625356
625608
625864
626118
626366
626604
626848
627094
627326
627570
627806
628044
628288
628532
628774
629012
629250
629494
629744
630000
630256
630518
630794
631064
631328
631590
631856
632116
632372
632628
632884
633144
633402
633672
633954
634240
634518
634792
635050
635306
635558
635808
636050
636290
636536
636782
637028
637272
637516
637764
638014
638264
638510
638762
639030
639312
639592
639868
640136
640402
640670
640938
641204
641466
641728
641996
642268
642542
642812
643082
643350
643620
643898
644182
644458
644730
645000
645258
645510
645760
646006
646252
646488
646720
646958
647200
647454
647718
647990
648264
648536
648816
649094
649368
649642
649924
650208
650488
650766
651052
651338
651628
651908
652190
652474
652758
653040
653324
653608
653896
654184
654468
654752
655038
655318
655592
655860
656134
656410
656680
656948
657220
657496
657776
658056
658332
658616
658900
659182
659462
659742
660026
660304
660576
660852
661132
661412
661686
661954
662228
662504
662780
663056
663334
663606
663878
664150
664428
664708
664992
665274
665556
665838
666118
666394
666668
666948
667228
667508
667784
668062
668336
668606
668874
669152
669432
669710
669992
670276
670558
670836
671114
671388
671658
671936
672218
672502
672784
673068
673356
673636
673912
674192
674474
674758
675044
675326
675612
675898
676182
676460
676736
677012
677290
677562
677840
678120
678396
678672
678950
679232
679510
679782
680038
680304
680574
680844
681114
681382
681648
681916
682190
682464
682740
683014
683284
683556
683832
684108
684384
684656
684928
685196
685466
685738
686010
686286
686564
686842
687120
687400
687678
687952
688216
688482
688746
689002
689264
689536
689802
690058
690322
690582
690836
691086
691340
691594
691848
692106
692366
692626
692884
693142
693408
693678
693950
694220
694496
694770
695044
695316
695588
695862
696128
696394
696658
696924
697194
697468
697746
698028
698314
698596
698876
699152
699420
699682
699942
700206
700466
700724
700982
701244
701504
701774
702046
702312
702568
702828
703088
703352
703618
703892
704168
704442
704718
704992
705270
705546
705826
706104
706384
706658
706934
707210
707488
707764
708038
708308
708578
708846
709110
709368
709628
709888
710150
710416
710688
710966
711242
711512
711786
712056
712324
712586
712848
713110
713372
713630
713900
714174
714444
714714
714986
715256
715530
715808
716088
716362
716632
716904
717170
717436
717706
717976
718236
718496
718752
719008
719268
719536
719808
720090
720372
720656
720934
721214
721496
721778
722058
722338
722616
722886
723148
723414
723678
723936
724200
724472
724746
725012
725280
725548
725816
726084
726356
726632
726904
727170
727442
727716
727994
728274
728554
728836
729118
729400
729684
729966
730246
730524
730802
731076
731352
731630
731912
732192
732476
732758
733042
733322
733592
733862
734130
734386
734638
734890
735142
735388
735640
735890
736138
736390
736644
736896
737152
737408
737666
737922
738178
738436
738694
738954
739222
739494
739778
740060
740342
740632
740924
741212
741500
741782
742064
742350
742634
742920
743204
743486
743760
744030
744304
744578
744854
745134
745428
745732
746034
746322
746594
746868
747136
747396
747652
747908
748168
748436
748704
748978
749260
749540
749822
750102
750382
750660
750938
751218
751502
751782
752062
752340
752620
752900
753170
753440
753712
753966
754222
754475
754731
754974
755218
755458
755698
755932
756162
756388
756616
756842
757068
757298
757524
757752
757978
758204
758424
758638
758850
759060
759268
759474
759674
759884
760090
760298
760506
760718
760934
761156
761386
761622
761862
762112
762362
762602
762844
763076
763308
763548
763794
764038
764292
764556
764822
765084
765346
765612
765880
766142
766400
766660
766928
767196
767462
767728
767998
768274
768550
768826
769110
769396
769680
769966
770242
770512
770786
771062
771342
771616
771880
772146
772418
772690
772956
773216
773480
773746
774008
774260
774520
774788
775058
775324
775594
775864
776126
776388
776654
776922
777186
777454
777726
777994
778256
778526
778800
779074
779346
779614
779884
780158
780434
780710
780980
781246
781508
781770
782034
782300
782566
782830
783100
783374
783644
783912
784180
784448
784712
784980
785254
785524
785784
786048
786312
786566
786818
787074
787328
787578
787836
788100
788368
788634
788908
789186
789464
789734
790006
790280
790556
790834
791114
791394
791672
791954
792236
792512
792790
793066
793334
793594
793856
794120
794386
794648
794918
795192
795458
795722
795986
796250
796500
796758
797024
797284
797548
797822
798094
798354
798620
798882
799142
799400
799660
799926
800196
800460
800728
800998
801264
801530
801806
802084
802364
802642
802914
803186
803456
803722
803978
804236
804502
804778
805058
805334
805612
805882
806144
806404
806670
806940
807206
807482
807766
808042
808300
808560
808822
809084
809346
809618
809892
810158
810422
810680
810936
811190
811446
811708
811970
812240
812514
812784
813048
813318
813586
813854
814116
814390
814658
814922
815182
815444
815706
815966
816222
816482
816748
817016
817296
817582
817866
818144
818420
818688
818946
819208
819480
819750
820016
820292
820566
820832
821090
821354
821622
821892
822160
822432
822710
822980
823248
823520
823790
824058
824324
824596
824868
825144
825416
825682
825958
826232
826504
826774
827048
827320
827582
827838
828098
828358
828614
828880
829152
829424
829698
829976
830254
830518
830780
831050
831320
831584
831852
832124
832392
832656
832924
833188
833446
833700
833956
834220
834484
834752
835026
835300
835572
835844
836116
836384
836650
836916
837180
837442
837704
837968
838230
838492
838748
839006
839268
839526
839774
840030
840288
840540
840794
841052
841306
841554
841806
842064
842320
842582
842852
843124
843390
843658
843928
844202
844476
844750
845018
845288
845562
845838
846114
846390
846666
846940
847218
847490
847762
848036
848312
848588
848856
849128
849404
849672
849924
850182
850440
850700
850962
851206
851452
851700
851948
852196
852436
852680
852928
853172
853422
853676
853930
854190
854454
854718
854984
855242
855506
855770
856036
856302
856570
856838
857104
857366
857632
857896
858158
858426
858696
858964
859234
859502
859768
860040
860310
860584
860858
861114
861370
861628
861880
862128
862388
862650
862906
863170
863440
863706
863976
864248
864522
864794
865062
865328
865598
865866
866134
866400
866668
866932
867198
867468
867736
868004
868274
868550
868826
869104
869384
869658
869932
870200
870476
870742
870996
876982
877256
877526
877796
878070
878344
878616
878894
879170
879446
879720
880000
880282
880560
880838
881116
881382
881634
881884
882132
882380
882604
882844
883080
883312
883552
883806
884068
884324
884590
884856
885122
885382
885646
885910
886172
886432
886686
886948
887212
887468
887724
887974
888226
888480
888726
888970
889218
889472
889734
890000
890264
890528
890794
891060
891322
891586
891854
892124
892392
892660
892932
893204
893442
893698
893940
894176
894412
894646
894876
895106
895338
895576
895812
896056
896306
896560
896816
897072
897332
897590
897842
898098
898344
898578
898816
899052
899292
899538
899794
900056
900328
900598
900866
901138
901414
901686
901954
902222
902496
902768
903038
903300
903566
903824
904076
904318
904566
904820
905072
905340
905618
905900
906176
906448
906728
907002
907280
907550
907818
908090
908366
908640
908910
909184
909458
909730
909994
910262
910528
910794
911058
911324
911594
911868
912138
912406
912678
912948
913218
913486
913754
914024
914296
914560
914824
915084
915338
915588
915840
916098
916354
916620
916904
917202
917490
917772
918056
918332
918598
918862
919124
919384
919642
919892
920140
920382
920626
920872
921114
921362
921612
921876
922148
922420
922692
922968
923242
923510
923778
924044
924308
924572
924836
925098
925354
925612
925872
926130
926380
926628
926882
927142
927400
927652
927912
928180
928438
928690
928940
929192
929442
929704
929982
930266
930534
930802
931068
931334
931594
931852
932108
932366
932624
932886
933150
933416
933682
933950
934204
934480
934750
935024
935298
935570
935846
936118
936382
936644
936908
937170
937426
937676
937926
938176
938428
938670
938906
939142
939374
939604
939824
940046
940270
940490
940710
940932
941158
941386
941618
941856
942102
942352
942608
942866
943128
943394
943652
943910
944166
944422
944678
944936
945196
945456
945716
945976
946238
946504
946770
947040
947314
947586
947858
948136
948422
948700
948970
949242
949512
949778
950030
950286
950540
950786
951030
951272
951512
951752
951982
952212
952442
952674
952904
953146
953398
953656
953916
954174
954436
954700
954966
955238
955512
955788
956056
956322
956590
956860
957134
957408
957686
957964
958236
958506
958768
959020
959276
959532
959792
960050
960310
960578
960844
961092
961340
961588
961834
962076
962332
962590
962852
963110
963374
963638
963898
964154
964412
964672
964936
965200
965468
965742
966016
966292
966564
966836
967102
967368
967636
967904
968174
968444
968708
968974
969242
969504
969772
970044
970314
970582
970858
971130
971396
971670
971944
972218
972484
972748
973012
973276
973532
973792
974064
974338
974606
974882
975158
975428
975688
975946
976204
976456
976708
976962
977214
977462
977714
977974
978242
978512
978786
979064
979344
979628
979912
980192
980470
980744
981020
981300
981578
981850
982124
982392
982654
982910
983166
983422
983680
983928
984180
984446
984712
984964
985214
985462
985704
985938
986178
986418
986656
986902
987154
987410
987670
987938
988212
988476
988742
989006
989272
989540
989804
990070
990334
990600
990862
991122
991384
991648
991916
992184
992454
992724
992996
993264
993534
993806
994074
994348
994614
994874
995126
995368
995612
995856
996100
996352
996610
996868
997124
997386
997652
997912
998170
998432
998690
998946
999204
999464
999724
999984
1000242
1000504
1000764
1001026
1001286
1001532
1001768
1001994
1002214
1002424
1002634
1002838
1003038
1003238
1003440
1003636
1003826
1004020
1004214
1004404
1004596
1004786
1004974
1005352
1005531
1005708
1005890
1006072
1006256
1006442
1006630
1006824
1007018
1007216
1007418
1007626
1007838
1008054
1008266
1008474
1008680
1008884
1009084
1009284
1009486
1009698
1009882
1010084
1010274
1010466
1010656
1010846
1011038
1011237
1011432
1011622
1011812
1011996
1012182
1012370
1012558
1012742
1012928
1013116
1013314
1013508
1013706
1013902
1014100
1014296
1014494
1014690
1014886
1015082
1015280
1015482
1015682
1015882
1016084
1016286
1016484
1016682
1016884
1017084
1017288
1017492
1017694
1017896
1018102
1018316
1018538
1018770
1019008
1019248
1019498
1019754
1020018
1020278
1020538
1020808
1021074
1021330
1021574
1021820
1022064
1022298
1022524
1022750
1022974
1023194
1023408
1023626
1023846
1024064
1024286
1024508
1024736
1024970
1025214
1025468
1025726
1025990
1026266
1026546
1026828
1027110
1027388
1027660
1027936
1028214
1028490
1028760
1029026
1029286
1029548
1029814
1030072
1030320
1030570
1030828
1031086
1031340
1031592
1031850
1032110
1032368
1032618
1032872
1033128
1033378
1033624
1033874
1034132
1034394
1034656
1034932
1035222
1035508
1035788
1036066
1036340
1036610
1036878
1037144
1037408
1037672
1037936
1038198
1038462
1038726
1038988
1039256
1039536
1039820
1040096
1040366
1040644
1040922
1041194
1041452
1041716
1041982
1042242
1042492
1042748
1043008
1043268
1043524
1043780
1044046
1044316
1044586
1044858
1045136
1045418
1045696
1045972
1046248
1046518
1046784
1047052
1047316
1047576
1047834
1048088
1048344
1048600
1048858
1049120
1049386
1049648
1049908
1050166
1050424
1050686
1050946
1051204
1051470
1051740
1052006
1052258
1052516
1052768
1053014
1053260
1053508
1053754
1053998
1054248
1054502
1054754
1055004
1055258
1055518
1055778
1056040
1056306
1056578
1056856
1057134
1057414
1057692
1057966
1058238
1058512
1058784
1059054
1059324
1059590
1059856
1060128
1060396
1060668
1060942
1061204
1061466
1061726
1061978
1062224
1062476
1062734
1062990
1063238
1063494
1063750
1064002
1064248
1064500
1064746
1064990
1065232
1065482
1065740
1065998
1066262
1066534
1066808
1067084
1067360
1067634
1067912
1068194
1068478
1068752
1069026
1069294
1069560
1069828
1070096
1070366
1070638
1070906
1071170
1071430
1071692
1071956
1072228
1072498
1072762
1073028
1073292
1073550
1073800
1074044
1074290
1074534
1074780
1075022
1075270
1075526
1075776
1076016
1076254
1076492
1076732
1076974
1077222
1077474
1077726
1077982
1078238
1078494
1078752
1079012
1079272
1079532
1079792
1080054
1080318
1080584
1080852
1081122
1081392
1081662
1081932
1082204
1082472
1082740
1083006
1083268
1083530
1083788
1084042
1084288
1084532
1084774
1085012
1085242
1085478
1085716
1085958
1086200
1086456
1086712
1086960
1087212
1087468
1087720
1087968
1088220
1088472
1088722
1088966
1089212
1089462
1089716
1089974
1090232
1090494
1090758
1091024
1091288
1091550
1091808
1092068
1092328
1092588
1092850
1093108
1093364
1093620
1093876
1094130
1094388
1094644
1094898
1095144
1095390
1095634
1095868
1096100
1096330
1096560
1096790
1097020
1097266
1097518
1097774
1098028
1098290
1098542
1098790
1099036
1099284
1099532
1099778
1100016
1100256
1100500
1100742
1100986
1101234
1101490
1101760
1102036
1102308
1102584
1102858
1103130
1103402
1103672
1103936
1104200
1104462
1104722
1104980
1105238
1105494
1105750
1106002
1106254
1106504
1106752
1107000
1107256
1107514
1107774
1108024
1108268
1108512
1108754
1108990
1109224
1109462
1109694
1109924
1110158
1110402
1110644
1110882
1111124
1111364
1111600
1111838
1112080
1112324
1112570
1112810
1113056
1113304
1113554
1113808
1114060
1114320
1114582
1114848
1115114
1115378
1115638
1115894
1116146
1116396
1116644
1116894
1117144
1117392
1117640
1117890
1118138
1118384
1118634
1118884
1119138
1119394
1119650
1119902
1120150
1120408
1120666
1120924
1121186
1121452
1121718
1121978
1122234
1122494
1122754
1123008
1123252
1123490
1123726
1123956
1124178
1124398
1124620
1124838
1125056
1125282
1125512
1125744
1125978
1126218
1126458
1126696
1126938
1127180
1127420
1127660
1127904
1128150
1128400
1128658
1128920
1129184
1129450
1129716
1129976
1130234
1130490
1130744
1130998
1131248
1131498
1131748
1131996
1132248
1132496
1132742
1132994
1133244
1133490
1133732
1133968
1134204
1134440
1134670
1134900
1135138
1135378
1135614
1135856
1136096
1136332
1136564
1136804
1137048
1137294
1137542
1137790
1138046
1138308
1138568
1138822
1139078
1139336
1139590
1139844
1140098
1140352
1140608
1140858
1141106
1141354
1141596
1141844
1142092
1142340
1142588
1142836
1143088
1143348
1143608
1143866
1144122
1144380
1144636
1144886
1145132
1145380
1145630
1145878
1146122
1146368
1146614
1146850
1147078
1147306
1147530
1147750
1147966
1148180
1148392
1148600
1148794
1148994
1149192
1149382
1149576
1149768
1149958
1150148
1150332
1150520
1150704
1150886
1151072
1151258
1151446
1151644
1151848
1152062
1152288
1152520
1152760
1153008
1153266
1153528
1153790
1154050
1154312
1154572
1154830
1155090
1155344
1155586
1155814
1156036
1156246
1156452
1156658
1156862
1157060
1157256
1157452
1157650
1157842
1158034
1158230
1158430
1158630
1158838
1159044
1159256
1159478
1159700
1159918
1160138
1160364
1160596
1160828
1161064
1161300
1161530
1161754
1161972
1162186
1162394
1162602
1162806
1163006
1163208
1163408
1163606
1163804
1164000
1164196
1164394
1164596
1164798
1165006
1165216
1165432
1165656
1165884
1166112
1166346
1166584
1166824
1167074
1167326
1167578
1167826
1168062
1168294
1168530
1168770
1169012
1169262
1169520
1169772
1170024
1170282
1170540
1170798
1171050
1171298
1171552
1171804
1172056
1172306
1172564
1172828
1173096
1173362
1173630
1173900
1174166
1174430
1174690
1174956
1175224
1175494
1175762
1176036
1176314
1176596
1176876
1177156
1177440
1177724
1178004
1178278
1178546
1178812
1179080
1179356
1179634
1179906
1180178
1180458
1180738
1181008
1181278
1181550
1181818
1182080
1182342
1182606
1182866
1183122
1183388
1183664
1183944
1184224
1184508
1184796
1185080
1185356
1185624
1185898
1186176
1186458
1186740
1187018
1187294
1187568
1187846
1188128
1188412
1188692
1188964
1189226
1189488
1189752
1190018
1190284
1190548
1190814
1191084
1191352
1191618
1191888
1192158
1192430
1192700
1192968
1193232
1193490
1193742
1193988
1194238
1194486
1194734
1194992
1195262
1195532
1195796
1196058
1196318
1196584
1196850
1197108
1197368
1197628
1197892
1198160
1198430
1198700
1198974
1199244
1199508
1199778
1200050
1200328
1200614
1200900
1201176
1201450
1201720
1201990
1202252
1202506
1202756
1203006
1203250
1203490
1203736
1203988
1204246
1204508
1204764
1205022
1205278
1205528
1205778
1206024
1206268
1206512
1206756
1207004
1207254
1207508
1207764
1208028
1208294
1208558
1208808
1209050
1209296
1209554
1209820
1210092
1210362
1210632
1210900
1211170
1211444
1211716
1211986
1212256
1212522
1212788
1213064
1213338
1213614
1213880
1214144
1214410
1214678
1214944
1215220
1215508
1215792
1216070
1216342
1216612
1216878
1217140
1217400
1217654
1217908
1218158
1218410
1218672
1218940
1219210
1219484
1219766
1220050
1220334
1220614
1220892
1221170
1221444
1221714
1221982
1222250
1222508
1222768
1223032
1223300
1223572
1223844
1224122
1224396
1224672
1224942
1225210
1225482
1225752
1226028
1226300
1226558
1226806
1227054
1227286
1227506
1227724
1227945
1228150
1228566
1228756
1228952
1229142
1229330
1229522
1229710
1229900
1230094
1230290
1230494
1230738
1231010
1231294
1231582
1231872
1232158
1232444
1232730
1233008
1233288
1233566
1233844
1234122
1234400
1234678
1234950
1235226
1235500
1235768
1236032
1236302
1236572
1236846
1237118
1237388
1237656
1237918
1238172
1238430
1238686
1238936
1239186
1239440
1239690
1239936
1240184
1240432
1240678
1240922
1241172
1241426
1241682
1241940
1242196
1242454
1242708
1242958
1243204
1243442
1243678
1243912
1244148
1244382
1244616
1244852
1245090
1245326
1245564
1245802
1246042
1246284
1246522
1246764
1247010
1247260
1247520
1247782
1248042
1248302
1248560
1248816
1249066
1249314
1249556
1249794
1250024
1250250
1250472
1250688
1250902
1251112
1251320
1251526
1251726
1251930
1252130
1252334
1252532
1252730
1252928
1253124
1253320
1253516
1253710
1253906
1254104
1254306
1254516
1254732
1254954
1255188
1255426
1255664
1255902
1256136
1256370
1256600
1256822
1257044
1257262
1257480
1257700
1257920
1258140
1258358
1258572
1258778
1258982
1259184
1259386
1259586
1259784
1259986
1260186
1260388
1260588
1260792
1260996
1261200
1261406
1261608
1261812
1262014
1262214
1262414
1262612
1262812
1263010
1263210
1263408
1263604
1263806
1264006
1264208
1264412
1264618
1264826
1265030
1265234
1265438
1265640
1265842
1266036
1266230
1266424
1266618
1266808
1266996
1267190
1267392
1267596
1267804
1268016
1268230
1268444
1268654
1268866
1269078
1269286
1269492
1269696
1269898
1270098
1270292
1270482
1270670
1270858
1271046
1271234
1271426
1271624
1271830
1272042
1272266
1272490
1272708
1272922
1273136
1273340
1273538
1273736
1273930
1274120
1274310
1274492
1274678
1274862
1275046
1275231
1275412
1275598
1275784
1275972
1276164
1276356
1276546
1276738
1276932
1277124
1277318
1277514
1277704
1277892
1278082
1278270
1278456
1278640
1278820
1279002
1279182
1279362
1279542
1279722
1279902
1280082
1280264
1280448
1280632
1280818
1281006
1281190
1281374
1281556
1281738
1281918
1282094
1282270
1282446
1282620
1282792
1282966
1283136
1283306
1283476
1283646
1283818
1283990
1284168
1284346
1284524
1284708
1284892
1285076
1285262
1285446
1285630
1285814
1286000
1286182
1286364
1286546
1286726
1286904
1287080
1287258
1287434
1287612
1287790
1287966
1288144
1288320
1288500
1288678
1288856
1289034
1289214
1289392
1289568
1289742
1289918
1290094
1290270
1290448
1290634
1290828
1291024
1291218
1291416
1291612
1291806
1292002
1292194
1292384
1292574
1292762
1292948
1293134
1293322
1293508
1293694
1293882
1294072
1294258
1294440
1294632
1294836
1295064
1295296
1295536
1295774
1296004
1296232
1296452
1296664
1296874
1297082
1297286
1297488
1297688
1297884
1298080
1298274
1298466
1298656
1298846
1299036
1299226
1299416
1299602
1299786
1299976
1300170
1300366
1300568
1300778
1300992
1301202
1301415
1301624
1301826
1302028
1302230
1302434
1302636
1302828
1303024
1303216
1303406
1303596
1303786
1303978
1304170
1304368
1304568
1304768
1304972
1305174
1305372
1305568
1305766
1305962
1306156
1306348
1306542
1306736
1306930
1307124
1307320
1307516
1307714
1307910
1308106
1308302
1308496
1308690
1308886
1309080
1309274
1309468
1309664
1309858
1310050
1310242
1310436
1310630
1310820
1311012
1311202
1311390
1311578
1311764
1311948
1312132
1312310
1312486
1312660
1312836
1313014
1313192
1313374
1313562
1313758
1313962
1314170
1314382
1314592
1314800
1315008
1315220
1315430
1315642
1315850
1316056
1316264
1316476
1316690
1316900
1317112
1317326
1317540
1317750
1317960
1318168
1318374
1318582
1318786
1318990
1319190
1319386
1319582
1319776
1319966
1320154
1320342
1320530
1320718
1320904
1321092
1321280
1321470
1321656
1321840
1322026
1322212
1322396
1322578
1322762
1322946
1323130
1323316
1323502
1323690
1323880
1324070
1324260
1324452
1324646
1324842
1325042
1325244
1325448
1325654
1325856
1326060
1326262
1326460
1326656
1326850
1327042
1327232
1327418
1327604
1327790
1327978
1328166
1328362
1328560
1328760
1328966
1329170
1329374
1329574
1329772
1329968
1330162
1330352
1330542
1330730
1330920
1331110
1331302
1331494
1331686
1331880
1332072
1332264
1332456
1332646
1332834
1333022
1333208
1333394
1333578
1333762
1333948
1334136
1334324
1334514
1334708
1334902
1335100
1335294
1335490
1335684
1335876
1336066
1336254
1336442
1336626
1336810
1336992
1337172
1337352
1337528
1337704
1337878
1338052
1338224
1338400
1338576
1338756
1338938
1339122
1339308
1339498
1339686
1339874
1340062
1340250
1340436
1340622
1340806
1340988
1341168
1341346
1341522
1341696
1341870
1342044
1342220
1342396
1342574
1342752
1342932
1343110
1343290
1343472
1343654
1343836
1344020
1344204
1344388
1344570
1344750
1344930
1345108
1345284
1345458
1345632
1345806
1345980
1346152
1346322
1346494
1346668
1346844
1347024
1347204
1347384
1347566
1347746
1347926
1348106
1348284
1348462
1348640
1348814
1348990
1349164
1349338
1349512
1349688
1349864
1350040
1350220
1350400
1350578
1350758
1350938
1351116
1351296
1351474
1351650
1351826
1352000
1352174
1352346
1352516
1352686
1352856
1353024
1353192
1353362
1353534
1353706
1353880
1354052
1354226
1354402
1354574
1354748
1354924
1355098
1355272
1355444
1355618
1355790
1355960
1356132
1356304
1356474
1356648
1356822
1356998
1357174
1357350
1357528
1357708
1357884
1358060
1358236
1358412
1358588
1358764
1358938
1359114
1359288
1359466
1359640
1359816
1359990
1360164
1360336
1360510
1360682
1360856
1361030
1361198
1361366
1361532
1361700
1361868
1362036
1362206
1362374
1362548
1362722
1362896
1363074
1363258
1363444
1363636
1363822
1364008
1364196
1364382
1364568
1364752
1364944
1365134
1365324
1365514
1365706
1365900
1366094
1366284
1366476
1366664
1366850
1367034
1367216
1367396
1367572
1367748
1367922
1368098
1368274
1368452
1368634
1368818
1369004
1369192
1369380
1369566
1369754
1369940
1370126
1370308
1370492
1370674
1370852
1371032
1371208
1371382
1371558
1371730
1371904
1372074
1372244
1372416
1372588
1372758
1372928
1373098
1373268
1373436
1373606
1373772
1373942
1374114
1374300
1374498
1374698
1374896
1375090
1375290
1375486
1375678
1375868
1376056
1376238
1376418
1376598
1376774
1376948
1377120
1377292
1377462
1377630
1377798
1377958
1378122
1378286
1378448
1378612
1378776
1378944
1379126
1379354
1379596
1379848
1380104
1380344
1380576
1380796
1381010
1381216
1381418
1381610
1381810
1382002
1382192
1382382
1382574
1382764
1382954
1383144
1383332
1383518
1383706
1383896
1384086
1384270
1384456
1384642
1384826
1385010
1385196
1385380
1385566
1385750
1385938
1386126
1386316
1386506
1386696
1386886
1387078
1387270
1387464
1387658
1387852
1388044
1388234
1388424
1388612
1388796
1388980
1389162
1389340
1389514
1389688
1389858
1390026
1390192
1390346
1390520
1390686
1390854
1391022
1391194
1391370
1391548
1391728
1391910
1392092
1392274
1392458
1392642
1392822
1393004
1393188
1393372
1393554
1393736
1393914
1394094
1394276
1394454
1394632
1394812
1394990
1395166
1395338
1395512
1395684
1395856
1396028
1396202
1396374
1396546
1396722
1396896
1397068
1397240
1397414
1397588
1397760
1397934
1398106
1398280
1398454
1398626
1398796
1398968
1399138
1399308
1399476
1399644
1399810
1399976
1400142
1400306
1400470
1400632
1400796
1400956
1401114
1401276
1401438
1401609
1401768
1401938
1402108
1402278
1402450
1402620
1402792
1402964
1403136
1403304
1403476
1403646
1403816
1403986
1404156
1404324
1404492
1404662
1404828
1404994
1405160
1405328
1405492
1405658
1405824
1405990
1406160
1406330
1406500
1406670
1406842
1407010
1407178
1407346
1407510
1407674
1407838
1408002
1408164
1408324
1408484
1408642
1408800
1408958
1409114
1409268
1409422
1409576
1409730
1409886
1410038
1410192
1410346
1410498
1410652
1410804
1410956
1411108
1411260
1411412
1411566
1411724
1411886
1412054
1412226
1412400
1412574
1412748
1412922
1413096
1413268
1413438
1413608
1413776
1413942
1414108
1414270
1414434
1414598
1414760
1414920
1415082
1415240
1415400
1415558
1415716
1415874
1416032
1416190
1416348
1416506
1416672
1416826
1416988
1417150
1417314
1417480
1417638
1417802
1417964
1418128
1418288
1418448
1418606
1418764
1418922
1419078
1419236
1419394
1419554
1419716
1419876
1420040
1420206
1420372
1420536
1420702
1420866
1421030
1421194
1421358
1421522
1421682
1421842
1422002
1422162
1422320
1422482
1422644
1422806
1422970
1423132
1423294
1423456
1423618
1423780
1423942
1424102
1424260
1424418
1424576
1424734
1424892
1425050
1425206
1425364
1425522
1425682
1425840
1426000
1426160
1426320
1426480
1426640
1426800
1426958
1427118
1427276
1427434
1427596
1427748
1427904
1428060
1428218
1428380
1428532
1428690
1428848
1429006
1429166
1429326
1429486
1429646
1429812
1429966
1430126
1430284
1430440
1430596
1430752
1430906
1431060
1431212
1431366
1431516
1431666
1431818
1431968
1432116
1432266
1432414
1432560
1432710
1432858
1433010
1433162
1433322
1433482
1433646
1433812
1433978
1434146
1434312
1434478
1434642
1434806
1434968
1435128
1435288
1435446
1435604
1435760
1435916
1436074
1436232
1436392
1436550
1436710
1436872
1437034
1437200
1437368
1437540
1437710
1437882
1438056
1438226
1438396
1438564
1438732
1438898
1439062
1439222
1439382
1439542
1439700
1439856
1440012
1440168
1440322
1440478
1440604
1440788
1440942
1441100
1441256
1441414
1441572
1441730
1441890
1442050
1442210
1442372
1442534
1442694
1442854
1443016
1443176
1443336
1443494
1443652
1443810
1443968
1444126
1444286
1444446
1444610
1444778
1444950
1445124
1445300
1445478
1445654
1445830
1446004
1446178
1446350
1446522
1446692
1446862
1447028
1447194
1447358
1447520
1447680
1447840
1447998
1448156
1448312
1448468
1448622
1448776
1448930
1449084
1449238
1449392
1449550
1449710
1449872
1450036
1450204
1450376
1450550
1450724
1450896
1451070
1451242
1451414
1451582
1451748
1451914
1452080
1452242
1452404
1452564
1452726
1452886
1453048
1453210
1453372
1453536
1453702
1453868
1454032
1454198
1454362
1454528
1454690
1454852
1455016
1455178
1455342
1455504
1455666
1455830
1455992
1456154
1456318
1456480
1456640
1456800
1456960
1457117
1457260
1457436
1457592
1457748
1457904
1458058
1458218
1458370
1458526
1458684
1458842
1459000
1459158
1459314
1459474
1459632
1459790
1459946
1460102
1460260
1460416
1460572
1460728
1460884
1461038
1461194
1461348
1461504
1461658
1461812
1461966
1462120
1462274
1462428
1462580
1462734
1462886
1463040
1463192
1463346
1463498
1463652
1463806
1463962
1464118
1464278
1464442
1464606
1464770
1464936
1465102
1465270
1465436
1465602
1465768
1465932
1466094
1466258
1466420
1466582
1466742
1466902
1467060
1467218
1467380
1467544
1467714
1467876
1468046
1468218
1468388
1468560
1468730
1468898
1469066
1469234
1469402
1469568
1469732
1469894
1470058
1470220
1470382
1470542
1470704
1470866
1471028
1471190
1471352
1471514
1471676
1471838
1472000
1472160
1472320
1472482
1472644
1472804
1472962
1473126
1473290
1473456
1473624
1473794
1473970
1474148
1474326
1474506
1474686
1474862
1475040
1475216
1475390
1475564
1475738
1475912
1476084
1476256
1476428
1476596
1476766
1476932
1477100
1477264
1477430
1477594
1477762
1477924
1478086
1478246
1478406
1478566
1478726
1478888
1479052
1479218
1479388
1479562
1479738
1479922
1480106
1480292
1480476
1480658
1480840
1481022
1481194
1481368
1481542
1481714
1481884
1482054
1482220
1482386
1482550
1482714
1482876
1483036
1483198
1483358
1483516
1483674
1483830
1483986
1484146
1484304
1484464
1484626
1484788
1484954
1485122
1485290
1485458
1485628
1485796
1485964
1486130
1486294
1486456
1486618
1486780
1486940
1487098
1487256
1487414
1487574
1487732
1487888
1488046
1488202
1488358
1488512
1488666
1488820
1488972
1489124
1489276
1489426
1489576
1489726
1489878
1490030
1490180
1490330
1490484
1490636
1490790
1490946
1491102
1491262
1491422
1491582
1491744
1491906
1492066
1492228
1492388
1492546
1492706
1492864
1493022
1493178
1493332
1493484
1493642
1493784
1493932
1494080
1494226
1494376
1494538
1494718
1494946
1495170
1495396
1495630
1495868
1496096
1496310
1496510
1496704
1496888
1497066
1497242
1497416
1497590
1497758
1497920
1498084
1498246
1498406
1498564
1498726
1498878
1499034
1499190
1499348
1499504
1499660
1499822
1499972
1500126
1500278
1500434
1500582
1500738
1500886
1501038
1501184
1501336
1501494
1501646
1501812
1501970
1502138
1502308
1502480
1502652
1502828
1503002
1503176
1503352
1503516
1503684
1503852
1504016
1504182
1504342
1504504
1504666
1504826
1504984
1505142
1505300
1505458
1505616
1505778
1505930
1506088
1506244
1506400
1506554
1506708
1506860
1507014
1507162
1507314
1507462
1507612
1507760
1507908
1508056
1508204
1508352
1508500
1508648
1508798
1508948
1509096
1509244
1509392
1509538
1509684
1509832
1509976
1510122
1510270
1510416
1510564
1510712
1510866
1511016
1511162
1511318
1511462
1511610
1511758
1511912
1512060
1512204
1512350
1512498
1512644
1512790
1512934
1513084
1513232
1513380
1513534
1513680
1513834
1513992
1514146
1514306
1514464
1514626
1514786
1514946
1515106
1515266
1515424
1515582
1515740
1515896
1516050
1516206
1516360
1516514
1516666
1516818
1516968
1517120
1517274
1517424
1517574
1517724
1517874
1518026
1518174
1518322
1518472
1518620
1518770
1518920
1519070
1519222
1519376
1519530
1519686
1519846
1520012
1520176
1520344
1520522
1520702
1520882
1521066
1521248
1521432
1521602
1521778
1521948
1522120
1522290
1522460
1522628
1522794
1522960
1523126
1523290
1523452
1523614
1523776
1523940
1524100
1524260
1524424
1524586
1524752
1524922
1525102
1525284
1525476
1525670
1525868
1526068
1526264
1526456
1526646
1526830
1527014
1527202
1527390
1527574
1527758
1527942
1528126
1528308
1528484
1528656
1528828
1529002
1529176
1529360
1529564
1529794
1530028
1530262
1530494
1530726
1530952
1531172
1531388
1531582
1531778
1531968
1532156
1532338
1532518
1532694
1532870
1533042
1533214
1533382
1533546
1533708
1533870
1534036
1534202
1534370
1534536
1534706
1534880
1535056
1535232
1535412
1535594
1535772
1535948
1536122
1536298
1536474
1536650
1536824
1537006
1537182
1537362
1537540
1537718
1537896
1538072
1538248
1538420
1538592
1538760
1538928
1539094
1539258
1539420
1539584
1539748
1539910
1540074
1540240
1540412
1540590
1540768
1540944
1541124
1541310
1541496
1541684
1541872
1542062
1542254
1542442
1542628
1542814
1542998
1543178
1543354
1543534
1543722
1543908
1544096
1544286
1544484
1544682
1544882
1545076
1545268
1545460
1545652
1545834
1546014
1546194
1546372
1546544
1546714
1546882
1547048
1547212
1547376
1547540
1547702
1547866
1548032
1548202
1548366
1548536
1548710
1548886
1549062
1549240
1549424
1549612
1549800
1549986
1550176
1550372
1550570
1550770
1550970
1551172
1551378
1551582
1551786
1551992
1552194
1552396
1552594
1552794
1552996
1553198
1553398
1553596
1553794
1553994
1554192
1554388
1554584
1554782
1554976
1555168
1555362
1555558
1555750
1555940
1556130
1556310
1556496
1556682
1556866
1557048
1557230
1557414
1557596
1557776
1557944
1558128
1558306
1558482
1558660
1558840
1559020
1559200
1559372
1559546
1559720
1559896
1560074
1560250
1560424
1560604
1560786
1560970
1561154
1561348
1561600
1561824
1562044
1562264
1562484
1562704
1562924
1563136
1563344
1563556
1563770
1563980
1564182
1564388
1564580
1564776
1564964
1565152
1565342
1565530
1565720
1565920
1566134
1566362
1566598
1566846
1567096
1567346
1567596
1567836
1568068
1568302
1568530
1568752
1568968
1569184
1569400
1569616
1569834
1570064
1570298
1570537
1570764
1571002
1571238
1571466
1571692
1571922
1572150
1572374
1572596
1572822
1573042
1573260
1573478
1573696
1573912
1574134
1574360
1574592
1574828
1575068
1575318
1575570
1575824
1576078
1576332
1576586
1576838
1577082
1577328
1577574
1577822
1578062
1578306
1578558
1578808
1579052
1579292
1579534
1579774
1580008
1580244
1580482
1580716
1580950
1581190
1581432
1581670
1581908
1582150
1582390
1582632
1582866
1583104
1583346
1583588
1583830
1584074
1584324
1584578
1584832
1585084
1585334
1585588
1585840
1586090
1586336
1586584
1586834
1587086
1587332
1587576
1587822
1588070
1588314
1588548
1588788
1589026
1589264
1589502
1589742
1589988
1590228
1590470
1590710
1590948
1591184
1591420
1591660
1591904
1592152
1592398
1592646
1592896
1593146
1593396
1593644
1593894
1594148
1594404
1594660
1594904
1595144
1595380
1595614
1595846
1596078
1596298
1596510
1596720
1596926
1597132
1597342
1597554
1597768
1597990
1598224
1598464
1598700
1598940
1599178
1599416
1599650
1599886
1600124
1600364
1600602
1600840
1601084
1601332
1601578
1601826
1602072
1602318
1602560
1602804
1603050
1603298
1603548
1603794
1604040
1604292
1604542
1604790
1605034
1605280
1605524
1605762
1605996
1606224
1606444
1606662
1606880
1607098
1607314
1607530
1607750
1607980
1608212
1608448
1608688
1608930
1609174
1609416
1609654
1609890
1610124
1610360
1610594
1610830
1611066
1611302
1611540
1611774
1612010
1612244
1612476
1612698
1612920
1613148
1613380
1613620
1613866
1614114
1614360
1614602
1614850
1615098
1615344
1615586
1615826
1616072
1616318
1616560
1616804
1617052
1617298
1617548
1617790
1618036
1618284
1618532
1618778
1619022
1619270
1619518
1619764
1620010
1620248
1620492
1620738
1620984
1621228
1621472
1621714
1621956
1622200
1622444
1622688
1622928
1623168
1623412
1623658
1623898
1624142
1624386
1624630
1624870
1625108
1625352
1625594
1625830
1626068
1626306
1626544
1626780
1627014
1627252
1627492
1627732
1627966
1628200
1628436
1628672
1628908
1629144
1629382
1629624
1629870
1630118
1630364
1630604
1630846
1631088
1631330
1631570
1631806
1632046
1632290
1632530
1632764
1632998
1633224
1633458
1633684
1633910
1634132
1634344
1634556
1634762
1634962
1635162
1635361
1635552
1635744
1635934
1636124
1636312
1636502
1636694
1636888
1637086
1637288
1637486
1637690
1637900
1638114
1638326
1638540
1638756
1638970
1639186
1639402
1639622
1639844
1640066
1640292
1640516
1640742
1640966
1641188
1641406
1641622
1641826
1642044
1642256
1642466
1642680
1642896
1643114
1643336
1643560
1643788
1644012
1644236
1644458
1644678
1644892
1645100
1645312
1645518
1645722
1645924
1646126
1646326
1646524
1646724
1646920
1647116
1647314
1647520
1647738
1647964
1648190
1648424
1648666
1648906
1649142
1649374
1649608
1649838
1650068
1650296
1650524
1650748
1650972
1651196
1651418
1651638
1651860
1652086
1652312
1652542
1652768
1652996
1653224
1653458
1653686
1653914
1654148
1654384
1654622
1654864
1655108
1655348
1655584
1655822
1656058
1656294
1656528
1656764
1657000
1657238
1657474
1657712
1657952
1658194
1658436
1658676
1658914
1659152
1659390
1659630
1659872
1660114
1660356
1660594
1660830
1661064
1661298
1661534
1661772
1662012
1662252
1662488
1662726
1662966
1663208
1663452
1663690
1663928
1664170
1664412
1664652
1664884
1665122
1665358
1665590
1665820
1666054
1666288
1666522
1666754
1666988
1667224
1667464
1667704
1667942
1668180
1668420
1668660
1668900
1669138
1669376
1669612
1669848
1670084
1670320
1670552
1670782
1671010
1671238
1671470
1671704
1671944
1672180
1672414
1672654
1672890
1673120
1673350
1673582
1673812
1674040
1674270
1674508
1674746
1674982
1675214
1675448
1675680
1675912
1676142
1676374
1676610
1676844
1677078
1677314
1677552
1677794
1678038
1678284
1678528
1678774
1679018
1679264
1679510
1679758
1680002
1680248
1680492
1680740
1680986
1681232
1681476
1681718
1681958
1682194
1682428
1682664
1682896
1683126
1683356
1683588
1683818
1684042
1684270
1684502
1684736
1684970
1685206
1685446
1685692
1685938
1686186
1686428
1686670
1686916
1687160
1687406
1687646
1687890
1688128
1688368
1688604
1688840
1689072
1689312
1689552
1689794
1690024
1690242
1690460
1690674
1690882
1691092
1691300
1691510
1691716
1691926
1692138
1692354
1692570
1692790
1693016
1693244
1693478
1693708
1693942
1694180
1694416
1694654
1694890
1695128
1695366
1695602
1695838
1696074
1696310
1696544
1696780
1697014
1697244
1697478
1697714
1697948
1698178
1698406
1698626
1698844
1699064
1699284
1699504
1699730
1699958
1700186
1700414
1700644
1700878
1701114
1701344
1701572
1701806
1702042
1702276
1702510
1702742
1702978
1703218
1703462
1703710
1703958
1704198
1704436
1704670
1704902
1705132
1705362
1705590
1705820
1706046
1706276
1706510
1706744
1706976
1707208
1707444
1707682
1707918
1708154
1708390
1708628
1708868
1709106
1709346
1709586
1709830
1710080
1710322
1710568
1710818
1711070
1711326
1711580
1711832
1712082
1712332
1712578
1712818
1713058
1713298
1713538
1713774
1714014
1714252
1714488
1714730
1714974
1715216
1715456
1715696
1715934
1716174
1716410
1716646
1716886
1717126
1717364
1717600
1717838
1718072
1718304
1718536
1718766
1718996
1719224
1719454
1719684
1719912
1720140
1720364
1720590
1720814
1721038
1721258
1721476
1721692
1721906
1722122
1722334
1722544
1722758
1722974
1723194
1723412
1723630
1723846
1724062
1724274
1724484
1724690
1724896
1725104
1725312
1725522
1725732
1725944
1726156
1726374
1726594
1726810
1727026
1727246
1727466
1727684
1727906
1728130
1728358
1728590
1728826
1729062
1729300
1729540
1729782
1730022
1730264
1730508
1730748
1730984
1731220
1731458
1731698
1731942
1732186
1732428
1732668
1732908
1733152
1733396
1733636
1733874
1734114
1734356
1734596
1734832
1735068
1735310
1735552
1735794
1736034
1736276
1736520
1736760
1736996
1737234
1737474
1737712
1737948
1738186
1738424
1738660
1738892
1739124
1739360
1739594
1739828
1740066
1740310
1740556
1740804
1741054
1741302
1741550
1741798
1742044
1742282
1742520
1742758
1742996
1743234
1743466
1743704
1743942
1744180
1744414
1744646
1744882
1745114
1745344
1745570
1745798
1746024
1746248
1746470
1746696
1746922
1747154
1747390
1747628
1747868
1748112
1748358
1748600
1748842
1749084
1749328
1749570
1749814
1750056
1750296
1750536
1750772
1751010
1751250
1751490
1751728
1751966
1752202
1752440
1752674
1752908
1753140
1753370
1753598
1753826
1754058
1754290
1754522
1754754
1754992
1755232
1755466
1755702
1755940
1756178
1756412
1756646
1756882
1757122
1757358
1757596
1757836
1758078
1758316
1758552
1758784
1759016
1759250
1759480
1759714
1759944
1760176
1760412
1760650
1760886
1761124
1761364
1761606
1761848
1762086
1762328
1762570
1762812
1763050
1763292
1763534
1763778
1764022
1764264
1764506
1764746
1764984
1765224
1765464
1765710
1765956
1766198
1766440
1766680
1766918
1767154
1767390
1767628
1767866
1768104
1768338
1768572
1768802
1769030
1769252
1769466
1769678
1769884
1770094
1770310
1770532
1770756
1770984
1771220
1771458
1771692
1771926
1772162
1772396
1772630
1772860
1773092
1773328
1773562
1773798
1774034
1774270
1774510
1774748
1774988
1775228
1775468
1775712
1775958
1776202
1776442
1776676
1776904
1777142
1777378
1777606
1777830
1778046
1778266
1778488
1778712
1778936
1779164
1779394
1779624
1779856
1780090
1780324
1780558
1780792
1781026
1781260
1781496
1781730
1781964
1782200
1782440
1782682
1782924
1783168
1783414
1783660
1783900
1784138
1784376
1784616
1784854
1785090
1785324
1785560
1785796
1786032
1786270
1786506
1786744
1786978
1787216
1787456
1787696
1787934
1788176
1788420
1788664
1788902
1789146
1789390
1789634
1789876
1790118
1790358
1790600
1790842
1791088
1791330
1791570
1791814
1792058
1792302
1792544
1792782
1793020
1793258
1793496
1793732
1793968
1794208
1794450
1794686
1794924
1795160
1795390
1795618
1795850
1796082
1796306
1796538
1796770
1797006
1797238
1797470
1797706
1797940
1798170
1798404
1798636
1798870
1799104
1799334
1799566
1799802
