peaks
186
422
668
914
1160
1384
1596
1806
2010
2212
2422
2650
2866
3072
3272
3480
3694
3896
4098
4310
4528
4730
4934
5154
5362
5562
5758
5958
6162
6366
6562
6760
6970
7178
7386
7586
7800
8040
8270
8486
8684
8882
9094
9308
9508
9700
9892
10088
10286
10482
10688
10910
11134
11346
11546
11750
11952
12152
12346
12536
12724
12914
13106
13302
13512
13738
13964
14172
14374
14584
14792
14998
15206
15430
15674
15900
16102
16306
16516
16736
16948
17152
17360
17570
17780
17986
18186
18390
18606
18822
19026
19224
19422
19630
19840
20034
20226
20416
20606
20816
21030
21236
21452
21668
21886
22084
22278
22474
22678
22892
23090
23284
23478
23674
23862
24048
24228
24406
24582
24754
24928
25100
25270
25440
25610
25790
25980
26182
26392
26624
26876
27108
27318
27526
27738
27946
28146
28344
28544
28742
28944
29150
29370
29602
29830
30038
30236
30436
30634
30824
31014
31204
31404
31594
31776
31958
32136
32312
32490
32662
32834
33008
33180
33352
33524
33694
33864
34034
34208
34386
34576
34774
34968
35162
35360
35562
35756
35952
36142
36340
36544
36740
36942
37158
37380
37600
37812
38040
38276
38502
38718
38938
39160
39378
39584
39796
40026
40264
40480
40680
40882
41104
41322
41534
41748
41974
42192
42396
42606
42818
43032
43234
43430
43624
43828
44068
44294
44494
44692
44902
45104
45302
45498
45694
45892
46092
46294
46516
46752
46976
47190
47420
47650
47862
48070
48290
48508
48714
48922
49140
49364
49576
49780
49988
50202
50406
50604
50798
50990
51192
51404
51608
51810
52016
52232
52452
52654
52854
53054
53260
53456
53648
53848
54068
54298
54512
54732
54974
55220
55448
55650
55852
56068
56288
56498
56702
56910
57130
57356
57564
57766
57966
58172
58384
58596
58796
58994
59204
59434
59650
59854
60048
60242
60442
60646
60852
61054
61256
61460
61670
61872
62074
62284
62500
62706
62910
63120
63342
63558
63762
63970
64182
64396
64602
64798
64994
65194
65410
65614
65810
66004
66196
66388
66578
66766
66954
67144
67352
67560
67764
67964
68172
68394
68616
68822
69026
69234
69438
69636
69838
70052
70260
70470
70666
70864
71064
71260
71454
71644
71842
72050
72260
72464
72662
72862
73076
73298
73524
73738
73962
74188
74398
74618
74850
75082
75290
75490
75688
75890
76098
76298
76504
76712
76924
77132
77340
77536
77738
77948
78158
78356
78550
78744
78942
79142
79332
79528
79740
79956
80172
80382
80600
80820
81020
81220
81420
81628
81844
82052
82252
82452
82666
82886
83088
83282
83474
83674
83870
84060
84250
84440
84646
84848
85034
85222
85404
85598
85806
86006
86202
86398
86618
86832
87040
87254
87492
87742
87972
88182
88394
88608
88834
89042
89240
89442
89658
89878
90080
90280
90492
90716
90936
91138
91334
91532
91740
91952
92154
92350
92552
92764
92982
93186
93386
93592
93820
94034
94244
94454
94670
94884
95086
95278
95470
95662
95856
96050
96236
96424
96618
96818
97018
97210
97406
97610
97822
98026
98222
98410
98604
98808
99012
99204
99392
99588
99794
100002
100198
100388
100574
100768
100980
101192
101402
101622
101854
102096
102310
102520
102746
102968
103176
103372
103566
103764
103974
104178
104378
104582
104788
105000
105200
105396
105596
105800
106010
106210
106414
106636
106856
107060
107256
107452
107656
107874
108090
108294
108494
108698
108912
109116
109316
109518
109722
109926
110126
110320
110520
110734
110936
111140
111352
111568
111784
111992
112196
112404
112616
112820
113020
113218
113422
113626
113820
114008
114190
114374
114566
114760
114956
115154
115346
115534
115718
115912
116110
116310
116510
116714
116922
117124
117318
117520
117732
117936
118132
118346
118562
118772
118976
119180
119398
119624
119840
120044
120256
120472
120678
120880
121088
121298
121522
121726
121926
122124
122340
122558
122764
122972
123188
123402
123604
123804
124006
124210
124408
124602
124786
124970
125164
125366
125564
125764
125964
126180
126388
126586
126784
126990
127192
127388
127584
127796
128006
128202
128394
128590
128792
128986
129172
129358
129550
129742
129938
130128
130332
130552
130764
130962
131156
131348
131552
131760
131952
132138
132338
132552
132770
132978
133174
133372
133574
133780
133978
134172
134376
134594
134798
134998
135198
135408
135622
135824
136026
136228
136432
136636
136838
137040
137252
137456
137652
137846
138044
138248
138450
138652
138854
139052
139250
139442
139636
139836
140044
140238
140432
140638
140854
141060
141260
141454
141654
141868
142084
142284
142478
142672
142876
143078
143274
143462
143650
143846
144060
144272
144480
144692
144904
145110
145310
145502
145698
145906
146100
146296
146492
146692
146900
147100
147296
147500
147712
147928
148140
148346
148552
148768
148974
149176
149374
149584
149802
150004
150204
150398
150588
150778
150962
151142
151330
151544
151776
152008
152226
152454
152684
152894
153102
153310
153522
153722
153914
154104
154298
154496
154694
154892
155084
155288
155510
155734
155942
156144
156350
156560
156762
156962
157170
157382
157590
157790
157986
158182
158388
158586
158778
158962
159144
159326
159506
159686
159868
160060
160250
160438
160622
160802
160982
161156
161328
161496
161664
161828
161994
162158
162322
162492
162668
162874
163120
163374
163606
163842
164092
164338
164564
164794
165030
165266
165482
165682
165882
166090
166308
166514
166716
166920
167138
167354
167560
167768
167988
168196
168404
168618
168834
169042
169240
169434
169630
169838
170044
170240
170442
170646
170860
171066
171266
171466
171676
171898
172104
172304
172510
172738
172966
173182
173392
173620
173842
174058
174260
174466
174684
174890
175096
175308
175526
175740
175942
176142
176334
176530
176744
176946
177152
177358
177584
177808
178018
178234
178460
178692
178904
179106
179308
179520
179738
179938
180140
180338
180538
180742
180944
181138
181328
181524
181724
181918
182110
182306
182508
182708
182900
183094
183298
183510
183716
183916
184116
184316
184522
184732
184932
185130
185334
185538
185740
185932
186122
186328
186538
186742
186930
187124
187322
187530
187728
187918
188114
188326
188554
188770
188976
189190
189410
189622
189832
190050
190264
190470
190672
190872
191074
191276
191480
191682
191890
192112
192334
192540
192740
192940
193146
193344
193538
193734
193936
194142
194340
194532
194728
194934
195146
195348
195544
195744
195950
196150
196350
196540
196734
196936
197134
197330
197528
197724
197928
198126
198320
198516
198730
198968
199214
199442
199664
199896
200122
200328
200530
200738
200950
201154
201354
201552
201754
201964
202168
202364
202566
202774
202978
203176
203374
203574
203782
203988
204186
204378
204570
204770
204976
205170
205366
205560
205764
205962
206156
206358
206564
206776
206972
207162
207346
207540
207742
207938
208128
208318
208522
208724
208926
209118
209314
209520
209726
209920
210116
210316
210530
210738
210934
211132
211330
211544
211768
211974
212172
212374
212588
212802
213010
213212
213416
213632
213852
214064
214264
214466
214678
214888
215088
215282
215476
215676
215882
216082
216276
216474
216670
216866
217052
217234
217418
217612
217796
217982
218170
218362
218572
218764
218952
219142
219346
219546
219740
219930
220124
220338
220554
220760
220956
221154
221364
221576
221772
221960
222156
222356
222552
222742
222942
223140
223334
223528
223720
223928
224142
224342
224532
224732
224950
225164
225368
225564
225766
225966
226170
226364
226552
226746
226954
227158
227352
227542
227740
227934
228136
228328
228516
228708
228898
229098
229294
229488
229680
229900
230114
230320
230522
230728
230944
231150
231350
231550
231754
231960
232158
232358
232558
232760
232952
233140
233332
233526
233714
233900
234082
234280
234474
234666
234854
235058
235270
235472
235670
235874
236086
236294
236488
236678
236876
237092
237312
237514
237712
237918
238126
238328
238532
238736
238948
239156
239362
239568
239780
239994
240198
240392
240594
240798
241008
241212
241410
241610
241818
242024
242222
242416
242614
242822
243026
243224
243416
243622
243836
244050
244240
244432
244624
244834
245030
245218
245408
245602
245814
246018
246212
246408
246610
246814
247010
247198
247392
247604
247808
248000
248190
248394
248606
248804
248994
249188
249392
249602
249796
249984
250178
250386
250594
250796
250992
251194
251394
251596
251788
251978
252170
252370
252576
252772
252964
253166
253360
253550
253738
253932
254144
254350
254548
254738
254948
255146
255338
255524
255708
255894
256090
256314
256542
256754
256960
257186
257408
257608
257808
258014
258214
258408
258608
258810
259020
259220
259426
259632
259840
260044
260242
260440
260644
260854
261060
261258
261460
261670
261878
262074
262264
262452
262644
262836
263024
263208
263398
263590
263800
263998
264188
264376
264564
264766
264956
265144
265334
265528
265738
265940
266130
266320
266514
266730
266942
267148
267354
267566
267780
267986
268184
268388
268596
268820
269022
269218
269412
269616
269820
270020
270216
270418
270626
270822
271014
271214
271416
271618
271812
272008
272210
272420
272622
272814
273006
273206
273410
273608
273802
273996
274198
274416
274638
274838
275030
275224
275434
275634
275832
276032
276238
276448
276648
276840
277036
277252
277464
277672
277880
278072
278262
278458
278658
278850
279056
279274
279492
279700
279900
280106
280308
280514
280716
280912
281114
281322
281534
281736
281942
282158
282380
282596
282796
282996
283202
283404
283602
283796
283992
284192
284394
284588
284772
284960
285154
285364
285578
285784
285980
286182
286386
286576
286766
286956
287162
287372
287578
287770
287958
288156
288392
288592
288786
288978
289184
289392
289594
289794
289998
290208
290416
290612
290812
291018
291224
291426
291624
291832
292042
292248
292444
292640
292838
293044
293260
293462
293664
293870
294088
294304
294504
294704
294916
295132
295330
295522
295716
295908
296110
296302
296496
296690
296904
297136
297348
297544
297754
297980
298194
298406
298616
298828
299056
299262
299468
299684
299904
300112
300312
300508
300708
300908
301104
301296
301492
301690
301886
302076
302264
302474
302686
302892
303088
303282
303482
303682
303878
304066
304258
304454
304650
304844
305032
305232
305436
305638
305834
306022
306208
306406
306628
306858
307074
307282
307502
307726
307942
308146
308356
308572
308784
308984
309184
309394
309608
309806
309998
310190
310394
310598
310796
310998
311204
311408
311600
311788
311978
312170
312374
312580
312778
312982
313214
313440
313650
313862
314092
314308
314520
314726
314932
315140
315352
315550
315746
315940
316138
316330
316520
316704
316896
317098
317304
317498
317688
317882
318092
318294
318490
318686
318890
319098
319304
319498
319690
319888
320100
320304
320500
320696
320908
321110
321306
321508
321702
321904
322092
322284
322488
322698
322902
323098
323298
323498
323714
323916
324116
324316
324524
324732
324930
325122
325320
325532
325734
325930
326126
326334
326536
326734
326924
327122
327344
327570
327776
327982
328200
328416
328624
328824
329026
329242
329470
329674
329870
330074
330282
330494
330704
330900
331092
331286
331484
331680
331872
332060
332248
332454
332680
332900
333108
333318
333532
333734
333928
334126
334330
334532
334726
334922
335132
335342
335540
335740
335944
336152
336354
336546
336734
336930
337134
337332
337522
337722
337930
338148
338356
338556
338750
338952
339170
339368
339558
339746
339942
340142
340334
340530
340726
340926
341130
341324
341516
341720
341928
342128
342322
342508
342708
342914
343116
343314
343532
343756
343976
344184
344392
344600
344804
345008
345214
345422
345622
345820
346014
346212
346408
346604
346794
346982
347172
347372
347570
347758
347944
348140
348362
348588
348784
348978
349168
349366
349572
349772
349970
350174
350392
350606
350808
351010
351218
351432
351630
351828
352032
352244
352452
352656
352856
353072
353294
353504
353708
353914
354126
354334
354534
354734
354940
355148
355348
355550
355750
355954
356154
356358
356564
356778
356978
357174
357372
357570
357768
357956
358142
358328
358522
358722
358918
359104
359294
359484
359678
359866
360054
360244
360440
360630
360812
361000
361198
361412
361614
361808
362008
362212
362416
362616
362810
363012
363238
363456
363658
363848
364036
364234
364436
364634
364832
365042
365270
365488
365702
365912
366136
366354
366568
366778
367002
367218
367428
367634
367844
368054
368270
368466
368658
368858
369062
369264
369456
369648
369850
370062
370254
370444
370636
370838
371042
371238
371428
371616
371812
372008
372204
372402
372608
372812
373008
373198
373394
373602
373810
374008
374210
374412
374622
374820
375016
375216
375422
375634
375834
376028
376228
376442
376656
376858
377056
377260
377470
377670
377874
378086
378296
378500
378696
378894
379110
379318
379518
379708
379906
380110
380322
380526
380716
380914
381122
381336
381540
381736
381942
382136
382322
382510
382712
382914
383104
383290
383486
383702
383922
384122
384322
384522
384736
384946
385146
385338
385536
385748
385952
386142
386328
386528
386724
386916
387102
387292
387482
387692
387892
388080
388270
388464
388662
388854
389046
389254
389460
389676
389876
390072
390276
390482
390684
390884
391086
391292
391488
391686
391884
392098
392288
392474
392664
392858
393052
393242
393430
393618
393824
394028
394228
394416
394610
394808
395012
395214
395408
395608
395834
396050
396258
396464
396676
396892
397102
397302
397506
397710
397910
398104
398294
398486
398678
398884
399078
399272
399470
399680
399886
400082
400278
400482
400690
400892
401086
401286
401490
401690
401884
402068
402258
402452
402656
402846
403040
403236
403448
403656
403848
404032
404220
404416
404602
404790
404980
405182
405392
405580
405770
405966
406166
406364
406554
406750
406962
407172
407380
407580
407782
407992
408202
408402
408594
408792
408990
409198
409394
409586
409780
409978
410174
410368
410558
410756
410968
411174
411366
411568
411776
411976
412164
412348
412532
412730
412928
413118
413306
413502
413720
413920
414114
414308
414500
414696
414890
415088
415300
415510
415720
415920
416110
416300
416494
416686
416870
417060
417264
417470
417682
417888
418112
418342
418564
418766
418964
419170
419384
419584
419780
419978
420186
420386
420582
420780
420978
421180
421376
421566
421754
421944
422136
422330
422512
422692
422882
423096
423292
423482
423678
423886
424100
424306
424506
424714
424922
425128
425330
425534
425742
425944
426142
426340
426538
426740
426932
427124
427324
427526
427732
427930
428122
428312
428510
428708
428896
429080
429268
429460
429664
429854
430042
430230
430422
430616
430806
431000
431198
431422
431632
431842
432038
432240
432438
432642
432840
433034
433226
433428
433638
433844
434032
434230
434448
434654
434854
435050
435246
435450
435668
435866
436062
436254
436452
436656
436858
437056
437258
437470
437682
437888
438084
438292
438496
438694
438886
439080
439280
439478
439668
439862
440060
440270
440464
440650
440840
441036
441226
441414
441600
441788
441986
442188
442384
442574
442766
442968
443170
443360
443550
443740
443934
444128
444314
444508
444708
444918
445116
445314
445522
445730
445930
446120
446318
446520
446716
446904
447092
447280
447472
447668
447862
448052
448248
448452
448660
448850
449040
449236
449454
449662
449868
450064
450262
450470
450680
450874
451060
451260
451468
451670
451862
452058
452270
452476
452678
452874
453070
453274
453472
453664
453860
454060
454272
454470
454660
454846
455040
455240
455436
455630
455826
456042
456244
456442
456636
456836
457048
457252
457452
457636
457824
458012
458204
458396
458590
458808
459026
459238
459446
459644
459844
460040
460232
460420
460604
460802
461006
461204
461400
461606
461820
462028
462240
462442
462642
462842
463050
463264
463466
463668
463876
464092
464300
464502
464704
464910
465116
465312
465500
465692
465884
466080
466274
466464
466682
466894
467108
467314
467510
467716
467924
468116
468308
468500
468694
468886
469078
469274
469484
469686
469882
470078
470278
470494
470696
470894
471102
471314
471520
471720
471922
472136
472354
472560
472758
472954
473156
473362
473560
473752
473946
474146
474350
474548
474744
474938
475150
475360
475560
475750
475936
476138
476336
476528
476720
476918
477116
477314
477502
477690
477882
478080
478272
478460
478658
478874
479080
479284
479482
479686
479888
480090
480284
480478
480682
480884
481082
481274
481466
481678
481874
482070
482266
482480
482692
482890
483082
483270
483462
483668
483864
484056
484250
484456
484660
484860
485058
485262
485470
485668
485856
486046
486242
486450
486648
486844
487036
487238
487442
487638
487830
488028
488232
488434
488628
488826
489036
489250
489446
489640
489840
490036
490230
490412
490594
490788
490990
491180
491368
491550
491740
491934
492126
492314
492500
492694
492884
493076
493262
493446
493634
493830
494022
494216
494416
494620
494814
495006
495202
495410
495618
495810
495998
496186
496376
496586
496782
496968
497158
497352
497556
497758
497950
498154
498362
498558
498748
498942
499144
499348
499544
499734
499928
500136
500336
500534
500740
500952
501162
501368
501568
501762
501956
502158
502354
502542
502732
502926
503118
503306
503500
503710
503920
504122
504322
504524
504738
504950
505150
505346
505536
505730
505938
506138
506334
506526
506720
506912
507100
507290
507486
507678
507862
508050
508242
508436
508624
508808
508990
509178
509382
509574
509762
509964
510176
510384
510588
510790
511000
511210
511420
511624
511826
512044
512266
512478
512684
512890
513100
513306
513502
513694
513890
514086
514274
514458
514644
514834
515026
515214
515402
515586
515774
515972
516166
516354
516550
516758
516970
517174
517368
517556
517762
517968
518166
518362
518564
518778
518990
519194
519386
519588
519786
519992
520190
520382
520582
520794
521002
521202
521392
521580
521772
521970
522160
522348
522534
522732
522920
523110
523296
523480
523676
523884
524076
524264
524456
524656
524860
525054
525248
525444
525638
525836
526032
526222
526424
526624
526822
527016
527214
527420
527624
527828
528024
528232
528444
528660
528866
529068
529266
529478
529690
529902
530098
530290
530484
530684
530876
531066
531254
531448
531636
531824
532010
532202
532392
532590
532778
532966
533158
533354
533550
533746
533938
534136
534342
534554
534756
534954
535156
535364
535562
535760
535948
536138
536330
536530
536732
536920
537114
537306
537498
537686
537870
538062
538258
538474
538676
538870
539066
539262
539468
539668
539860
540052
540260
540468
540672
540866
541060
541270
541478
541674
541872
542072
542272
542466
542660
542856
543064
543272
543472
543666
543862
544070
544272
544470
544664
544872
545078
545276
545466
545656
545852
546050
546236
546422
546608
546804
546994
547182
547366
547552
547744
547948
548140
548328
548516
548710
548908
549106
549298
549490
549698
549904
550098
550292
550496
550710
550928
551138
551338
551544
551758
551964
552166
552370
552592
552798
553004
553210
553428
553644
553850
554044
554238
554442
554650
554850
555044
555238
555448
555652
555850
556046
556240
556438
556638
556832
557024
557216
557418
557624
557816
558004
558198
558414
558614
558806
558996
559194
559390
559582
559770
559960
560168
560370
560572
560768
560968
561176
561380
561576
561766
561960
562158
562358
562542
562728
562914
563104
563294
563480
563664
563850
564044
564236
564424
564612
564812
565024
565228
565414
565598
565780
565970
566162
566350
566536
566722
566944
567158
567362
567556
567756
567956
568164
568366
568566
568774
568984
569188
569386
569582
569774
569976
570176
570376
570572
570772
570982
571184
571380
571572
571770
571978
572182
572378
572570
572768
572974
573176
573376
573578
573792
574008
574210
574406
574606
574812
575018
575218
575412
575610
575814
576014
576208
576394
576580
576772
576968
577154
577338
577528
577720
577926
578116
578306
578496
578696
578886
579072
579260
579458
579660
579858
580050
580254
580468
580672
580870
581066
581276
581476
581666
581862
582072
582272
582470
582666
582876
583088
583284
583472
583660
583846
584038
584220
584402
584590
584786
584982
585178
585376
585566
585766
585954
586140
586332
586560
586776
586982
587188
587398
587620
587822
588022
588224
588430
588634
588836
589032
589228
589434
589640
589838
590030
590224
590424
590620
590812
591002
591198
591394
591586
591776
591968
592166
592362
592552
592740
592926
593138
593332
593524
593708
593886
594066
594258
594452
594638
594826
595018
595218
595426
595620
595808
595996
596190
596388
596580
596768
596964
597160
597372
597570
597768
597964
598162
598362
598554
598740
598930
599132
599326
599518
599716
599924
600128
600328
600524
600726
600934
601142
601346
601546
601746
601964
602172
602380
602596
602810
603022
603226
603424
603630
603840
604040
604234
604426
604624
604838
605038
605240
605440
605648
605862
606064
606264
606464
606668
606866
607060
607250
607442
607634
607816
607998
608182
608376
608572
608762
608950
609138
609334
609534
609722
609912
610102
610308
610502
610690
610876
611062
611252
611444
611632
611826
612028
612230
612430
612624
612822
613024
613224
613416
613604
613792
613994
614202
614410
614620
614822
615020
615210
615392
615576
615766
615980
616192
616396
616608
616814
617014
617216
617430
617636
617840
618036
618234
618428
618632
618836
619032
619226
619424
619624
619830
620032
620230
620424
620628
620830
621024
621224
621428
621632
621830
622018
622212
622420
622624
622820
623012
623210
623412
623606
623800
623990
624174
624366
624556
624740
624924
625110
625312
625508
625698
625888
626080
626278
626478
626666
626856
627046
627242
627432
627620
627804
627996
628190
628382
628570
628766
628966
629156
629342
629532
629742
629950
630148
630342
630544
630752
630966
631166
631358
631550
631750
631948
632138
632328
632522
632710
632898
633092
633294
633498
633714
633910
634106
634304
634504
634698
634886
635092
635298
635500
635696
635900
636108
636312
636504
636698
636898
637102
637304
637496
637688
637884
638076
638262
638444
638630
638820
639016
639206
639394
639578
639776
639974
640162
640346
640532
640724
640934
641132
641330
641524
641724
641920
642106
642286
642470
642662
642862
643058
643240
643432
643630
643834
644032
644226
644434
644640
644842
645038
645226
645424
645626
645824
646014
646212
646414
646618
646816
647004
647200
647402
647594
647780
647968
648162
648356
648542
648728
648922
649122
649318
649506
649692
649880
650072
650272
650472
650660
650854
651062
651266
651472
651666
651864
652066
652272
652464
652654
652848
653044
653234
653424
653610
653802
654014
654222
654420
654612
654806
655004
655200
655390
655578
655768
655972
656172
656370
656564
656764
656962
657156
657350
657544
657744
657940
658134
658334
658530
658722
658916
659108
659318
659516
659704
659896
660098
660294
660488
660678
660878
661090
661290
661478
661670
661860
662052
662240
662424
662606
662796
662988
663180
663372
663558
663746
663950
664154
664340
664522
664702
664886
665068
665248
665426
665618
665818
666018
666218
666430
666640
666852
667052
667250
667446
667644
667844
668042
668252
668464
668664
668864
669070
669282
669484
669674
669862
670056
670252
670446
670638
670840
671050
671260
671458
671656
671850
672048
672236
672422
672606
672796
672982
673168
673350
673542
673732
673918
674102
674288
674482
674680
674876
675070
675276
675482
675682
675878
676072
676270
676482
676684
676876
677068
677264
677464
677656
677844
678032
678226
678426
678618
678808
678996
679192
679390
679580
679768
679960
680154
680360
680552
680738
680926
681118
681314
681512
681704
681908
682094
682282
682468
682664
682866
683054
683242
683436
683632
683840
684028
684216
684406
684606
684812
685010
685212
685416
685640
685854
686052
686244
686438
686630
686822
687010
687196
687388
687580
687774
687962
688150
688340
688544
688736
688928
689118
689318
689518
689716
689912
690100
690298
690506
690710
690910
691102
691296
691488
691686
691874
692056
692238
692422
692604
692784
692962
693140
693320
693508
693692
693880
694076
694280
694486
694680
694874
695070
695266
695466
695666
695862
696062
696268
696460
696646
696830
697018
697210
697400
697586
697776
697966
698164
698362
698550
698736
698924
699114
699306
699496
699680
699868
700060
700250
700430
700612
700790
700970
701150
701332
701514
701696
701882
702078
702286
702484
702680
702870
703058
703244
703428
703610
703790
703978
704168
704358
704546
704740
704950
705150
705350
705548
705746
705956
706150
706340
706528
706718
706910
707106
707292
707482
707680
707890
708092
708286
708480
708676
708874
709062
709248
709434
709642
709844
710038
710228
710420
710622
710814
711000
711190
711380
711584
711780
711974
712176
712378
712582
712786
712984
713196
713408
713616
713812
714010
714210
714416
714618
714812
715016
715234
715444
715656
715868
716080
716276
716468
716656
716850
717046
717234
717420
717614
717818
718022
718216
718410
718602
718802
719000
719190
719376
719570
719778
719990
720184
720372
720562
720762
720956
721148
721344
721552
721756
721952
722146
722348
722562
722766
722962
723154
723356
723568
723776
723968
724160
724350
724550
724744
724942
725140
725356
725568
725774
725966
726158
726350
726550
726740
726924
727114
727304
727494
727680
727862
728052
728242
728432
728624
728820
729018
729224
729412
729600
729784
729978
730170
730362
730552
730750
730958
731150
731340
731526
731718
731922
732116
732306
732496
732696
732900
733104
733300
733494
733680
733866
734050
734230
734408
734590
734772
734954
735140
735332
735528
735724
735912
736096
736284
736476
736664
736854
737052
737276
737496
737700
737900
738106
738326
738546
738758
738978
739210
739440
739654
739856
740060
740266
740478
740680
740878
741070
741266
741466
741660
741848
742040
742238
742440
742634
742824
743014
743208
743412
743610
743808
744006
744212
744420
744616
744808
744996
745190
745398
745606
745804
745996
746190
746394
746588
746778
746960
747146
747332
747520
747712
747918
748136
748354
748566
748786
749012
749234
749444
749658
749886
750116
750330
750532
750736
750942
751146
751342
751540
751740
751942
752140
752340
752536
752736
752932
753126
753318
753506
753696
753886
754070
754256
754444
754636
754836
755026
755218
755416
755624
755838
756050
756250
756448
756646
756842
757034
757224
757414
757616
757820
758024
758222
758428
758638
758846
759044
759238
759438
759642
759848
760048
760238
760434
760632
760832
761024
761214
761408
761608
761800
761992
762180
762364
762546
762730
762914
763104
763302
763516
763736
763950
764156
764362
764586
764814
765028
765232
765440
765654
765868
766070
766268
766472
766682
766884
767082
767276
767468
767662
767852
768042
768232
768426
768620
768808
768992
769180
769368
769564
769754
769942
770132
770338
770556
770766
770968
771168
771372
771588
771794
772002
772204
772408
772616
772814
773012
773204
773406
773606
773798
773992
774184
774380
774572
774764
774954
775148
775350
775548
775748
775950
776162
776380
776586
776780
776972
777166
777360
777554
777744
777934
778132
778348
778558
778760
778960
779154
779354
779542
779728
779912
780094
780282
780470
780660
780858
781050
781248
781442
781640
781834
782042
782242
782436
782626
782812
783000
783192
783382
783568
783756
783944
784136
784324
784504
784682
784860
785042
785222
785408
785610
785820
786032
786238
786440
786652
786866
787074
787270
787470
787666
787866
788058
788248
788436
788634
788828
789018
789202
789386
789572
789766
789968
790164
790378
790598
790814
791022
791224
791430
791636
791842
792044
792244
792438
792630
792816
792998
793186
793388
793594
793800
793998
794194
794394
794588
794784
794998
795214
795428
795628
795824
796016
796214
796416
796608
796794
796980
797174
797370
797564
797766
797976
798194
798408
798606
798810
799014
799220
799416
799608
799802
800000
800210
800414
800620
800816
801018
801218
801416
801620
801826
802026
802222
802420
802622
802826
803024
803220
803420
803622
803824
804022
804220
804420
804616
804810
805006
805200
805390
805580
805770
805960
806148
806336
806518
806702
806886
807074
807258
807442
807628
807822
808016
808216
808410
808612
808818
809014
809214
809412
809608
809802
809998
810196
810384
810570
810756
810940
811120
811302
811478
811654
811830
812010
812188
812364
812542
812726
812910
813094
813276
813462
813646
813830
814012
814196
814384
814568
814750
814930
815112
815300
815484
815668
815850
816042
816236
816430
816622
816816
817012
817204
817396
817590
817784
817976
818164
818354
818544
818732
818918
819102
819286
819470
819652
819832
820010
820188
820364
820538
820714
820890
821070
821250
821428
821602
821772
821938
822104
822264
822426
822588
822754
822930
823116
823294
823466
823642
823824
824002
824176
824354
824530
824708
824884
825056
825228
825398
825568
825736
825904
826074
826256
826456
826666
826880
827110
827344
827560
827764
827964
828158
828348
828538
828728
828914
829104
829300
829494
829684
829870
830052
830224
830392
830558
830720
830880
831036
831192
831344
831496
831648
831798
831948
832096
832248
832398
832548
832696
832844
832990
833138
833284
833428
833574
833718
833864
834008
834154
834300
834448
834596
834742
834890
835038
835184
835332
835480
835626
835774
835920
836066
836214
836360
836510
836658
836804
836954
837106
837266
837434
837602
837770
837938
838108
838278
838444
838608
838768
838926
839082
839232
839384
839536
839690
839848
840018
840198
840394
840578
840758
840934
841108
841280
841450
841616
841782
841944
842106
842266
842428
842590
842760
842936
843118
843294
843468
843640
843802
843966
844134
844308
844486
844660
844830
845002
845166
845332
845496
845656
845818
845976
846138
846314
846542
846768
846998
847218
847424
847616
847798
847974
848142
848318
848498
848674
848840
849008
849190
849380
849568
849752
849942
850146
850346
850528
850712
850890
851070
851260
851480
851678
851860
852028
852210
852400
852636
852874
853102
853322
853534
853732
853926
854112
854298
854496
854706
854912
855104
855292
855472
855652
855840
856024
856222
856416
856602
856782
856956
857128
857302
857486
857674
857860
858048
858236
858428
858638
858836
859026
859210
859394
859572
859742
859912
860104
860324
860550
860760
860978
861200
861410
861618
861824
862038
862262
862480
862700
862926
863158
863376
863586
863804
864036
864254
864464
864660
864854
865040
865232
865422
865596
865768
865938
866106
866272
866436
866600
866764
866928
867090
867252
867414
867576
867734
867890
868046
868200
868352
868502
868652
868798
868946
869094
869240
869386
869534
869678
869822
869970
870120
870274
870428
870580
870734
870886
871040
871196
871350
871508
871668
871830
871990
872150
872308
872470
872632
872790
872948
873104
873262
873420
873576
873732
873890
874046
874202
874358
874508
874656
874800
874942
875082
875220
875354
875488
875620
875752
875884
876014
876146
876278
876412
876552
876702
876856
877012
877166
877318
877470
877622
877774
877928
878078
878226
878372
878518
878662
878806
878948
879090
879230
879370
879510
879650
879792
879934
880076
880218
880362
880506
880654
880802
880952
881098
881244
881392
881538
881686
881832
881976
882118
882258
882396
882534
882670
882808
882942
883076
883210
883348
883486
883626
883764
883902
884040
884178
884316
884452
884590
884726
884864
885000
885136
885272
885406
885540
885674
885806
885938
886070
886202
886332
886464
886594
886724
886856
886988
887120
887252
887388
887524
887658
887794
887932
888070
888210
888348
888486
888624
888760
888898
889036
889176
889316
889454
889590
889728
889868
890008
890150
890294
890438
890580
890722
890864
891010
891154
891300
891442
891584
891724
891864
892006
892144
892284
892422
892562
892698
892834
892970
893106
893240
893376
893510
893646
893784
893920
894058
894194
894332
894470
894610
894748
894886
895024
895162
895300
895436
895574
895710
895850
895998
896168
896342
896512
896678
896840
897004
897172
897338
897502
897664
897824
897986
898150
898314
898474
898630
898786
898942
899096
899244
899394
899542
899694
899854
900026
900202
900368
900534
900696
900860
901030
901196
901358
901520
901680
901836
901994
902156
902324
902492
902666
902842
903070
903266
903452
903628
903798
903964
904122
904274
904420
904564
904706
904850
904994
905148
905308
905464
905618
905770
905922
906072
906224
906376
906540
906738
906950
907156
907352
907536
907710
907876
908044
908208
908370
908534
908698
908862
909028
909198
909368
909536
909704
909872
910038
910204
910372
910554
910752
910954
911162
911384
911590
911782
911964
912148
912330
912530
912744
912952
913148
913336
913516
913694
913868
914042
914224
914406
914630
914888
915124
915330
915526
915710
915892
916070
916246
916418
916596
916778
916956
917132
917306
917476
917650
917826
918004
918182
918358
918534
918712
918886
919064
919240
919420
919600
919778
919954
920128
920308
920490
920668
920846
921026
921210
921392
921576
921768
921968
922180
922392
922598
922796
922986
923172
923356
923534
923708
923880
924058
924240
924420
924604
924782
924960
925134
925314
925496
925682
925870
926062
926250
926440
926634
926834
927036
927236
927440
927652
927868
928078
928288
928496
928714
928926
929142
929364
929588
929808
930026
930248
930468
930678
930890
931104
931318
931530
931744
931964
932186
932398
932614
932834
933048
933260
933474
933694
933918
934138
934358
934578
934794
935002
935210
935416
935630
935842
936056
936282
936516
936742
936964
937188
937412
937626
937838
938056
938282
938502
938720
938950
939176
939398
939618
939834
940048
940262
940480
940698
940912
941122
941324
941524
941718
941904
942088
942266
942444
942624
942818
943018
943220
943432
943660
943896
944116
944332
944554
944776
944988
945202
945422
945642
945862
946080
946298
946508
946712
946910
947118
947330
947536
947746
947962
948176
948386
948594
948808
949022
949226
949434
949646
949860
950072
950280
950494
950714
950926
951138
951348
951562
951774
951982
952190
952404
952606
952808
953008
953214
953418
953620
953826
954034
954246
954452
954654
954856
955064
955266
955474
955682
955892
956100
956308
956514
956726
956938
957148
957358
957572
957782
957992
958200
958416
958624
958832
959044
959254
959454
959650
959850
960054
960280
960496
960714
960934
961156
961368
961574
961780
961988
962196
962402
962610
962834
963054
963270
963480
963696
963914
964130
964338
964554
964776
964996
965214
965436
965662
965886
966104
966326
966550
966774
966994
967212
967432
967650
967860
968076
968296
968518
968728
968934
969138
969340
969538
969738
969940
970144
970346
970546
970746
970954
971156
971358
971556
971764
971972
972176
972380
972590
972800
973006
973212
973424
973638
973848
974056
974268
974484
974706
974924
975142
975364
975588
975804
976016
976228
976440
976656
976864
977082
977306
977540
977758
977966
978176
978392
978610
978812
979012
979206
979396
979580
979762
979940
980116
980290
980466
980658
980860
981068
981272
981494
981718
981934
982150
982370
982594
982812
983026
983248
983470
983694
983910
984130
984350
984568
984784
984994
985208
985418
985644
985856
986066
986272
986480
986694
986898
987100
987304
987516
987728
987936
988144
988354
988562
988762
988964
989172
989392
989604
989826
990048
990262
990474
990688
990908
991128
991344
991558
991780
992008
992236
992450
992656
992862
993072
993296
993522
993742
993954
994164
994380
994590
994804
995018
995250
995476
995682
995886
996092
996298
996504
996710
996926
997152
997376
997590
997808
998030
998248
998460
998668
998870
999068
999260
999452
999644
999838
1000028
1000216
1000404
1000594
1000790
1000984
1001184
1001400
1001626
1001842
1002052
1002262
1002482
1002714
1002936
1003152
1003372
1003596
1003804
1004002
1004198
1004388
1004578
1004764
1004946
1005124
1005302
1005482
1005668
1005864
1006076
1006294
1006502
1006712
1006938
1007158
1007376
1007596
1007828
1008058
1008280
1008492
1008702
1008916
1009128
1009340
1009550
1009762
1009986
1010208
1010428
1010634
1010844
1011050
1011260
1011462
1011662
1011870
1012086
1012304
1012516
1012734
1012960
1013188
1013402
1013610
1013814
1014016
1014212
1014408
1014606
1014818
1015036
1015250
1015474
1015704
1015926
1016134
1016338
1016542
1016748
1016952
1017154
1017358
1017564
1017780
1017996
1018204
1018410
1018616
1018820
1019018
1019214
1019406
1019594
1019776
1019960
1020142
1020332
1020534
1020740
1020946
1021162
1021380
1021594
1021798
1022008
1022212
1022420
1022624
1022826
1023026
1023222
1023422
1023624
1023838
1024052
1024266
1024476
1024692
1024900
1025102
1025304
1025506
1025708
1025910
1026106
1026304
1026506
1026712
1026920
1027128
1027336
1027534
1027730
1027922
1028110
1028298
1028482
1028670
1028856
1029054
1029252
1029446
1029642
1029836
1030024
1030214
1030402
1030592
1030776
1030958
1031130
1031302
1031472
1031642
1031814
1031992
1032168
1032342
1032520
1032690
1032860
1033026
1033188
1033352
1033516
1033680
1033842
1034002
1034164
1034326
1034492
1034662
1034836
1035020
1035218
1035422
1035614
1035796
1035974
1036148
1036320
1036496
1036680
1036860
1037036
1037214
1037410
1037652
1037878
1038082
1038270
1038458
1038656
1038864
1039082
1039308
1039532
1039756
1039968
1040166
1040362
1040568
1040798
1041042
1041268
1041498
1041728
1041952
1042164
1042366
1042562
1042762
1042958
1043160
1043352
1043550
1043794
1044052
1044298
1044540
1044768
1044968
1045158
1045344
1045528
1045700
1045884
1046066
1046252
1046510
1046734
1046960
1047170
1047376
1047582
1047782
1047978
1048178
1048376
1048576
1048782
1049008
1049256
1049506
1049752
1049986
1050204
1050410
1050602
1050788
1051010
1051264
1051520
1051782
1052028
1052260
1052470
1052660
1052854
1053056
1053258
1053514
1053750
1053988
1054218
1054442
1054666
1054888
1055108
1055348
1055612
1055884
1056152
1056414
1056664
1056892
1057106
1057306
1057490
1057696
1057944
1058202
1058444
1058676
1058908
1059142
1059376
1059598
1059810
1060020
1060238
1060456
1060676
1060892
1061114
1061356
1061590
1061808
1062014
1062222
1062434
1062640
1062832
1063020
1063200
1063390
1063588
1063784
1063972
1064182
1064400
1064624
1064824
1065028
1065230
1065436
1065636
1065830
1066016
1066196
1066390
1066620
1066874
1067116
1067350
1067574
1067780
1067976
1068172
1068388
1068614
1068846
1069084
1069328
1069576
1069822
1070058
1070278
1070492
1070698
1070902
1071096
1071286
1071474
1071702
1071928
1072138
1072374
1072620
1072848
1073062
1073266
1073474
1073686
1073900
1074112
1074322
1074548
1074810
1075054
1075300
1075538
1075766
1075998
1076236
1076476
1076702
1076926
1077158
1077392
1077626
1077852
1078088
1078334
1078562
1078786
1079012
1079240
1079452
1079658
1079860
1080062
1080262
1080458
1080658
1080868
1081072
1081286
1081520
1081748
1081952
1082156
1082364
1082572
1082768
1082968
1083170
1083388
1083612
1083824
1084044
1084274
1084502
1084714
1084926
1085132
1085344
1085540
1085734
1085942
1086154
1086368
1086572
1086764
1086952
1087128
1087302
1087484
1087672
1087876
1088110
1088374
1088608
1088826
1089032
1089242
1089444
1089646
1089854
1090078
1090308
1090530
1090746
1090978
1091202
1091402
1091602
1091798
1092002
1092206
1092406
1092594
1092786
1092976
1093170
1093354
1093554
1093748
1093940
1094178
1094426
1094668
1094886
1095088
1095308
1095542
1095778
1095994
1096206
1096422
1096630
1096834
1097034
1097230
1097416
1097596
1097776
1097966
1098154
1098342
1098538
1098766
1099004
1099234
1099454
1099660
1099862
1100062
1100258
1100454
1100648
1100846
1101048
1101248
1101442
1101634
1101820
1102000
1102178
1102354
1102534
1102718
1102904
1103088
1103272
1103456
1103648
1103836
1104024
1104212
1104394
1104572
1104754
1104938
1105128
1105318
1105502
1105692
1105882
1106062
1106244
1106424
1106602
1106778
1106952
1107122
1107290
1107456
1107620
1107786
1107966
1108154
1108340
1108526
1108710
1108890
1109068
1109246
1109424
1109608
1109788
1109964
1110138
1110312
1110486
1110660
1110836
1111010
1111180
1111348
1111512
1111674
1111828
1111984
1112136
1112290
1112444
1112598
1112758
1112926
1113090
1113258
1113428
1113610
1113794
1113980
1114158
1114334
1114502
1114668
1114834
1114998
1115164
1115330
1115500
1115672
1115846
1116024
1116198
1116372
1116546
1116718
1116890
1117064
1117232
1117398
1117564
1117734
1117906
1118130
1118326
1118514
1118700
1118880
1119054
1119222
1119390
1119560
1119724
1119886
1120048
1120210
1120374
1120540
1120706
1120872
1121038
1121206
1121376
1121554
1121734
1121912
1122088
1122262
1122434
1122602
1122766
1122926
1123086
1123252
1123434
1123628
1123828
1124024
1124210
1124384
1124558
1124728
1124906
1125082
1125254
1125424
1125590
1125752
1125910
1126048
1126208
1126354
1126498
1126642
1126786
1126934
1127088
1127252
1127426
1127604
1127780
1127958
1128144
1128406
1128646
1128866
1129098
1129348
1129586
1129800
1130006
1130208
1130404
1130596
1130786
1130982
1131184
1131388
1131590
1131788
1131980
1132172
1132362
1132578
1132796
1133026
1133246
1133458
1133664
1133864
1134060
1134254
1134452
1134646
1134834
1135022
1135212
1135406
1135594
1135776
1135952
1136126
1136298
1136462
1136632
1136816
1137006
1137202
1137394
1137588
1137776
1137976
1138194
1138412
1138616
1138816
1139024
1139232
1139434
1139650
1139868
1140092
1140304
1140508
1140712
1140908
1141104
1141304
1141512
1141720
1141928
1142126
1142320
1142512
1142708
1142910
1143104
1143290
1143474
1143660
1143850
1144050
1144244
1144436
1144626
1144814
1144998
1145180
1145360
1145536
1145712
1145890
1146066
1146242
1146420
1146604
1146794
1146990
1147184
1147380
1147568
1147750
1147930
1148102
1148274
1148440
1148608
1148778
1148954
1149128
1149306
1149486
1149662
1149834
1150002
1150168
1150334
1150500
1150664
1150828
1150990
1151154
1151320
1151486
1151654
1151824
1151992
1152160
1152332
1152502
1152672
1152838
1153002
1153168
1153338
1153512
1153688
1153870
1154056
1154244
1154432
1154616
1154806
1154998
1155186
1155368
1155546
1155718
1155890
1156066
1156238
1156406
1156574
1156740
1156906
1157080
1157256
1157436
1157614
1157790
1157968
1158144
1158322
1158504
1158688
1158878
1159070
1159262
1159458
1159668
1159876
1160070
1160262
1160446
1160624
1160798
1160968
1161142
1161318
1161492
1161666
1161842
1162018
1162194
1162366
1162536
1162702
1162864
1163026
1163186
1163346
1163508
1163676
1163846
1164016
1164182
1164352
1164526
1164704
1164880
1165060
1165242
1165420
1165596
1165766
1165932
1166094
1166254
1166414
1166574
1166734
1166898
1167058
1167216
1167378
1167536
1167694
1167868
1168072
1168286
1168500
1168702
1168904
1169108
1169314
1169520
1169718
1169904
1170088
1170266
1170440
1170610
1170778
1170948
1171116
1171282
1171450
1171620
1171788
1171956
1172122
1172284
1172448
1172610
1172778
1172948
1173126
1173306
1173482
1173656
1173830
1173998
1174162
1174326
1174488
1174644
1174802
1174958
1175112
1175266
1175418
1175568
1175716
1175866
1176016
1176170
1176326
1176490
1176650
1176814
1176980
1177148
1177314
1177484
1177658
1177834
1178010
1178182
1178352
1178522
1178692
1178860
1179028
1179196
1179366
1179536
1179706
1179872
1180040
1180208
1180372
1180534
1180696
1180854
1181014
1181174
1181332
1181488
1181646
1181804
1181974
1182162
1182360
1182546
1182728
1182902
1183078
1183248
1183420
1183588
1183760
1183934
1184108
1184284
1184458
1184632
1184806
1184978
1185148
1185320
1185494
1185680
1185874
1186076
1186270
1186470
1186668
1186864
1187056
1187246
1187430
1187614
1187794
1187976
1188158
1188344
1188526
1188702
1188876
1189050
1189220
1189388
1189554
1189718
1189880
1190042
1190200
1190356
1190512
1190668
1190822
1190974
1191134
1191298
1191466
1191642
1191820
1192002
1192180
1192356
1192532
1192706
1192882
1193056
1193234
1193418
1193616
1193810
1194004
1194194
1194382
1194568
1194750
1194930
1195112
1195296
1195480
1195662
1195840
1196018
1196196
1196376
1196554
1196726
1196894
1197070
1197238
1197408
1197572
1197738
1197906
1198076
1198246
1198416
1198584
1198754
1198926
1199104
1199282
1199460
1199642
1199824
1200014
1200204
1200390
1200576
1200762
1200948
1201136
1201322
1201506
1201688
1201870
1202048
1202228
1202406
1202586
1202766
1202944
1203124
1203300
1203470
1203640
1203810
1203978
1204144
1204310
1204474
1204636
1204796
1204956
1205114
1205272
1205428
1205584
1205738
1205894
1206052
1206218
1206390
1206566
1206762
1206968
1207176
1207386
1207596
1207798
1207998
1208198
1208394
1208584
1208772
1208958
1209138
1209314
1209490
1209666
1209840
1210014
1210188
1210364
1210540
1210718
1210898
1211078
1211254
1211430
1211608
1211784
1211960
1212132
1212304
1212476
1212650
1212824
1212998
1213170
1213340
1213514
1213686
1213856
1214028
1214194
1214360
1214524
1214688
1214848
1215008
1215168
1215328
1215488
1215646
1215804
1215964
1216124
1216286
1216446
1216608
1216768
1216926
1217084
1217242
1217404
1217570
1217740
1217914
1218090
1218266
1218444
1218622
1218798
1218974
1219150
1219328
1219504
1219682
1219858
1220036
1220216
1220392
1220568
1220742
1220916
1221092
1221268
1221444
1221616
1221792
1221966
1222142
1222314
1222486
1222656
1222828
1223000
1223170
1223336
1223502
1223664
1223824
1223984
1224146
1224308
1224472
1224638
1224810
1224986
1225162
1225336
1225518
1225698
1225882
1226064
1226248
1226434
1226622
1226812
1226994
1227178
1227360
1227544
1227726
1227908
1228090
1228268
1228446
1228626
1228800
1228976
1229152
1229328
1229500
1229676
1229854
1230034
1230214
1230394
1230574
1230754
1230936
1231122
1231302
1231484
1231666
1231846
1232024
1232204
1232382
1232564
1232744
1232922
1233104
1233286
1233468
1233650
1233826
1234006
1234184
1234356
1234524
1234694
1234858
1235020
1235180
1235342
1235508
1235680
1235852
1236032
1236216
1236400
1236582
1236766
1236956
1237144
1237332
1237512
1237692
1237870
1238048
1238224
1238402
1238576
1238754
1238938
1239130
1239314
1239502
1239692
1239880
1240068
1240254
1240440
1240626
1240812
1240998
1241178
1241358
1241538
1241720
1241902
1242080
1242258
1242436
1242620
1242802
1242982
1243160
1243336
1243514
1243694
1243874
1244054
1244232
1244414
1244594
1244772
1244946
1245120
1245298
1245476
1245652
1245830
1246008
1246190
1246372
1246554
1246734
1246912
1247098
1247278
1247458
1247638
1247822
1248010
1248196
1248376
1248558
1248740
1248926
1249104
1249282
1249464
1249646
1249826
1250006
1250186
1250368
1250552
1250738
1250922
1251106
1251292
1251480
1251664
1251844
1252024
1252200
1252372
1252538
1252700
1252860
1253020
1253176
1253338
1253504
1253672
1253846
1254026
1254216
1254406
1254594
1254786
1254976
1255168
1255356
1255542
1255728
1255916
1256102
1256282
1256470
1256658
1256850
1257038
1257226
1257416
1257604
1257792
1257976
1258160
1258346
1258532
1258716
1258900
1259082
1259268
1259454
1259638
1259822
1260010
1260198
1260390
1260574
1260758
1260944
1261128
1261312
1261494
1261676
1261864
1262058
1262246
1262434
1262624
1262818
1263010
1263196
1263382
1263570
1263758
1263942
1264128
1264318
1264510
1264698
1264886
1265076
1265266
1265460
1265650
1265838
1266028
1266220
1266410
1266600
1266790
1266980
1267178
1267368
1267556
1267746
1267934
1268124
1268310
1268494
1268678
1268862
1269050
1269234
1269418
1269604
1269794
1269982
1270168
1270354
1270542
1270728
1270916
1271104
1271288
1271474
1271672
1271866
1272056
1272244
1272432
1272622
1272810
1272996
1273180
1273364
1273550
1273736
1273918
1274100
1274284
1274466
1274650
1274834
1275016
1275198
1275384
1275572
1275756
1275942
1276128
1276318
1276508
1276694
1276876
1277060
1277242
1277426
1277606
1277786
1277968
1278154
1278336
1278516
1278696
1278880
1279066
1279250
1279434
1279620
1279808
1279996
1280182
1280368
1280556
1280742
1280924
1281106
1281290
1281476
1281662
1281842
1282026
1282210
1282398
1282588
1282770
1282952
1283136
1283320
1283506
1283688
1283870
1284050
1284236
1284424
1284608
1284792
1284974
1285162
1285352
1285546
1285736
1285924
1286110
1286300
1286492
1286680
1286866
1287054
1287246
1287440
1287630
1287818
1288010
1288196
1288376
1288552
1288726
1288898
1289068
1289238
1289410
1289580
1289760
1289946
1290132
1290320
1290512
1290702
1290894
1291080
1291264
1291446
1291632
1291816
1292000
1292184
1292370
1292560
1292744
1292928
1293112
1293300
1293484
1293670
1293852
1294036
1294224
1294416
1294604
1294792
1294982
1295176
1295366
1295554
1295744
1295938
1296132
1296322
1296508
1296694
1296880
1297066
1297252
1297436
1297622
1297810
1297996
1298178
1298364
1298550
1298736
1298918
1299104
1299288
1299476
1299662
1299844
1300028
1300212
1300400
1300582
1300768
1300954
1301142
1301330
1301518
1301704
1301896
1302088
1302278
1302466
1302656
1302842
1303024
1303200
1303374
1303546
1303714
1303884
1304056
1304230
1304408
1304588
1304768
1304950
1305140
1305332
1305520
1305706
1305892
1306080
1306268
1306454
1306640
1306830
1307022
1307214
1307404
1307596
1307786
1307978
1308166
1308352
1308542
1308732
1308916
1309102
1309290
1309484
1309674
1309860
1310042
1310226
1310410
1310598
1310782
1310972
1311164
1311362
1311558
1311746
1311936
1312128
1312322
1312514
1312704
1312888
1313072
1313260
1313448
1313630
1313810
1313990
1314176
1314366
1314556
1314746
1314940
1315140
1315340
1315534
1315726
1315924
1316112
1316296
1316480
1316664
1316848
1317034
1317216
1317400
1317588
1317778
1317966
1318154
1318342
1318534
1318728
1318918
1319108
1319300
1319496
1319690
1319878
1320062
1320252
1320446
1320638
1320830
1321022
1321216
1321414
1321606
1321796
1321986
1322176
1322364
1322548
1322728
1322910
1323094
1323286
1323474
1323662
1323850
1324042
1324234
1324424
1324610
1324800
1324988
1325178
1325364
1325548
1325736
1325922
1326110
1326296
1326482
1326674
1326868
1327058
1327246
1327434
1327624
1327812
1327996
1328176
1328360
1328546
1328732
1328918
1329102
1329292
1329484
1329672
1329856
1330038
1330220
1330406
1330586
1330770
1330950
1331136
1331326
1331512
1331696
1331882
1332070
1332260
1332446
1332632
1332816
1333004
1333196
1333386
1333574
1333762
1333952
1334146
1334340
1334532
1334722
1334914
1335106
1335298
1335488
1335672
1335850
1336024
1336196
1336368
1336536
1336702
1336874
1337052
1337232
1337416
1337602
1337796
1337990
1338180
1338372
1338560
1338750
1338938
1339124
1339308
1339500
1339696
1339890
1340082
1340276
1340480
1340682
1340884
1341084
1341286
1341488
1341690
1341888
1342084
1342280
1342476
1342678
1342874
1343072
1343270
1343470
1343666
1343864
1344060
1344256
1344448
1344638
1344824
1345016
1345214
1345406
1345598
1345790
1345982
1346170
1346358
1346542
1346732
1346926
1347118
1347310
1347498
1347694
1347888
1348080
1348268
1348456
1348650
1348844
1349030
1349210
1349388
1349568
1349750
1349932
1350118
1350308
1350500
1350698
1350892
1351082
1351272
1351458
1351644
1351824
1352006
1352188
1352372
1352564
1352752
1352938
1353130
1353322
1353514
1353704
1353894
1354084
1354276
1354472
1354664
1354856
1355052
1355248
1355440
1355628
1355824
1356024
1356222
1356414
1356606
1356804
1356998
1357192
1357384
1357578
1357776
1357974
1358168
1358362
1358560
1358754
1358942
1359128
1359310
1359496
1359686
1359876
1360074
1360268
1360454
1360636
1360812
1360984
1361154
1361324
1361498
1361674
1361856
1362042
1362240
1362442
1362642
1362840
1363038
1363238
1363432
1363626
1363820
1364026
1364224
1364426
1364630
1364834
1365042
1365246
1365448
1365654
1365860
1366062
1366260
1366456
1366652
1366852
1367046
1367236
1367426
1367618
1367814
1368004
1368192
1368382
1368574
1368768
1368960
1369148
1369336
1369524
1369714
1369900
1370088
1370274
1370464
1370664
1370860
1371052
1371246
1371438
1371632
1371822
1372006
1372194
1372376
1372562
1372740
1372918
1373092
1373264
1373438
1373608
1373782
1373960
1374138
1374318
1374498
1374686
1374886
1375088
1375284
1375480
1375682
1375884
1376082
1376276
1376466
1376656
1376846
1377034
1377222
1377410
1377606
1377794
1377978
1378154
1378328
1378500
1378670
1378836
1379012
1379178
1379348
1379518
1379686
1379856
1380028
1380204
1380386
1380568
1380758
1380958
1381160
1381358
1381558
1381766
1381976
1382182
1382386
1382588
1382796
1383002
1383204
1383406
1383612
1383814
1384022
1384226
1384434
1384642
1384850
1385052
1385250
1385454
1385662
1385866
1386070
1386274
1386484
1386686
1386884
1387086
1387286
1387490
1387688
1387892
1388100
1388314
1388518
1388722
1388926
1389132
1389338
1389540
1389744
1389940
1390134
1390324
1390512
1390696
1390884
1391076
1391272
1391468
1391664
1391864
1392072
1392276
1392474
1392672
1392874
1393074
1393268
1393460
1393654
1393856
1394056
1394250
1394442
1394634
1394834
1395032
1395230
1395432
1395640
1395852
1396058
1396262
1396470
1396678
1396882
1397082
1397278
1397476
1397670
1397862
1398054
1398248
1398444
1398640
1398836
1399032
1399234
1399434
1399630
1399828
1400028
1400224
1400422
1400614
1400814
1401012
1401210
1401404
1401602
1401798
1401996
1402192
1402390
1402592
1402798
1402998
1403194
1403394
1403592
1403794
1403992
1404196
1404402
1404612
1404818
1405020
1405226
1405434
1405638
1405838
1406038
1406238
1406438
1406634
1406830
1407024
1407220
1407416
1407608
1407798
1407992
1408190
1408388
1408584
1408780
1408982
1409182
1409378
1409570
1409762
1409958
1410150
1410338
1410524
1410714
1410902
1411090
1411274
1411456
1411640
1411824
1412006
1412190
1412376
1412568
1412766
1412960
1413150
1413342
1413536
1413728
1413916
1414102
1414286
1414472
1414654
1414836
1415018
1415202
1415392
1415584
1415776
1415966
1416156
1416350
1416540
1416726
1416914
1417104
1417294
1417484
1417670
1417854
1418040
1418228
1418412
1418594
1418776
1418960
1419148
1419336
1419524
1419712
1419906
1420106
1420306
1420502
1420700
1420900
1421104
1421304
1421506
1421712
1421924
1422126
1422326
1422526
1422724
1422918
1423112
1423308
1423506
1423710
1423908
1424106
1424306
1424504
1424698
1424890
1425078
1425270
1425466
1425658
1425848
1426034
1426224
1426412
1426600
1426788
1426978
1427172
1427368
1427566
1427764
1427960
1428156
1428356
1428554
1428746
1428938
1429134
1429332
1429526
1429720
1429912
1430106
1430302
1430496
1430690
1430884
1431086
1431292
1431496
1431696
1431902
1432108
1432310
1432502
1432692
1432878
1433060
1433240
1433422
1433602
1433788
1433972
1434160
1434348
1434546
1434746
1434938
1435134
1435334
1435534
1435738
1435936
1436132
1436328
1436534
1436730
1436922
1437112
1437300
1437488
1437676
1437862
1438048
1438236
1438428
1438628
1438826
1439024
1439224
1439430
1439640
1439848
1440050
1440254
1440458
1440664
1440864
1441064
1441264
1441470
1441672
1441876
1442082
1442294
1442502
1442706
1442908
1443112
1443318
1443518
1443716
1443912
1444106
1444302
1444496
1444692
1444892
1445098
1445302
1445504
1445702
1445904
1446108
1446312
1446508
1446702
1446900
1447100
1447298
1447494
1447688
1447890
1448088
1448278
1448472
1448668
1448862
1449054
1449248
1449448
1449644
1449840
1450030
1450220
1450416
1450612
1450806
1450998
1451186
1451368
1451548
1451722
1451894
1452062
1452228
1452398
1452574
1452756
1452940
1453126
1453310
1453492
1453678
1453862
1454052
1454244
1454432
1454620
1454816
1455014
1455208
1455398
1455586
1455776
1455980
1456182
1456386
1456588
1456788
1456990
1457192
1457386
1457576
1457766
1457954
1458142
1458328
1458512
1458696
1458878
1459060
1459238
1459422
1459610
1459806
1460002
1460192
1460380
1460568
1460758
1460950
1461142
1461334
1461526
1461722
1461920
1462116
1462304
1462490
1462678
1462866
1463056
1463244
1463436
1463624
1463816
1464016
1464214
1464408
1464608
1464806
1464998
1465188
1465368
1465548
1465724
1465904
1466088
1466276
1466470
1466676
1466882
1467078
1467272
1467472
1467672
1467872
1468064
1468258
1468452
1468648
1468846
1469038
1469230
1469420
1469610
1469794
1469976
1470154
1470330
1470504
1470678
1470858
1471036
1471218
1471406
1471598
1471792
1471990
1472186
1472384
1472578
1472772
1472970
1473180
1473392
1473602
1473806
1474010
1474224
1474438
1474652
1474858
1475064
1475272
1475480
1475688
1475894
1476100
1476308
1476516
1476718
1476918
1477114
1477316
1477518
1477708
1477896
1478082
1478264
1478444
1478626
1478816
1479012
1479200
1479390
1479580
1479770
1479962
1480152
1480340
1480530
1480718
1480902
1481086
1481264
1481444
1481618
1481790
1481962
1482140
1482324
1482510
1482698
1482892
1483096
1483300
1483502
1483702
1483904
1484104
1484308
1484506
1484700
1484898
1485096
1485302
1485506
1485710
1485912
1486118
1486326
1486532
1486734
1486934
1487136
1487334
1487524
1487712
1487898
1488084
1488274
1488462
1488656
1488856
1489066
1489278
1489482
1489686
1489896
1490110
1490324
1490530
1490740
1490954
1491168
1491374
1491578
1491784
1491994
1492200
1492404
1492604
1492810
1493010
1493206
1493398
1493580
1493762
1493942
1494122
1494304
1494486
1494672
1494864
1495062
1495266
1495472
1495686
1495900
1496108
1496312
1496518
1496720
1496920
1497116
1497314
1497512
1497714
1497916
1498116
1498316
1498522
1498728
1498932
1499136
1499334
1499536
1499738
1499942
1500146
1500350
1500558
1500774
1500988
1501194
1501398
1501596
1501796
1501994
1502186
1502380
1502570
1502756
1502938
1503120
1503300
1503478
1503654
1503828
1504002
1504174
1504342
1504510
1504678
1504842
1505008
1505174
1505340
1505504
1505670
1505834
1505996
1506158
1506316
1506478
1506638
1506798
1506960
1507120
1507284
1507446
1507612
1507778
1507944
1508112
1508284
1508458
1508636
1508816
1508996
1509182
1509368
1509560
1509748
1509936
1510126
1510322
1510514
1510712
1510908
1511108
1511312
1511524
1511732
1511944
1512146
1512354
1512564
1512772
1512976
1513178
1513378
1513578
1513778
1513984
1514188
1514392
1514592
1514796
1515002
1515206
1515404
1515602
1515798
1515994
1516190
1516382
1516578
1516770
1516962
1517152
1517338
1517524
1517708
1517888
1518066
1518244
1518424
1518604
1518784
1518970
1519158
1519350
1519540
1519730
1519920
1520110
1520298
1520488
1520680
1520868
1521052
1521236
1521420
1521600
1521778
1521960
1522140
1522322
1522502
1522682
1522860
1523042
1523222
1523404
1523588
1523776
1523970
1524162
1524352
1524540
1524732
1524922
1525108
1525290
1525472
1525652
1525834
1526024
1526224
1526430
1526634
1526844
1527054
1527266
1527472
1527674
1527878
1528080
1528284
1528486
1528690
1528886
1529082
1529272
1529460
1529650
1529844
1530040
1530244
1530450
1530658
1530866
1531074
1531284
1531488
1531686
1531894
1532100
1532310
1532516
1532714
1532916
1533122
1533330
1533534
1533738
1533938
1534134
1534326
1534516
1534706
1534894
1535082
1535274
1535462
1535650
1535836
1536020
1536208
1536400
1536588
1536774
1536956
1537134
1537306
1537478
1537652
1537830
1538010
1538196
1538384
1538576
1538768
1538962
1539154
1539342
1539538
1539734
1539928
1540122
1540318
1540516
1540710
1540904
1541096
1541284
1541474
1541666
1541852
1542046
1542238
1542430
1542626
1542824
1543028
1543240
1543444
1543646
1543850
1544052
1544252
1544454
1544660
1544862
1545060
1545260
1545460
1545660
1545862
1546070
1546276
1546482
1546686
1546890
1547090
1547290
1547494
1547690
1547886
1548084
1548276
1548464
1548648
1548830
1549008
1549184
1549358
1549534
1549710
1549890
1550072
1550256
1550438
1550616
1550794
1550970
1551148
1551324
1551500
1551672
1551844
1552012
1552180
1552354
1552534
1552722
1552924
1553126
1553330
1553536
1553742
1553948
1554148
1554350
1554550
1554752
1554952
1555156
1555364
1555570
1555778
1555988
1556198
1556406
1556618
1556834
1557054
1557268
1557476
1557690
1557902
1558112
1558316
1558522
1558722
1558918
1559112
1559304
1559496
1559690
1559888
1560088
1560292
1560502
1560712
1560918
1561126
1561334
1561542
1561746
1561956
1562160
1562362
1562560
1562758
1562958
1563160
1563360
1563558
1563758
1563966
1564180
1564386
1564592
1564802
1565016
1565234
1565446
1565656
1565864
1566070
1566270
1566468
1566668
1566866
1567064
1567256
1567450
1567646
1567838
1568030
1568224
1568424
1568628
1568828
1569030
1569230
1569426
1569620
1569810
1569998
1570186
1570376
1570568
1570762
1570962
1571168
1571372
1571578
1571790
1572006
1572214
1572424
1572636
1572842
1573034
1573226
1573410
1573590
1573768
1573950
1574138
1574332
1574532
1574734
1574930
1575128
1575324
1575526
1575726
1575928
1576132
1576340
1576546
1576750
1576952
1577152
1577352
1577550
1577744
1577944
1578148
1578356
1578568
1578786
1579010
1579230
1579444
1579660
1579872
1580078
1580288
1580498
1580708
1580918
1581124
1581336
1581546
1581752
1581960
1582174
1582384
1582590
1582792
1582998
1583202
1583404
1583598
1583788
1583974
1584154
1584332
1584504
1584672
1584836
1584998
1585158
1585318
1585478
1585640
1585802
1585966
1586126
1586290
1586454
1586620
1586802
1587006
1587228
1587454
1587682
1587894
1588094
1588288
1588480
1588666
1588852
1589036
1589216
1589394
1589570
1589752
1589936
1590122
1590306
1590488
1590664
1590838
1591004
1591170
1591330
1591488
1591646
1591802
1591960
1592126
1592296
1592466
1592632
1592800
1592966
1593134
1593300
1593468
1593634
1593800
1593966
1594128
1594288
1594448
1594604
1594758
1594910
1595064
1595214
1595366
1595516
1595668
1595820
1595970
1596122
1596272
1596422
1596572
1596722
1596870
1597018
1597170
1597324
1597476
1597628
1597780
1597934
1598090
1598250
1598410
1598566
1598724
1598880
1599034
1599188
1599340
1599494
1599646
1599798
1599952
1600104
1600254
1600406
1600558
1600710
1600862
1601012
1601162
1601316
1601472
1601630
1601796
1601964
1602144
1602322
1602494
1602678
1602852
1603022
1603190
1603352
1603512
1603670
1603826
1603978
1604128
1604278
1604428
1604578
1604730
1604880
1605028
1605178
1605326
1605474
1605622
1605774
1605932
1606088
1606248
1606410
1606578
1606752
1606926
1607098
1607274
1607454
1607632
1607804
1607972
1608140
1608304
1608464
1608624
1608782
1608944
1609102
1609264
1609426
1609590
1609764
1609946
1610124
1610302
1610476
1610658
1610842
1611022
1611200
1611376
1611550
1611726
1611900
1612072
1612242
1612416
1612594
1612772
1612946
1613112
1613280
1613444
1613604
1613762
1613920
1614078
1614236
1614406
1614594
1614782
1614976
1615178
1615386
1615590
1615786
1615974
1616156
1616336
1616514
1616690
1616862
1617036
1617208
1617388
1617574
1617756
1617934
1618110
1618282
1618446
1618608
1618768
1618930
1619100
1619272
1619442
1619618
1619796
1619976
1620152
1620328
1620508
1620688
1620870
1621052
1621234
1621416
1621600
1621782
1621966
1622140
1622314
1622482
1622650
1622822
1623000
1623182
1623366
1623560
1623762
1623976
1624180
1624378
1624576
1624776
1624978
1625176
1625372
1625564
1625754
1625940
1626120
1626300
1626486
1626674
1626862
1627040
1627216
1627390
1627562
1627744
1627922
1628100
1628280
1628470
1628668
1628860
1629048
1629236
1629426
1629610
1629794
1629976
1630156
1630338
1630514
1630690
1630862
1631032
1631200
1631376
1631550
1631724
1631898
1632078
1632258
1632434
1632612
1632786
1632958
1633120
1633282
1633438
1633594
1633748
1633900
1634050
1634198
1634348
1634508
1634686
1634864
1635028
1635190
1635350
1635508
1635668
1635832
1636000
1636166
1636338
1636518
1636700
1636878
1637054
1637230
1637400
1637568
1637734
1637902
1638076
1638254
1638428
1638596
1638764
1638930
1639092
1639254
1639416
1639576
1639736
1639894
1640064
1640240
1640418
1640602
1640786
1640970
1641150
1641326
1641500
1641670
1641844
1642022
1642202
1642378
1642558
1642744
1642948
1643166
1643382
1643584
1643778
1643964
1644142
1644322
1644502
1644680
1644856
1645028
1645196
1645358
1645518
1645676
1645832
1645986
1646146
1646310
1646474
1646634
1646794
1646954
1647120
1647294
1647470
1647646
1647818
1647994
1648170
1648348
1648518
1648690
1648858
1649032
1649218
1649406
1649594
1649784
1649980
1650186
1650388
1650582
1650776
1650968
1651162
1651352
1651538
1651722
1651906
1652086
1652258
1652426
1652592
1652754
1652914
1653078
1653246
1653422
1653594
1653762
1653932
1654096
1654256
1654412
1654566
1654718
1654868
1655024
1655188
1655362
1655544
1655720
1655886
1656050
1656216
1656382
1656570
1656764
1656962
1657150
1657334
1657514
1657694
1657874
1658052
1658228
1658412
1658596
1658776
1658960
1659146
1659342
1659538
1659728
1659914
1660104
1660302
1660500
1660694
1660888
1661084
1661284
1661474
1661658
1661844
1662032
1662232
1662430
1662636
1662844
1663050
1663246
1663438
1663624
1663814
1664012
1664206
1664390
1664574
1664756
1664936
1665110
1665284
1665456
1665630
1665808
1665980
1666152
1666322
1666490
1666662
1666846
1667032
1667218
1667404
1667592
1667780
1667962
1668140
1668318
1668496
1668668
1668838
1669008
1669178
1669348
1669516
1669684
1669850
1670016
1670184
1670352
1670524
1670698
1670872
1671044
1671216
1671386
1671554
1671722
1671888
1672058
1672232
1672416
1672604
1672792
1672974
1673156
1673336
1673526
1673712
1673896
1674084
1674276
1674476
1674670
1674860
1675050
1675242
1675434
1675620
1675802
1675980
1676156
1676336
1676516
1676696
1676872
1677048
1677218
1677384
1677550
1677714
1677878
1678038
1678198
1678356
1678512
1678676
1678850
1679030
1679218
1679414
1679604
1679796
1679986
1680184
1680390
1680596
1680798
1680992
1681180
1681362
1681542
1681710
1681878
1682042
1682208
1682384
1682578
1682784
1683026
1683280
1683528
1683750
1683950
1684142
1684330
1684522
1684714
1684898
1685080
1685262
1685450
1685634
1685818
1686002
1686190
1686386
1686576
1686762
1686950
1687138
1687320
1687504
1687686
1687868
1688048
1688224
1688400
1688574
1688742
1688916
1689094
1689270
1689444
1689620
1689798
1689984
1690170
1690354
1690530
1690704
1690874
1691046
1691214
1691378
1691544
1691710
1691882
1692058
1692236
1692416
1692600
1692788
1692988
1693188
1693386
1693586
1693786
1693990
1694186
1694382
1694576
1694770
1694958
1695144
1695330
1695514
1695694
1695872
1696050
1696230
1696412
1696596
1696790
1696982
1697172
1697362
1697554
1697748
1697938
1698124
1698308
1698496
1698684
1698870
1699048
1699222
1699396
1699564
1699738
1699916
1700094
1700276
1700460
1700640
1700826
1701016
1701214
1701414
1701612
1701808
1702000
1702188
1702366
1702544
1702716
1702888
1703060
1703236
1703412
1703596
1703778
1703966
1704156
1704342
1704526
1704710
1704892
1705068
1705244
1705420
1705594
1705770
1705936
1706104
1706270
1706434
1706594
1706752
1706910
1707070
1707232
1707398
1707580
1707772
1707958
1708142
1708332
1708524
1708720
1708912
1709096
1709276
1709458
1709638
1709812
1709986
1710156
1710328
1710504
1710684
1710862
1711044
1711232
1711428
1711626
1711816
1712004
1712186
1712362
1712548
1712730
1712914
1713096
1713278
1713460
1713640
1713816
1713988
1714156
1714322
1714484
1714646
1714812
1714988
1715172
1715360
1715546
1715724
1715906
1716096
1716300
1716510
1716722
1716926
1717124
1717318
1717510
1717702
1717892
1718076
1718260
1718440
1718620
1718794
1718966
1719134
1719304
1719476
1719652
1719832
1720008
1720182
1720356
1720528
1720698
1720868
1721038
1721204
1721374
1721544
1721722
1721896
1722074
1722252
1722436
1722616
1722796
1722972
1723150
1723330
1723510
1723690
1723868
1724042
1724214
1724386
1724558
1724728
1724896
1725062
1725228
1725400
1725576
1725762
1725946
1726130
1726326
1726524
1726718
1726910
1727098
1727294
1727488
1727674
1727858
1728044
1728230
1728412
1728594
1728774
1728958
1729146
1729330
1729512
1729690
1729866
1730038
1730204
1730366
1730526
1730686
1730848
1731014
1731184
1731350
1731516
1731684
1731854
1732028
1732210
1732388
1732566
1732742
1732920
1733098
1733274
1733446
1733614
1733780
1733944
1734106
1734268
1734432
1734600
1734776
1734952
1735130
1735306
1735484
1735662
1735848
1736032
1736212
1736390
1736568
1736746
1736920
1737086
1737252
1737418
1737580
1737742
1737904
1738066
1738224
1738382
1738544
1738708
1738874
1739040
1739210
1739388
1739574
1739764
1739952
1740138
1740320
1740498
1740676
1740856
1741038
1741216
1741398
1741590
1741788
1741992
1742190
1742380
1742566
1742748
1742928
1743106
1743282
1743460
1743642
1743822
1744002
1744180
1744360
1744536
1744710
1744882
1745054
1745230
1745414
1745594
1745774
1745948
1746120
1746294
1746466
1746638
1746812
1746990
1747174
1747354
1747534
1747712
1747886
1748058
1748222
1748386
1748542
1748696
1748850
1748998
1749148
1749296
1749442
1749588
1749736
1749884
1750032
1750180
1750328
1750480
1750634
1750792
1750952
1751118
1751288
1751456
1751624
1751794
1751966
1752134
1752304
1752472
1752638
1752806
1752976
1753150
1753322
1753494
1753666
1753838
1754004
1754168
1754328
1754486
1754640
1754792
1754944
1755096
1755246
1755396
1755546
1755698
1755850
1756006
1756162
1756318
1756474
1756634
1756792
1756954
1757110
1757266
1757420
1757576
1757728
1757878
1758028
1758180
1758334
1758492
1758650
1758818
1758986
1759150
1759314
1759474
1759632
1759788
1759938
1760090
1760240
1760390
1760538
1760688
1760842
1761002
1761158
1761316
1761472
1761626
1761780
1761934
1762094
1762250
1762406
1762564
1762726
1762886
1763044
1763202
1763358
1763514
1763666
1763820
1763968
1764120
1764268
1764414
1764560
1764704
1764848
1764994
1765148
1765310
1765474
1765638
1765802
1765972
1766142
1766310
1766476
1766640
1766802
1766964
1767122
1767278
1767432
1767584
1767734
1767884
1768032
1768180
1768330
1768478
1768630
1768788
1768946
1769106
1769266
1769422
1769576
1769726
1769880
1770038
1770196
1770354
1770514
1770668
1770826
1770982
1771142
1771316
1771492
1771660
1771828
1772000
1772176
1772356
1772528
1772694
1772860
1773028
1773196
1773360
1773520
1773680
1773838
1773996
1774154
1774312
1774470
1774626
1774780
1774934
1775086
1775238
1775390
1775540
1775690
1775840
1775994
1776158
1776334
1776506
1776696
1776892
1777096
1777296
1777500
1777714
1777930
1778144
1778352
1778552
1778742
1778928
1779110
1779290
1779470
1779648
1779822
1779994
1780166
1780342
1780518
1780688
1780862
1781040
1781218
1781392
1781564
1781730
1781890
1782048
1782200
1782352
1782506
1782664
1782826
1782982
1783140
1783300
1783472
1783654
1783836
1784022
1784216
1784410
1784596
1784778
1784962
1785146
1785334
1785522
1785700
1785880
1786058
1786242
1786420
1786604
1786780
1786966
1787142
1787318
1787488
1787652
1787814
1787970
1788124
1788276
1788430
1788594
1788762
1788928
1789088
1789252
1789412
1789574
1789754
1789964
1790180
1790376
1790572
1790770
1790970
1791164
1791362
1791558
1791758
1791952
1792144
1792336
1792528
1792722
1792914
1793102
1793294
1793486
1793676
1793866
1794060
1794256
1794448
1794636
1794824
1795012
1795204
1795388
1795568
1795742
1795918
1796090
1796262
1796428
1796596
1796764
1796940
1797116
1797290
1797462
1797636
1797812
1797984
1798158
1798334
1798504
1798676
1798842
1799012
1799180
1799342
1799506
1799668
1799830
