peaks
79
271
458
652
848
1038
1230
1422
1616
1808
1998
2188
2380
2572
2764
2962
3166
3374
3578
3776
3974
4170
4368
4544
4738
4920
5118
5294
5488
5662
5854
6034
6232
6428
6626
6818
7006
7194
7382
7572
7760
7948
8138
8334
8532
8726
8920
9112
9306
9498
9690
9886
10084
10278
10474
10668
10860
11034
11224
11396
11584
11756
11942
12124
12318
12514
12710
12910
13110
13308
13506
13702
13900
14094
14270
14464
14640
14834
15010
15204
15392
15584
15776
15954
16140
16326
16514
16708
16900
17092
17286
17486
17684
17876
18066
18246
18438
18610
18800
18974
19164
19340
19532
19722
19918
20118
20320
20524
20732
20938
21140
21338
21538
21744
21952
22152
22348
22544
22724
22920
23092
23284
23456
23648
23822
24014
24204
24400
24608
24820
25028
25230
25430
25630
25808
26006
26178
26376
26556
26752
26944
27148
27370
27594
27804
28010
28212
28412
28590
28790
28986
29192
29402
29610
29814
30016
30218
30414
30592
30804
31014
31212
31400
31576
31770
31942
32138
32314
32510
32702
32896
33092
33286
33482
33682
33884
34080
34260
34468
34658
34858
35034
35222
35396
35590
35770
35966
36140
36342
36530
36732
36912
37110
37306
37500
37694
37874
38066
38256
38448
38642
38832
39020
39208
39396
39586
39774
39950
40132
40312
40500
40692
40882
41074
41272
41478
41682
41882
42082
42280
42456
42650
42824
43022
43198
43398
43580
43778
43974
44174
44376
44572
44766
44962
45160
45356
45548
45724
45914
46094
46290
46466
46662
46858
47058
47260
47458
47660
47864
48062
48244
48438
48610
48812
48992
49188
49362
49554
49728
49928
50112
50310
50486
50696
50906
51108
51302
51476
51670
51848
52048
52228
52422
52614
52810
53010
53204
53398
53590
53784
53980
54176
54370
54566
54768
54972
55176
55372
55568
55764
55962
56142
56338
56510
56714
56920
57106
57294
57464
57656
57834
58036
58220
58418
58600
58800
58984
59188
59366
59566
59760
59956
60154
60350
60530
60728
60900
61098
61276
61468
61644
61844
62040
62240
62434
62626
62816
63008
63200
63392
63582
63774
63954
64148
64324
64520
64714
64910
65112
65308
65486
65686
65864
66062
66242
66440
66638
66838
67036
67228
67404
67596
67780
67980
68160
68362
68544
68744
68922
69118
69290
69482
69652
69838
70008
70196
70368
70556
70746
70942
71142
71338
71532
71732
71932
72134
72312
72504
72674
72862
73038
73226
73400
73596
73794
73992
74190
74386
74580
74778
74962
75156
75330
75524
75702
75902
76082
76280
76478
76676
76870
77044
77236
77414
77614
77814
78006
78184
78378
78554
78754
78936
79134
79310
79504
79678
79874
80054
80250
80430
80642
80858
81070
81276
81480
81664
81880
82080
82282
82476
82650
82846
83024
83218
83394
83594
83796
83992
84190
84390
84592
84790
84964
85162
85338
85534
85710
85904
86084
86284
86458
86650
86818
87008
87184
87376
87554
87746
87924
88122
88302
88498
88700
88906
89112
89316
89524
89714
89932
90148
90336
90542
90736
90938
91118
91318
91498
91708
91918
92098
92292
92468
92676
92868
93066
93262
93460
93658
93852
94050
94246
94446
94650
94850
95028
95234
95444
95646
95838
96028
96218
96412
96604
96796
96972
97174
97380
97578
97754
97946
98120
98320
98498
98694
98870
99064
99244
99438
99618
99826
100036
100238
100434
100632
100832
101030
101210
101408
101582
101790
101994
102174
102360
102534
102728
102908
103096
103288
103482
103680
103878
104076
104280
104492
104700
104882
105088
105282
105476
105648
105832
106008
106200
106384
106584
106790
106996
107202
107404
107582
107790
108000
108200
108374
108546
108734
108908
109102
109282
109480
109678
109876
110054
110248
110416
110606
110784
110974
111154
111350
111534
111732
111914
112124
112342
112550
112750
112928
113132
113340
113528
113722
113896
114092
114272
114466
114648
114842
115016
115208
115386
115580
115774
115970
116168
116366
116568
116770
116976
117174
117354
117552
117732
117928
118106
118296
118468
118662
118842
119032
119206
119394
119572
119770
119970
120160
120348
120540
120734
120930
121126
121324
121518
121698
121894
122072
122262
122442
122640
122844
123044
123244
123444
123646
123828
124026
124198
124394
124576
124772
124948
125142
125318
125514
125694
125886
126058
126256
126440
126642
126822
127020
127198
127400
127578
127770
127944
128138
128318
128516
128694
128892
129074
129276
129466
129666
129840
130030
130204
130396
130580
130776
130958
131166
131382
131588
131768
131974
132180
132360
132540
132712
132908
133112
133316
133516
133712
133912
134120
134320
134518
134714
134894
135090
135258
135448
135626
135822
136010
136206
136402
136604
136804
137002
137198
137392
137586
137766
137958
138130
138318
138494
138684
138862
139050
139240
139432
139636
139840
140040
140238
140438
140636
140834
141032
141232
141416
141610
141784
141992
142206
142410
142592
142784
142958
143152
143330
143524
143700
143894
144074
144284
144486
144668
144860
145038
145232
145410
145600
145776
145972
146156
146356
146534
146736
146932
147140
147330
147530
147702
147894
148068
148254
148428
148614
148804
148996
149184
149372
149548
149738
149912
150104
150286
150486
150688
150894
151104
151308
151488
151696
151910
152110
152306
152488
152686
152870
153072
153254
153452
153626
153820
153996
154196
154378
154562
154732
154918
155098
155288
155462
155638
155824
156000
156196
156378
156574
156766
156958
157150
157328
157520
157698
157900
158104
158302
158482
158678
158854
159054
159240
159434
159608
159800
159986
160180
160358
160554
160742
160942
161124
161318
161494
161702
161910
162094
162282
162458
162652
162836
163040
163220
163418
163606
163818
164026
164206
164396
164574
164766
164940
165130
165312
165518
165726
165928
166128
166332
166532
166712
166920
167132
167322
167514
167690
167896
168110
168314
168500
168680
168872
169050
169244
169422
169628
169846
170060
170264
170444
170648
170840
171032
171204
171392
171568
171764
171938
172128
172324
172522
172720
172898
173094
173268
173468
173676
173858
174046
174216
174404
174580
174772
174952
175142
175320
175512
175712
175910
176098
176292
176494
176696
176902
177102
177298
177494
177694
177898
178102
178284
178482
178656
178860
179066
179246
179436
179626
179816
180010
180188
180380
180556
180754
180942
181138
181312
181506
181686
181882
182056
182246
182416
182612
182802
183002
183178
183366
183538
183730
183910
184102
184280
184474
184678
184878
185074
185250
185444
185622
185816
185992
186180
186358
186558
186750
186950
187132
187328
187506
187712
187920
188102
188294
188472
188678
188882
189076
189264
189460
189660
189862
190044
190248
190430
190644
190856
191042
191236
191410
191616
191828
192014
192198
192396
192582
192786
192970
193174
193368
193584
193796
193980
194184
194378
194576
194748
194934
195110
195304
195484
195680
195878
196082
196294
196504
196692
196892
197066
197278
197492
197666
197846
198020
198194
198382
198560
198748
198918
199104
199282
199476
199660
199856
200056
200262
200466
200666
200844
201054
201270
201472
201648
201840
202014
202210
202396
202594
202772
202964
203140
203334
203510
203706
203890
204084
204260
204450
204628
204824
205002
205198
205374
205576
205782
205966
206156
206322
206486
206646
206812
206978
207146
207310
207478
207660
207852
208056
208278
208506
208730
208940
209120
209318
209498
209676
209850
210040
210218
210416
210596
210790
210966
211162
211342
211540
211708
211894
212064
212250
212424
212612
212786
212992
213206
213420
213626
213826
214004
214216
214430
214620
214796
214970
215164
215342
215534
215710
215900
216082
216278
216456
216634
216824
217002
217200
217378
217572
217748
217946
218128
218326
218502
218694
218870
219066
219246
219442
219612
219784
219948
220128
220300
220486
220680
220884
221096
221322
221558
221788
222000
222206
222398
222600
222774
222970
223146
223352
223564
223742
223936
224112
224312
224492
224686
224862
225056
225232
225430
225600
225790
225964
226156
226334
226530
226736
226946
227154
227354
227554
227734
227946
228158
228338
228530
228704
228894
229068
229258
229434
229644
229852
230038
230244
230456
230660
230838
231034
231210
231414
231624
231808
232000
232180
232378
232556
232752
232934
233142
233354
233558
233740
233934
234110
234312
234502
234694
234866
235054
235226
235422
235602
235808
236016
236200
236392
236566
236768
236960
237156
237334
237538
237748
237950
238124
238318
238494
238690
238868
239060
239236
239430
239606
239800
239980
240178
240378
240580
240782
240984
241164
241376
241594
241798
241974
242166
242338
242538
242728
242908
243076
243262
243434
243620
243790
243954
244118
244280
244442
244620
244792
244984
245188
245398
245618
245842
246056
246264
246448
246664
246862
247066
247242
247440
247618
247816
247992
248190
248378
248578
248760
248978
249200
249406
249584
249790
249984
250182
250348
250514
250674
250836
251002
251182
251370
251576
251806
252034
252242
252450
252652
252862
253058
253256
253436
253644
253858
254036
254230
254408
254608
254788
254972
255148
255342
255530
255728
255908
256120
256344
256554
256738
256946
257154
257336
257530
257700
257892
258064
258258
258434
258624
258798
258994
259176
259374
259550
259756
259966
260170
260352
260552
260730
260940
261152
261332
261512
261688
261882
262068
262264
262434
262618
262794
262984
263158
263352
263552
263760
263970
264172
264370
264548
264756
264948
265140
265316
265508
265688
265884
266068
266278
266492
266694
266872
267080
267292
267490
267662
267850
268022
268214
268386
268574
268744
268916
269100
269274
269464
269638
269834
270012
270210
270402
270604
270786
270992
271204
271410
271610
271790
271994
272180
272386
272574
272774
272950
273156
273368
273554
273744
273916
274110
274290
274486
274662
274858
275046
275250
275430
275628
275806
276000
276176
276366
276534
276704
276874
277058
277230
277414
277584
277772
277952
278150
278338
278540
278722
278932
279148
279352
279534
279732
279912
280120
280330
280522
280714
280890
281094
281306
281506
281682
281876
282052
282258
282466
282650
282840
283014
283216
283424
283612
283788
283962
284160
284352
284556
284738
284930
285102
285304
285514
285714
285892
286082
286258
286456
286642
286840
287016
287216
287412
287610
287782
287970
288142
288336
288518
288716
288914
289114
289320
289528
289734
289936
290114
290314
290490
290694
290898
291080
291266
291438
291632
291810
292006
292182
292374
292550
292748
292928
293118
293294
293486
293668
293862
294038
294224
294398
294590
294772
294968
295144
295342
295522
295716
295888
296060
296230
296418
296604
296804
296986
297184
297388
297588
297762
297956
298128
298332
298542
298740
298910
299080
299244
299408
299572
299734
299912
300086
300274
300456
300652
300836
301036
301212
301410
301592
301804
301998
302198
302374
302568
302742
302936
303110
303298
303476
303666
303842
304034
304210
304406
304584
304774
304954
305154
305342
305540
305720
305924
306130
306314
306504
306676
306868
307044
307238
307410
307580
307750
307938
308138
308340
308542
308736
308930
309128
309330
309516
309718
309904
310120
310338
310524
310718
310894
311096
311278
311472
311646
311840
312014
312204
312382
312578
312766
312968
313140
313330
313502
313690
313860
314044
314216
314416
314618
314812
315012
315216
315424
315602
315806
316000
316196
316366
316538
316710
316896
317068
317252
317424
317614
317788
317978
318158
318348
318528
318702
318874
319058
319230
319400
319570
319752
319922
320104
320272
320452
320622
320802
320970
321150
321322
321510
321690
321880
322072
322266
322460
322638
322828
323006
323196
323376
323568
323744
323934
324112
324306
324482
324674
324870
325068
325268
325464
325640
325844
326048
326242
326422
326612
326788
326986
327172
327362
327542
327734
327908
328096
328266
328450
328622
328808
328980
329168
329348
329548
329734
329942
330154
330354
330532
330724
330896
331082
331252
331436
331610
331804
331994
332192
332376
332578
332768
332970
333146
333338
333512
333704
333884
334082
334274
334482
334672
334876
335066
335280
335494
335682
335856
336026
336216
336388
336578
336752
336944
337122
337312
337480
337668
337844
338040
338238
338432
338626
338806
339002
339174
339362
339536
339730
339910
340104
340278
340472
340652
340850
341026
341222
341398
341592
341768
341956
342134
342324
342508
342700
342876
343076
343264
343460
343640
343832
344014
344216
344398
344596
344770
344972
345180
345374
345548
345736
345906
346094
346272
346462
346640
346840
347034
347230
347408
347604
347776
347972
348156
348358
348536
348728
348908
349106
349296
349494
349668
349864
350046
350242
350416
350606
350780
350972
351152
351346
351520
351706
351874
352062
352236
352422
352618
352822
353042
353260
353466
353672
353862
354076
354274
354474
354648
354852
355044
355222
355412
355582
355774
355946
356132
356306
356500
356682
356874
357046
357242
357418
357618
357798
357994
358168
358366
358548
358746
358928
359120
359298
359492
359672
359864
360034
360224
360406
360614
360828
361026
361202
361408
361618
361806
361980
362150
362344
362520
362708
362878
363060
363234
363428
363618
363822
364000
364206
364398
364616
364816
364998
365168
365360
365534
365704
365870
366036
366222
366396
366582
366756
366948
367120
367308
367480
367670
367844
368032
368202
368384
368550
368718
368884
369064
369234
369404
369574
369758
369930
370116
370288
370472
370644
370828
370998
371182
371352
371522
371686
371844
372002
372176
372350
372508
372666
372824
372990
373148
373312
373470
373628
373788
373942
374098
374254
374410
374564
374718
374874
375028
375180
375336
375488
375644
375800
375958
376116
376276
376430
376586
376748
376906
377068
377224
377378
377530
377684
377850
378000
378160
378314
378466
378620
378774
378928
379082
379234
379382
379532
379682
379836
379990
380150
380320
380500
380694
380880
381050
381212
381378
381532
381686
381844
382000
382160
382316
382470
382622
382774
382926
383070
383218
383362
383512
383660
383810
383954
384104
384252
384402
384552
384706
384862
385018
385176
385342
385502
385660
385822
385980
386138
386298
386452
386610
386768
386930
387092
387256
387422
387588
387754
387922
388090
388274
388436
388622
388788
388974
389136
389322
389484
389666
389832
390002
390172
390358
390532
390720
390886
391076
391242
391428
391590
391778
391940
392128
392290
392476
392646
392838
393006
393202
393378
393576
393744
393934
394100
394288
394456
394642
394810
395000
395168
395360
395532
395730
395904
396098
396270
396464
396636
396832
397004
397198
397372
397570
397742
397938
398112
398312
398486
398688
398866
399066
399236
399426
399592
399780
399946
400134
400304
400504
400682
400878
401050
401250
401428
401626
401792
401980
402150
402340
402506
402694
402862
403050
403216
403402
403568
403762
403932
404120
404294
404490
404664
404858
405030
405228
405404
405600
405770
405964
406136
406330
406496
406684
406852
407040
407204
407366
407524
407678
407828
407980
408134
408296
408472
408634
408818
408986
409172
409338
409526
409696
409890
410064
410260
410430
410622
410794
410988
411158
411344
411510
411698
411862
412044
412212
412408
412590
412788
412986
413184
413364
413566
413736
413930
414098
414284
414448
414634
414800
414990
415158
415352
415522
415716
415884
416076
416248
416440
416606
416792
416956
417142
417306
417488
417656
417848
418018
418208
418376
418568
418738
418932
419104
419300
419470
419664
419830
420020
420186
420374
420538
420726
420896
421094
421270
421466
421644
421850
422034
422232
422406
422608
422794
422970
423164
423332
423528
423700
423890
424060
424260
424446
424618
424806
424972
425162
425328
425492
425658
425848
426022
426220
426390
426584
426754
426948
427120
427314
427488
427686
427864
428062
428234
428428
428600
428790
428952
429138
429300
429460
429618
429776
429936
430100
430264
430430
430616
430784
430980
431154
431344
431512
431704
431874
432064
432232
432422
432592
432784
432950
433142
433312
433504
433670
433858
434024
434212
434374
434556
434718
434902
435060
435214
435372
435532
435688
435844
436004
436164
436328
436492
436658
436842
437012
437202
437370
437560
437730
437924
438094
438284
438448
438636
438802
438986
439144
439326
439492
439680
439844
440032
440198
440390
440554
440716
440874
441026
441178
441334
441490
441648
441804
441960
442118
442278
442456
442640
442826
443012
443184
443376
443540
443726
443886
444044
444198
444352
444526
444692
444858
445024
445188
445352
445536
445704
445894
446066
446264
446438
446638
446810
447016
447194
447400
447574
447770
447938
448130
448296
448486
448656
448818
448980
449140
449298
449458
449640
449806
449972
450138
450304
450470
450658
450822
450988
451150
451308
451466
451620
451774
451922
452072
452220
452368
452518
452676
452832
452984
453134
453282
453432
453584
453742
453898
454056
454214
454370
454526
454692
454858
455030
455206
455386
455570
455760
455954
456142
456330
456518
456688
456856
457018
457180
457364
457522
457704
457858
458018
458170
458322
458476
458630
458786
458942
459100
459256
459414
459574
459752
459932
460118
460306
460496
460686
460860
461050
461220
461416
461586
461776
461942
462140
462332
462498
462662
462822
462984
463164
463332
463516
463680
463866
464028
464212
464370
464554
464712
464868
465024
465176
465322
465470
465618
465768
465918
466078
466234
466394
466552
466710
466864
467018
467172
467326
467478
467630
467778
467922
468068
468208
468356
468510
468666
468828
469004
469190
469378
469540
469702
469896
470082
470268
470426
470606
470754
470902
471048
471196
471340
471482
471624
471766
471906
472052
472198
472344
472492
472650
472798
472950
473101
473258
473412
473560
473716
473872
474022
474172
474326
474474
474612
474760
474914
475066
475212
475360
475506
475652
475800
475946
476100
476246
476390
476536
476690
476842
476986
477134
477280
477436
477594
477750
477900
478044
478208
478358
478520
478660
478820
478966
479112
479258
479402
479556
479696
479838
479980
480128
480266
480404
480542
480678
480816
480952
481090
481226
481364
481504
481650
481800
481948
482092
482236
482382
482526
482668
482808
482950
483084
483222
483358
483494
483632
483772
483910
484052
484192
484334
484474
484614
484754
484892
485028
485168
485308
485450
485594
485754
485904
486070
486220
486368
486514
486664
486802
486940
487082
487212
487352
487492
487624
487760
487892
488026
488166
488312
488450
488582
488718
488854
488994
489136
489278
489430
489604
489754
489944
490102
490290
490440
490624
490772
490950
491098
491246
491392
491540
491714
491886
492068
492256
492440
492618
492766
492916
493062
493210
493382
493536
493686
493836
494016
494190
494368
494520
494700
494874
495050
495228
495380
495564
495724
495900
496050
496238
496422
496610
496802
496996
497186
497372
497528
497712
497866
498016
498164
498316
498464
498610
498756
498926
499070
499220
499364
499528
499678
499828
499974
500136
500274
500416
500560
500718
500862
501006
501160
501308
501458
501604
501750
501908
502064
502220
502384
502552
502728
502920
503118
503312
503500
503648
503830
503976
504120
504292
504432
504576
504720
504858
504996
505136
505274
505414
505556
505700
505846
505994
506148
506282
506430
506602
506746
506918
507062
507232
507372
507524
507672
507834
507974
508118
508260
508402
508538
508682
508838
508980
509136
509278
509434
509568
509714
509856
509998
510140
510300
510456
510600
510762
510906
511066
511204
511348
511488
511626
511768
511912
512050
512194
512334
512472
512616
512758
512896
513038
513182
513342
513480
513626
513766
513908
514046
514186
514326
514464
514602
514740
514876
515012
515150
515286
515422
515558
515692
515824
515958
516090
516224
516360
516496
516634
516772
516928
517070
517214
517352
517490
517628
517764
517898
518032
518166
518298
518430
518560
518692
518820
518950
519078
519208
519338
519468
519602
519740
519878
520068
520260
520494
520714
520870
521006
521146
521278
521410
521542
521678
521808
521938
522066
522196
522326
522458
522588
522718
522848
522980
523112
523246
523404
523572
523740
523890
524038
524180
524320
524456
524590
524722
524854
524982
525110
525240
525370
525498
525626
525752
525878
526008
526136
526266
526396
526526
526662
526800
526942
527082
527220
527360
527500
527636
527774
527908
528044
528178
528312
528446
528578
528712
528844
528974
529108
529240
529374
529506
529642
529776
529912
530048
530186
530324
530460
530596
530730
530864
531000
531138
531278
531420
531584
531728
531874
532014
532176
532310
532448
532582
532718
532848
532980
533118
533258
533396
533540
533708
533848
534012
534148
534290
534426
534558
534688
534820
534950
535080
535208
535336
535462
535590
535720
535850
535980
536108
536238
536368
536498
536628
536760
536888
537018
537146
537276
537402
537530
537658
537784
537912
538038
538164
538292
538416
538540
538666
538792
538914
539038
539162
539286
539410
539534
539658
539782
539906
540032
540156
540278
540400
540520
540642
540762
540882
541002
541124
541242
541362
541482
541598
541716
541834
541956
542090
542298
542548
542782
542998
543156
543286
543462
543590
543728
543856
543992
544122
544250
544376
544504
544630
544756
544880
545004
545126
545248
545370
545492
545616
545740
545868
545996
546132
546304
546476
546640
546830
547025
547170
547364
547524
547666
547852
548006
548142
548276
548406
548536
548666
548792
548920
549046
549172
549298
549424
549550
549680
549816
549940
550068
550202
550339
550466
550596
550730
550862
550994
551120
551246
551372
551502
551629
551754
551882
552010
552142
552272
552404
552536
552666
552800
552932
553066
553194
553324
553452
553582
553708
553836
553966
554096
554228
554362
554496
554630
554762
554898
555033
555158
555288
555418
555546
555676
555808
555942
556078
556216
556390
556554
556694
556870
557036
557198
557362
557526
557662
557802
557932
558068
558194
558320
558446
558568
558696
558822
558948
559081
559211
559340
559476
559604
559738
559877
560008
560142
560278
560412
560542
560672
560806
560940
561076
561210
561342
561472
561602
561732
561856
561982
562102
562226
562350
562476
562602
562732
562862
563000
563200
563380
563564
563744
563894
564030
564164
564298
564430
564562
564690
564820
564944
565072
565196
565322
565444
565564
565686
565808
565928
566048
566166
566286
566406
566522
566642
566762
566884
567006
567128
567252
567378
567508
567634
567766
567894
568020
568144
568270
568394
568516
568640
568764
568888
569012
569140
569266
569392
569516
569640
569764
569886
570010
570132
570254
570376
570498
570620
570742
570862
570984
571108
571230
571356
571484
571616
571790
571950
572128
572304
572444
572580
572712
572844
572968
573092
573220
573342
573464
573582
573704
573822
573940
574060
574178
574298
574418
574538
574660
574778
574898
575018
575140
575262
575386
575515
575634
575760
575884
576006
576130
576252
576374
576494
576614
576736
576856
576976
577094
577212
577332
577450
577568
577690
577812
577936
578064
578194
578330
578466
578602
578738
578872
579002
579132
579262
579388
579512
579638
579764
579884
580004
580126
580248
580368
580486
580606
580728
580850
580974
581096
581222
581350
581478
581608
581734
581862
581988
582110
582234
582360
582482
582604
582724
582842
582962
583082
583204
583330
583482
583632
583776
583952
584116
584248
584376
584504
584628
584754
584878
585002
585126
585250
585376
585504
585628
585752
585876
586000
586122
586244
586364
586486
586606
586728
586850
586970
587094
587214
587336
587462
587586
587710
587840
587988
588122
588256
588386
588516
588642
588766
588892
589018
589146
589298
589448
589584
589718
589850
589980
590110
590236
590366
590488
590612
590736
590862
590990
591116
591248
591380
591538
591666
591798
591926
592054
592180
592306
592430
592554
592678
592798
592920
593046
593168
593290
593414
593534
593656
593778
593902
594030
594154
594280
594404
594530
594652
594776
594896
595018
595140
595260
595380
595500
595618
595738
595862
595984
596108
596234
596356
596482
596608
596728
596848
596978
597110
597240
597374
597540
597676
597814
597948
598072
598208
598338
598470
598600
598728
598856
598990
599124
599258
599388
599518
599650
599782
599908
600038
600170
600302
600430
600566
600698
600858
600988
601126
601260
601387
601516
601644
601758
601888
602020
602148
602272
602402
602534
602660
602788
602918
603042
603170
603300
603430
603558
603686
603838
603970
604102
604236
604390
604520
604654
604790
604954
605090
605248
605382
605538
605666
605818
605948
606100
606228
606364
606496
606624
606758
606890
607024
607178
607306
607460
607592
607746
607878
608014
608150
608320
608482
608648
608820
608996
609140
609316
609458
609600
609744
609906
610038
610178
610312
610466
610594
610726
610858
610988
611118
611248
611378
611528
611660
611814
611952
612106
612236
612390
612524
612656
612786
612920
613052
613178
613308
613440
613574
613708
613844
613982
614116
614252
614386
614524
614662
614794
614926
615056
615186
615318
615444
615574
615700
615828
615954
616084
616214
616336
616474
616604
616734
616864
616994
617126
617258
617390
617522
617654
617792
617952
618094
618252
618390
618530
618667
618800
618930
619066
619230
619366
619504
619640
619774
619904
620032
620160
620301
620431
620562
620688
620816
620942
621072
621204
621339
621468
621600
621726
621856
621982
622108
622238
622364
622494
622622
622750
622880
623014
623170
623312
623472
623630
623788
623944
624078
624214
624350
624484
624618
624750
624882
625038
625170
625304
625434
625568
625702
625862
625998
626158
626290
626448
626582
626718
626850
626986
627118
627252
627386
627546
627676
627814
627948
628104
628234
628368
628498
628654
628790
628948
629082
629246
629402
629542
629682
629820
629988
630126
630286
630420
630578
630712
630870
631006
631162
631294
631452
631590
631754
631890
632054
632198
632364
632502
632664
632802
632944
633080
633216
633358
633496
633636
633802
633966
634134
634302
634474
634644
634790
634962
635112
635252
635416
635558
635716
635852
636010
636148
636304
636440
636596
636734
636890
637026
637186
637324
637484
637624
637788
637926
638092
638236
638406
638554
638732
638906
639052
639228
639380
639548
639688
639858
640000
640162
640298
640464
640610
640774
640944
641116
641286
641460
641630
641796
641940
642110
642252
642416
642554
642712
642846
643002
643138
643294
643432
643584
643720
643860
643994
644150
644302
644460
644622
644788
644958
645124
645288
645450
645612
645754
645922
646066
646230
646374
646534
646672
646834
646972
647114
647254
647412
647552
647708
647852
648020
648176
648340
648482
648644
648778
648938
649080
649242
649378
649540
649682
649844
649978
650142
650288
650450
650590
650754
650896
651056
651194
651354
651494
651652
651794
651956
652102
652260
652398
652556
652690
652848
652984
653142
653276
653432
653568
653722
653856
654012
654148
654302
654440
654594
654732
654892
655032
655192
655332
655494
655630
655792
655934
656096
656240
656402
656546
656704
656840
656998
657138
657292
657428
657584
657720
657874
658010
658164
658300
658450
658574
658734
658870
659022
659156
659314
659470
659626
659764
659926
660066
660222
660358
660516
660660
660818
660956
661112
661252
661406
661542
661694
661836
661988
662128
662284
662424
662584
662726
662888
663046
663204
663348
663508
663666
663818
663958
664112
664250
664390
664524
664672
664802
664936
665068
665214
665348
665498
665648
665808
665968
666128
666284
666440
666576
666732
666870
667020
667152
667288
667422
667552
667682
667812
667942
668082
668214
668360
668506
668660
668822
668990
669156
669298
669458
669594
669754
669890
670048
670186
670342
670476
670632
670768
670908
671044
671184
671320
671458
671592
671726
671876
672024
672176
672328
672474
672636
672798
672956
673094
673252
673388
673544
673676
673826
673960
674108
674240
674384
674518
674668
674812
674962
675114
675268
675428
675590
675756
675922
676084
676246
676404
676562
676718
676874
677018
677178
677336
677492
677652
677814
677984
678158
678334
678509
678684
678857
679020
679180
679322
679488
679628
679790
679928
680086
680220
680374
680528
680690
680856
681028
681198
681364
681512
681678
681824
681984
682122
682282
682420
682580
682718
682874
683014
683174
683318
683480
683642
683806
683972
684118
684260
684402
684566
684710
684872
685032
685192
685352
685512
685670
685824
685966
686118
686268
686416
686554
686706
686854
686992
687132
687276
687434
687580
687740
687904
688074
688244
688390
688536
688680
688846
688988
689152
689292
689450
689588
689728
689866
690016
690148
690286
690424
690572
690708
690846
690980
691114
691250
691382
691514
691662
691798
691950
692100
692238
692376
692514
692646
692782
692918
693052
693198
693344
693494
693650
693814
693986
694160
694336
694502
694644
694786
694922
695058
695192
695328
695462
695596
695732
695882
696030
696168
696306
696442
696574
696706
696836
696966
697094
697222
697348
697474
697602
697726
697854
697980
698108
698234
698358
698490
698630
698774
698912
699062
699194
699328
699460
699594
699722
699854
699980
700116
700247
700377
700502
700629
700754
700880
701004
701130
701254
701376
701500
701624
701750
701878
702018
702182
702356
702536
702717
702870
703010
703156
703292
703430
703562
703694
703826
703958
704088
704221
704346
704471
704593
704716
704836
704956
705076
705196
705316
705436
705554
705672
705794
705928
706086
706256
706453
706640
706800
706938
707132
707294
707424
707554
707680
707810
707936
708062
708184
708306
708428
708551
708668
708788
708908
709026
709146
709266
709386
709504
709624
709744
709864
709988
710110
710228
710346
710468
710588
710708
710830
710950
711074
711198
711320
711436
711554
711672
711792
711910
712028
712146
712262
712384
712498
712614
712734
712854
712976
713100
713228
713356
713484
713612
713734
713860
713984
714110
714228
714354
714476
714594
714716
714836
714954
715076
715194
715314
715434
715554
715677
715794
715913
716028
716146
716274
716397
716512
716634
716756
716877
716994
717112
717230
717348
717468
717586
717708
717828
717950
718072
718192
718312
718432
718554
718678
718804
718932
719078
719210
719338
719470
719599
719720
719846
719969
720092
720218
720334
720454
720570
720688
720806
720922
721044
721156
721272
721388
721506
721624
721744
721862
721980
722100
722220
722345
722462
722582
722700
722820
722938
723058
723176
723292
723408
723526
723644
723762
723880
724000
724119
724234
724354
724472
724590
724706
724828
724946
725066
725186
725306
725426
725548
725671
725788
725908
726026
726148
726266
726386
726517
726648
726794
726942
727081
727238
727388
727525
727658
727788
727916
728047
728168
728290
728418
728536
728660
728780
728902
729024
729151
729270
729391
729516
729641
729761
729886
730004
730132
730256
730380
730504
730630
730754
730882
731010
731138
731266
731394
731524
731652
731780
731908
732036
732160
732288
732414
732540
732664
732788
732908
733042
733168
733298
733444
733578
733710
733840
733972
734098
734226
734350
734468
734600
734722
734846
734970
735096
735220
735350
735492
735620
735748
735874
736004
736130
736258
736384
736508
736634
736756
736882
737010
737140
737266
737394
737524
737650
737774
737902
738030
738162
738296
738424
738548
738672
738796
738918
739040
739158
739278
739404
739530
739656
739800
739944
740092
740248
740414
740586
740726
740888
741018
741152
741282
741414
741572
741702
741834
741962
742092
742224
742360
742490
742626
742758
742888
743018
743146
743276
743404
743530
743660
743790
743918
744066
744198
744330
744464
744590
744717
744844
744970
745098
745228
745362
745512
745636
745768
745896
746026
746146
746274
746398
746524
746648
746776
746900
747024
747150
747280
747412
747546
747696
747842
747992
748133
748266
748403
748529
748655
748783
748913
749038
749162
749285
749404
749526
749648
749770
749894
750024
750160
750299
750430
750565
750696
750826
750958
751090
751260
751416
751558
751722
751856
751988
752122
752254
752386
752518
752648
752800
752924
753056
753184
753316
753444
753570
753688
753826
753952
754080
754208
754342
754468
754598
754726
754872
755002
755150
755282
755432
755560
755692
755824
755954
756080
756208
756336
756462
756590
756718
756848
756976
757104
757232
757362
757492
757618
757748
757862
758006
758132
758260
758390
758518
758648
758778
758910
759042
759172
759304
759436
759566
759696
759824
759952
760080
760208
760334
760460
760586
760712
760836
760960
761088
761214
761340
761476
761620
761750
761896
762024
762174
762302
762446
762576
762722
762856
763006
763138
763288
763422
763572
763702
763852
763986
764134
764265
764394
764528
764658
764788
764924
765068
765200
765348
765480
765632
765766
765916
766064
766200
766348
766482
766632
766760
766912
767046
767202
767342
767498
767638
767788
767916
768062
768188
768334
768462
768604
768738
768882
769016
769166
769300
769448
769578
769730
769862
770010
770140
770292
770424
770574
770706
770858
770992
771142
771278
771432
771576
771734
771898
772060
772224
772384
772544
772682
772842
772976
773112
773246
773392
773520
773652
773784
773930
774058
774194
774328
774474
774602
774744
774874
775018
775159
775300
775432
775578
775710
775858
775990
776128
776276
776424
776560
776702
776854
777004
777144
777296
777432
777574
777708
777860
778010
778146
778282
778438
778590
778744
778906
779070
779232
779376
779556
779732
779880
780054
780198
780366
780502
780666
780806
780948
781084
781240
781378
781532
781668
781820
781958
782108
782242
782392
782522
782668
782796
782944
783077
783202
783330
783463
783594
783728
783858
783990
784122
784252
784378
784506
784632
784760
784892
785018
785160
785300
785434
785570
785728
785888
786054
786220
786358
786494
786630
786764
786896
787026
787154
787282
787408
787536
787664
787792
787920
788048
788176
788306
788438
788568
788696
788826
788956
789082
789210
789336
789462
789590
789720
789864
790010
790172
790336
790476
790646
790786
790946
791078
791216
791346
791478
791608
791740
791874
792012
792156
792282
792422
792546
792672
792796
792918
793040
793164
793286
793410
793534
793666
793808
793960
794122
794294
794474
794652
794810
794948
795086
795226
795396
795540
795698
795830
795986
796116
796254
796384
796516
796648
796776
796906
797036
797164
797290
797418
797542
797668
797792
797918
798046
798168
798300
798428
798562
798690
798822
798950
799096
799224
799356
799484
799628
799754
799884
800014
800144
800272
800418
800562
800704
800836
800972
801104
801236
801368
801520
801652
801804
801940
802092
802228
802382
802520
802688
802848
803008
803166
803330
803492
803656
803826
803994
804160
804322
804484
804646
804812
804972
805120
805264
805434
805596
805760
805926
806092
806258
806432
806606
806774
806940
807086
807258
807410
807550
807686
807822
807954
808090
808222
808358
808490
808646
808780
808950
809118
809296
809486
809664
809830
809996
810160
810304
810482
810654
810814
810962
811136
811302
811466
811632
811812
811988
812156
812320
812464
812634
812774
812948
813096
813272
813440
813608
813772
813936
814080
814222
814380
814516
814668
814804
814956
815108
815264
815418
815582
815742
815906
816064
816222
816362
816518
816654
816810
816948
817104
817260
817418
817554
817694
817852
817988
818130
818288
818442
818584
818742
818884
819024
819182
819328
819484
819624
819776
819912
820044
820176
820306
820436
820578
820718
820870
821056
821270
821486
821720
821958
822188
822390
822566
822714
822912
823094
823238
823406
823548
823720
823866
824014
824152
824292
824430
824592
824730
824892
825030
825190
825330
825488
825626
825780
825918
826074
826210
826366
826502
826656
826792
826950
827088
827256
827400
827562
827702
827846
827986
828134
828296
828442
828608
828754
828912
829060
829226
829372
829530
829672
829830
829968
830122
830270
830418
830568
830712
830870
831028
831186
831350
831514
831678
831842
832002
832160
832318
832476
832636
832794
832948
833092
833236
833378
833522
833666
833814
833990
834160
834330
834496
834642
834790
834932
835078
835224
835384
835526
835684
835822
835964
836102
836254
836392
836542
836692
836844
836998
837144
837302
837448
837604
837748
837904
838046
838202
838340
838478
838616
838766
838910
839054
839200
839348
839498
839648
839798
839938
840078
840218
840374
840528
840684
840844
840990
841132
841292
841444
841596
841732
841872
842026
842164
842318
842470
842624
842780
842922
843080
843232
843384
843526
843684
843836
843992
844148
844306
844468
844612
844774
844942
845106
845274
845442
845592
845766
845932
846094
846256
846414
846572
846728
846876
847020
847162
847304
847446
847604
847744
847898
848046
848196
848344
848494
848642
848792
848940
849088
849232
849378
849522
849666
849804
849946
850088
850230
850372
850506
850642
850778
850912
851058
851204
851362
851536
851712
851882
852048
852214
852378
852542
852704
852850
853018
853162
853308
853452
853598
853738
853880
854050
854220
854388
854562
854744
854926
855106
855282
855454
855624
855792
855938
856110
856276
856438
856582
856746
856908
857076
857258
857442
857622
857792
857938
858084
858226
858392
858560
858740
858924
859080
859258
859428
859606
859792
859978
860160
860336
860508
860658
860828
860976
861148
861322
861496
861672
861844
862012
862162
862310
862480
862652
862836
863028
863226
863420
863608
863790
863968
864142
864314
864468
864638
864786
864954
865104
865274
865426
865608
865798
866002
866214
866418
866580
866768
866924
867112
867276
867474
867670
867860
868050
868240
868436
868628
868814
869000
869184
869344
869528
869706
869890
870068
870246
870426
870608
870782
870956
871130
871278
871450
871622
871802
871994
872190
872376
872554
872724
872874
873044
873210
873374
873540
873708
873876
874048
874218
874396
874582
874776
874964
875146
875322
875472
875644
875810
875976
876150
876324
876494
876666
876840
877012
877174
877358
877538
877726
877914
878094
878270
878440
878596
878752
878918
879080
879230
879398
879564
879736
879948
880144
880338
880518
880698
880882
881068
881254
881440
881620
881796
881968
882124
882292
882442
882610
882774
882942
883116
883292
883468
883630
883790
883944
884098
884264
884426
884592
884760
884930
885102
885276
885450
885622
885792
885950
886104
886266
886426
886584
886740
886886
887042
887194
887352
887522
887702
887880
888062
888254
888454
888652
888842
889016
889188
889358
889526
889692
889856
890016
890176
890326
890476
890634
890794
890958
891126
891300
891478
891666
891854
892040
892216
892390
892562
892732
892900
893066
893230
893392
893550
893706
893862
894016
894162
894322
894488
894682
894876
895076
895274
895466
895646
895820
895996
896172
896346
896516
896684
896850
897006
897174
897338
897504
897672
897840
898012
898190
898366
898548
898728
898906
899078
899248
899408
899572
899734
899898
900060
900224
900390
900558
900724
900888
901050
901202
901362
901522
901684
901848
902030
902224
902414
902600
902778
902958
903138
903316
903498
903680
903858
904032
904204
904374
904526
904680
904846
905008
905170
905334
905516
905706
905894
906074
906246
906418
906590
906764
906944
907132
907316
907498
907682
907868
908050
908232
908418
908606
908788
908966
909138
909306
909474
909644
909812
909982
910154
910322
910490
910656
910822
910984
911150
911326
911530
911724
911924
912128
912334
912532
912728
912918
913108
913296
913480
913662
913840
914016
914194
914378
914562
914746
914924
915096
915266
915436
915604
915778
915958
916142
916326
916502
916678
916846
917014
917184
917358
917540
917724
917908
918086
918260
918418
918570
918722
918886
919050
919214
919382
919550
919724
919914
920106
920294
920474
920648
920820
920994
921170
921344
921518
921694
921874
922058
922240
922424
922608
922794
922980
923172
923368
923558
923756
923950
924142
924328
924510
924692
924866
925018
925192
925364
925546
925756
925958
926156
926338
926514
926688
926864
927042
927216
927394
927570
927744
927916
928086
928256
928424
928598
928782
928964
929150
929342
929536
929730
929916
930096
930272
930444
930618
930792
930972
931150
931330
931506
931682
931862
932044
932228
932412
932590
932768
932946
933126
933306
933492
933704
933898
934096
934294
934484
934672
934856
935042
935228
935412
935590
935762
935932
936098
936248
936414
936578
936742
936914
937094
937282
937476
937666
937850
938028
938200
938370
938538
938704
938870
939036
939204
939374
939546
939718
939886
940054
940218
940384
940550
940716
940890
941068
941246
941426
941600
941772
941936
942094
942264
942430
942602
942776
942940
943112
943280
943450
943626
943812
944004
944194
944378
944556
944732
944908
945084
945258
945418
945586
945756
945934
946116
946302
946488
946676
946862
947044
947218
947388
947556
947720
947882
948044
948214
948396
948588
948782
948980
949178
949376
949570
949758
949940
950118
950294
950470
950644
950818
950994
951176
951362
951548
951732
951914
952094
952270
952446
952626
952804
952984
953166
953350
953530
953712
953896
954078
954260
954434
954606
954780
954954
955132
955314
955498
955676
955852
956024
956192
956358
956522
956686
956854
957032
957212
957392
957586
957782
957974
958158
958334
958496
958670
958838
959010
959180
959356
959536
959718
959898
960080
960260
960440
960618
960794
960970
961142
961314
961488
961664
961846
962028
962212
962392
962570
962742
962912
963082
963256
963430
963608
963786
963966
964146
964332
964520
964704
964884
965060
965238
965414
965590
965774
965956
966136
966312
966480
966648
966816
966984
967156
967334
967512
967688
967862
968036
968210
968386
968564
968744
968922
969100
969276
969448
969618
969788
969960
970136
970312
970494
970674
970856
971040
971218
971394
971550
971726
971896
972070
972248
972424
972598
972768
972936
973102
973266
973432
973600
973768
973938
974110
974280
974450
974618
974782
974946
975114
975278
975446
975618
975794
975970
976134
976306
976486
976692
976886
977076
977252
977430
977616
977808
977996
978182
978364
978540
978716
978888
979058
979228
979396
979564
979734
979910
980092
980274
980450
980624
980790
980962
981132
981308
981486
981666
981856
982050
982246
982444
982638
982834
983026
983212
983394
983568
983740
983908
984076
984242
984412
984582
984762
984946
985132
985314
985490
985662
985836
986008
986170
986342
986510
986680
986850
987020
987192
987370
987558
987748
987938
988122
988290
988468
988642
988818
988994
989172
989352
989532
989710
989894
990082
990266
990448
990624
990796
990954
991122
991288
991460
991642
991832
992022
992208
992374
992554
992730
992906
993082
993272
993468
993666
993864
994060
994252
994444
994640
994834
995026
995216
995404
995586
995764
995942
996118
996296
996480
996662
996842
997018
997192
997364
997532
997700
997864
998024
998190
998354
998524
998704
998890
999074
999262
999454
999654
999854
1000046
1000226
1000404
1000580
1000760
1000944
1001126
1001306
1001484
1001656
1001828
1001996
1002164
1002328
1002494
1002658
1002826
1002996
1003164
1003334
1003502
1003674
1003844
1004018
1004194
1004368
1004542
1004716
1004894
1005074
1005254
1005432
1005588
1005754
1005906
1006076
1006238
1006404
1006562
1006730
1006898
1007068
1007240
1007414
1007586
1007758
1007930
1008100
1008272
1008438
1008604
1008772
1008940
1009112
1009284
1009456
1009628
1009798
1009970
1010140
1010310
1010480
1010652
1010826
1011004
1011190
1011378
1011568
1011764
1011958
1012148
1012336
1012522
1012706
1012884
1013064
1013242
1013416
1013590
1013768
1013954
1014138
1014318
1014492
1014662
1014828
1014994
1015148
1015298
1015452
1015604
1015760
1015926
1016102
1016314
1016540
1016772
1017000
1017208
1017398
1017558
1017742
1017916
1018092
1018264
1018434
1018604
1018772
1018940
1019108
1019278
1019446
1019612
1019776
1019944
1020110
1020278
1020446
1020612
1020776
1020940
1021102
1021266
1021432
1021600
1021774
1021952
1022132
1022318
1022506
1022686
1022854
1023034
1023212
1023398
1023618
1023822
1024024
1024216
1024402
1024578
1024748
1024924
1025102
1025284
1025468
1025650
1025830
1026004
1026176
1026346
1026512
1026680
1026848
1027016
1027194
1027378
1027568
1027748
1027926
1028100
1028272
1028442
1028610
1028776
1028942
1029116
1029290
1029464
1029636
1029810
1029986
1030160
1030336
1030508
1030682
1030860
1031038
1031214
1031390
1031564
1031740
1031916
1032090
1032262
1032434
1032606
1032776
1032948
1033122
1033302
1033490
1033686
1033876
1034064
1034246
1034424
1034600
1034756
1034930
1035098
1035268
1035444
1035626
1035808
1035988
1036170
1036356
1036546
1036736
1036924
1037110
1037286
1037460
1037620
1037780
1037934
1038106
1038274
1038446
1038620
1038802
1038990
1039178
1039372
1039570
1039764
1039956
1040144
1040332
1040518
1040702
1040888
1041072
1041254
1041430
1041592
1041766
1041940
1042120
1042306
1042518
1042716
1042908
1043088
1043262
1043432
1043588
1043740
1043906
1044070
1044238
1044414
1044588
1044766
1044972
1045168
1045370
1045566
1045754
1045938
1046118
1046292
1046466
1046630
1046806
1046984
1047168
1047358
1047550
1047746
1047946
1048144
1048340
1048528
1048712
1048872
1049050
1049204
1049376
1049544
1049710
1049878
1050056
1050238
1050420
1050604
1050786
1050966
1051142
1051318
1051492
1051666
1051840
1052018
1052200
1052384
1052564
1052742
1052914
1053082
1053250
1053420
1053592
1053770
1053952
1054134
1054312
1054522
1054726
1054928
1055122
1055310
1055492
1055672
1055848
1056032
1056220
1056414
1056616
1056818
1057020
1057222
1057422
1057616
1057810
1057998
1058182
1058366
1058550
1058736
1058922
1059114
1059310
1059502
1059692
1059880
1060066
1060250
1060434
1060620
1060806
1060990
1061170
1061348
1061524
1061694
1061858
1062032
1062206
1062386
1062568
1062748
1062928
1063106
1063288
1063474
1063664
1063852
1064036
1064216
1064392
1064570
1064746
1064922
1065100
1065280
1065458
1065640
1065824
1066010
1066198
1066386
1066576
1066768
1066958
1067142
1067328
1067512
1067698
1067886
1068078
1068270
1068462
1068658
1068852
1069046
1069234
1069420
1069602
1069786
1069974
1070164
1070358
1070554
1070746
1070930
1071114
1071298
1071482
1071664
1071848
1072030
1072212
1072394
1072576
1072760
1072948
1073170
1073386
1073592
1073790
1073980
1074144
1074304
1074478
1074644
1074812
1074980
1075146
1075314
1075472
1075636
1075798
1075960
1076126
1076296
1076474
1076660
1076870
1077062
1077254
1077438
1077622
1077804
1077988
1078170
1078354
1078536
1078716
1078900
1079086
1079272
1079462
1079654
1079844
1080034
1080222
1080404
1080582
1080758
1080934
1081112
1081288
1081464
1081636
1081806
1081972
1082138
1082304
1082468
1082634
1082804
1082978
1083154
1083328
1083500
1083670
1083838
1084010
1084186
1084366
1084544
1084728
1084920
1085108
1085298
1085478
1085652
1085822
1085984
1086144
1086310
1086474
1086640
1086806
1086982
1087162
1087352
1087548
1087740
1087932
1088122
1088310
1088494
1088676
1088862
1089042
1089200
1089362
1089512
1089666
1089828
1089984
1090146
1090312
1090480
1090658
1090838
1091018
1091194
1091368
1091538
1091698
1091868
1092036
1092206
1092378
1092546
1092716
1092892
1093070
1093250
1093434
1093616
1093798
1093980
1094156
1094332
1094508
1094686
1094866
1095048
1095226
1095402
1095574
1095746
1095920
1096092
1096264
1096434
1096606
1096778
1096952
1097128
1097300
1097472
1097646
1097822
1098002
1098180
1098364
1098552
1098738
1098920
1099102
1099282
1099458
1099632
1099802
1099970
1100140
1100308
1100480
1100652
1100826
1101002
1101180
1101362
1101544
1101722
1101900
1102074
1102250
1102414
1102588
1102762
1102936
1103112
1103288
1103466
1103642
1103816
1103990
1104162
1104336
1104506
1104678
1104850
1105020
1105190
1105358
1105526
1105694
1105864
1106038
1106212
1106386
1106558
1106730
1106902
1107076
1107248
1107420
1107598
1107774
1107952
1108124
1108296
1108464
1108630
1108798
1108970
1109142
1109314
1109488
1109664
1109842
1110020
1110200
1110378
1110556
1110738
1110920
1111104
1111288
1111466
1111642
1111818
1111992
1112164
1112338
1112508
1112678
1112850
1113018
1113184
1113354
1113522
1113692
1113862
1114032
1114204
1114376
1114548
1114720
1114890
1115060
1115232
1115404
1115574
1115746
1115920
1116088
1116258
1116428
1116598
1116768
1116938
1117104
1117272
1117442
1117614
1117784
1117956
1118128
1118298
1118470
1118642
1118816
1118992
1119164
1119336
1119506
1119674
1119844
1120012
1120182
1120354
1120524
1120698
1120872
1121044
1121214
1121382
1121548
1121714
1121884
1122048
1122214
1122378
1122548
1122716
1122884
1123054
1123224
1123402
1123576
1123750
1123922
1124092
1124262
1124432
1124596
1124760
1124924
1125090
1125254
1125418
1125584
1125750
1125914
1126080
1126246
1126414
1126582
1126752
1126924
1127096
1127266
1127440
1127616
1127790
1127964
1128144
1128322
1128500
1128678
1128854
1129030
1129210
1129388
1129568
1129744
1129924
1130102
1130278
1130456
1130634
1130812
1130990
1131172
1131350
1131530
1131708
1131888
1132066
1132246
1132428
1132608
1132786
1132964
1133146
1133328
1133506
1133688
1133870
1134052
1134236
1134422
1134604
1134786
1134968
1135150
1135332
1135510
1135686
1135848
1136024
1136196
1136372
1136550
1136728
1136906
1137084
1137262
1137438
1137610
1137782
1137958
1138134
1138308
1138480
1138656
1138834
1139014
1139192
1139380
1139566
1139752
1139930
1140108
1140280
1140452
1140622
1140792
1140966
1141140
1141314
1141492
1141670
1141844
1142000
1142174
1142332
1142502
1142660
1142834
1143006
1143182
1143358
1143538
1143718
1143904
1144086
1144266
1144444
1144622
1144798
1144972
1145148
1145322
1145496
1145668
1145842
1146014
1146184
1146356
1146532
1146706
1146878
1147050
1147224
1147394
1147564
1147734
1147902
1148070
1148236
1148404
1148570
1148738
1148906
1149072
1149238
1149402
1149568
1149738
1149914
1150092
1150276
1150484
1150676
1150864
1151046
1151226
1151404
1151582
1151762
1151942
1152126
1152312
1152500
1152682
1152856
1153026
1153192
1153360
1153528
1153696
1153864
1154032
1154198
1154350
1154518
1154686
1154856
1155034
1155246
1155448
1155644
1155838
1156030
1156214
1156398
1156582
1156768
1156950
1157130
1157314
1157500
1157688
1157874
1158064
1158254
1158440
1158624
1158812
1159002
1159186
1159374
1159562
1159746
1159926
1160110
1160296
1160478
1160658
1160842
1161024
1161206
1161388
1161574
1161756
1161938
1162122
1162308
1162488
1162672
1162856
1163038
1163220
1163406
1163594
1163782
1163970
1164160
1164352
1164540
1164728
1164912
1165092
1165276
1165458
1165640
1165820
1166000
1166180
1166360
1166540
1166720
1166898
1167074
1167254
1167434
1167614
1167792
1167972
1168152
1168330
1168510
1168688
1168864
1169038
1169218
1169396
1169570
1169742
1169916
1170092
1170264
1170418
1170578
1170746
1170910
1171064
1171218
1171380
1171540
1171700
1171862
1172022
1172182
1172344
1172506
1172666
1172824
1172980
1173138
1173296
1173446
1173602
1173754
1173900
1174060
1174212
1174368
1174524
1174674
1174830
1174986
1175140
1175290
1175448
1175596
1175748
1175908
1176064
1176214
1176360
1176508
1176668
1176828
1177000
1177178
1177354
1177510
1177680
1177848
1178016
1178186
1178352
1178520
1178692
1178870
1179046
1179218
1179394
1179572
1179750
1179924
1180098
1180274
1180454
1180632
1180806
1180986
1181172
1181356
1181534
1181710
1181888
1182062
1182236
1182410
1182586
1182760
1182934
1183116
1183296
1183474
1183652
1183834
1184012
1184188
1184362
1184542
1184716
1184890
1185066
1185248
1185428
1185608
1185794
1185976
1186158
1186338
1186522
1186706
1186890
1187074
1187264
1187456
1187644
1187832
1188024
1188216
1188406
1188596
1188790
1188980
1189170
1189360
1189554
1189744
1189932
1190122
1190314
1190504
1190690
1190876
1191052
1191226
1191400
1191576
1191754
1191932
1192114
1192298
1192478
1192662
1192850
1193034
1193216
1193400
1193586
1193764
1193926
1194092
1194246
1194424
1194600
1194782
1194966
1195150
1195332
1195512
1195670
1195850
1196024
1196200
1196374
1196552
1196732
1196910
1197090
1197274
1197454
1197634
1197810
1197984
1198144
1198302
1198474
1198642
1198802
1198984
1199166
1199350
1199536
1199758
1199972
1200176
1200360
1200540
1200722
1200908
1201092
1201268
1201430
1201610
1201766
1201946
1202104
1202284
1202502
1202712
1202910
1203094
1203266
1203436
1203608
1203782
1203956
1204134
1204316
1204500
1204688
1204872
1205058
1205240
1205422
1205602
1205782
1205962
1206146
1206328
1206506
1206684
1206864
1207056
1207240
1207422
1207606
1207792
1207976
1208158
1208342
1208528
1208712
1208892
1209074
1209256
1209434
1209616
1209798
1209976
1210154
1210334
1210516
1210696
1210878
1211062
1211244
1211426
1211610
1211796
1211980
1212164
1212348
1212532
1212712
1212894
1213078
1213262
1213444
1213624
1213808
1213996
1214182
1214370
1214562
1214750
1214932
1215116
1215302
1215482
1215662
1215838
1216012
1216184
1216360
1216536
1216716
1216894
1217074
1217256
1217438
1217618
1217802
1217984
1218164
1218346
1218530
1218712
1218894
1219072
1219250
1219426
1219604
1219786
1219968
1220148
1220330
1220514
1220698
1220880
1221064
1221248
1221430
1221608
1221790
1221970
1222150
1222332
1222514
1222694
1222872
1223052
1223230
1223406
1223584
1223764
1223944
1224124
1224306
1224490
1224672
1224854
1225040
1225226
1225412
1225596
1225782
1225966
1226148
1226326
1226510
1226692
1226870
1227046
1227214
1227374
1227548
1227726
1227904
1228086
1228312
1228530
1228734
1228920
1229100
1229278
1229456
1229636
1229818
1230002
1230188
1230376
1230566
1230752
1230938
1231122
1231306
1231486
1231668
1231846
1232022
1232200
1232380
1232560
1232742
1232922
1233104
1233290
1233474
1233660
1233850
1234044
1234234
1234426
1234616
1234800
1234980
1235164
1235350
1235534
1235714
1235896
1236082
1236270
1236456
1236646
1236840
1237032
1237220
1237402
1237584
1237758
1237936
1238118
1238302
1238484
1238670
1238854
1239034
1239212
1239392
1239578
1239762
1239942
1240124
1240312
1240500
1240686
1240876
1241104
1241324
1241528
1241714
1241900
1242086
1242272
1242502
1242726
1242938
1243132
1243322
1243514
1243702
1243890
1244086
1244278
1244464
1244652
1244846
1245034
1245220
1245406
1245590
1245770
1245952
1246140
1246324
1246504
1246686
1246874
1247060
1247242
1247426
1247612
1247798
1247984
1248172
1248360
1248546
1248734
1248966
1249184
1249384
1249564
1249746
1249926
1250108
1250296
1250486
1250678
1250870
1251064
1251250
1251436
1251624
1251814
1252000
1252192
1252384
1252574
1252758
1252942
1253132
1253320
1253504
1253686
1253870
1254052
1254232
1254414
1254600
1254784
1254966
1255154
1255346
1255536
1255720
1255908
1256096
1256282
1256466
1256648
1256832
1257014
1257198
1257388
1257578
1257764
1257950
1258136
1258318
1258500
1258682
1258866
1259054
1259242
1259432
1259622
1259806
1259988
1260172
1260354
1260534
1260718
1260902
1261084
1261264
1261446
1261632
1261816
1261996
1262178
1262360
1262542
1262720
1262902
1263088
1263272
1263454
1263632
1263814
1263996
1264176
1264356
1264538
1264722
1264904
1265086
1265272
1265460
1265646
1265830
1266018
1266202
1266382
1266564
1266750
1266934
1267118
1267304
1267492
1267678
1267864
1268054
1268244
1268430
1268614
1268800
1268986
1269172
1269360
1269550
1269738
1269922
1270104
1270288
1270472
1270660
1270846
1271034
1271218
1271400
1271588
1271774
1271956
1272136
1272324
1272512
1272696
1272880
1273066
1273252
1273436
1273618
1273802
1273988
1274174
1274364
1274556
1274748
1274936
1275120
1275308
1275496
1275678
1275860
1276044
1276226
1276408
1276590
1276780
1276970
1277158
1277346
1277536
1277722
1277904
1278084
1278262
1278438
1278614
1278792
1278966
1279142
1279320
1279504
1279688
1279870
1280056
1280242
1280424
1280604
1280782
1280960
1281136
1281312
1281488
1281666
1281842
1282024
1282212
1282408
1282600
1282790
1282984
1283174
1283360
1283544
1283728
1283912
1284090
1284270
1284452
1284634
1284814
1284998
1285186
1285370
1285552
1285732
1285916
1286098
1286278
1286504
1286718
1286912
1287092
1287266
1287440
1287612
1287788
1287966
1288142
1288320
1288494
1288670
1288844
1289016
1289188
1289360
1289534
1289704
1289872
1290038
1290192
1290348
1290510
1290672
1290834
1291000
1291166
1291334
1291508
1291688
1291868
1292044
1292220
1292394
1292554
1292714
1292884
1293050
1293212
1293378
1293538
1293702
1293866
1294036
1294210
1294394
1294582
1294766
1294944
1295102
1295276
1295450
1295630
1295818
1296002
1296184
1296362
1296538
1296716
1296904
1297132
1297352
1297558
1297750
1297944
1298134
1298324
1298514
1298702
1298884
1299062
1299244
1299422
1299602
1299782
1299958
1300120
1300294
1300466
1300640
1300812
1300982
1301154
1301330
1301504
1301678
1301848
1302016
1302184
1302352
1302522
1302688
1302856
1303024
1303196
1303372
1303548
1303728
1303906
1304084
1304262
1304438
1304614
1304790
1304960
1305132
1305300
1305458
1305626
1305798
1305974
1306156
1306340
1306524
1306712
1306904
1307092
1307278
1307464
1307648
1307832
1308016
1308200
1308386
1308568
1308752
1308936
1309114
1309292
1309470
1309650
1309830
1310010
1310190
1310368
1310546
1310722
1310898
1311072
1311244
1311416
1311588
1311762
1311934
1312106
1312278
1312450
1312624
1312796
1312968
1313142
1313316
1313490
1313662
1313838
1314012
1314184
1314358
1314532
1314706
1314880
1315058
1315238
1315418
1315596
1315776
1315952
1316108
1316278
1316432
1316600
1316764
1316934
1317106
1317280
1317454
1317630
1317806
1317980
1318148
1318320
1318490
1318660
1318832
1319004
1319174
1319346
1319518
1319688
1319858
1320028
1320202
1320374
1320548
1320722
1320900
1321074
1321252
1321432
1321610
1321786
1321958
1322134
1322306
1322480
1322654
1322826
1322998
1323170
1323344
1323512
1323682
1323856
1324028
1324202
1324374
1324546
1324716
1324888
1325058
1325226
1325396
1325564
1325736
1325906
1326076
1326248
1326424
1326598
1326774
1326946
1327118
1327286
1327454
1327620
1327788
1327954
1328120
1328284
1328448
1328614
1328782
1328954
1329126
1329298
1329470
1329646
1329820
1329992
1330166
1330340
1330514
1330686
1330858
1331032
1331204
1331374
1331548
1331722
1331894
1332050
1332220
1332386
1332550
1332716
1332884
1333056
1333230
1333406
1333580
1333754
1333910
1334080
1334246
1334414
1334582
1334752
1334920
1335090
1335260
1335436
1335612
1335798
1335984
1336166
1336348
1336530
1336710
1336888
1337064
1337242
1337418
1337594
1337774
1337956
1338138
1338324
1338508
1338692
1338874
1339056
1339236
1339416
1339592
1339768
1339942
1340118
1340292
1340468
1340636
1340804
1340976
1341154
1341328
1341502
1341674
1341848
1342020
1342190
1342364
1342540
1342716
1342888
1343058
1343226
1343380
1343548
1343716
1343884
1344050
1344220
1344394
1344572
1344752
1344936
1345124
1345342
1345552
1345750
1345934
1346112
1346286
1346458
1346616
1346794
1346966
1347140
1347314
1347490
1347666
1347844
1348020
1348196
1348372
1348544
1348718
1348890
1349064
1349242
1349420
1349594
1349768
1349944
1350122
1350298
1350474
1350652
1350830
1351008
1351190
1351372
1351550
1351732
1351912
1352092
1352270
1352450
1352634
1352814
1352996
1353180
1353364
1353544
1353728
1353912
1354096
1354276
1354458
1354642
1354820
1354998
1355182
1355368
1355554
1355738
1355924
1356108
1356288
1356468
1356646
1356820
1356994
1357168
1357346
1357524
1357702
1357888
1358070
1358248
1358422
1358604
1358784
1358962
1359138
1359314
1359488
1359662
1359840
1360018
1360196
1360372
1360556
1360742
1360928
1361116
1361304
1361492
1361680
1361866
1362054
1362236
1362416
1362594
1362772
1362946
1363120
1363280
1363460
1363678
1363892
1364090
1364272
1364450
1364624
1364800
1364978
1365160
1365344
1365532
1365722
1365912
1366096
1366278
1366458
1366638
1366818
1366998
1367178
1367352
1367526
1367704
1367886
1368068
1368246
1368426
1368602
1368778
1368954
1369132
1369290
1369464
1369636
1369808
1369980
1370142
1370316
1370490
1370664
1370838
1371012
1371190
1371368
1371550
1371728
1371906
1372080
1372254
1372430
1372604
1372766
1372942
1373118
1373292
1373466
1373642
1373820
1373998
1374174
1374348
1374522
1374694
1374866
1375038
1375214
1375386
1375560
1375736
1375916
1376092
1376270
1376446
1376626
1376806
1376992
1377174
1377356
1377536
1377718
1377898
1378074
1378248
1378422
1378598
1378772
1378938
1379110
1379284
1379458
1379636
1379814
1379996
1380172
1380350
1380526
1380702
1380874
1381046
1381220
1381396
1381572
1381750
1381930
1382110
1382290
1382470
1382654
1382834
1383014
1383196
1383378
1383558
1383738
1383918
1384098
1384278
1384460
1384644
1384826
1385008
1385190
1385372
1385552
1385730
1385908
1386084
1386258
1386434
1386614
1386792
1386972
1387158
1387348
1387536
1387720
1387902
1388082
1388258
1388434
1388608
1388784
1388958
1389138
1389318
1389496
1389676
1389858
1390040
1390222
1390400
1390576
1390756
1390936
1391116
1391294
1391474
1391656
1391832
1392010
1392184
1392360
1392536
1392716
1392896
1393074
1393256
1393440
1393624
1393802
1393978
1394154
1394328
1394504
1394680
1394860
1395042
1395226
1395410
1395596
1395778
1395958
1396136
1396318
1396496
1396672
1396846
1397020
1397192
1397366
1397544
1397718
1397892
1398066
1398242
1398414
1398590
1398770
1398952
1399132
1399312
1399496
1399678
1399858
1400040
1400222
1400406
1400586
1400768
1400948
1401126
1401306
1401488
1401670
1401852
1402032
1402218
1402402
1402584
1402764
1402944
1403126
1403304
1403482
1403662
1403838
1404012
1404186
1404360
1404534
1404708
1404884
1405056
1405216
1405386
1405552
1405716
1405888
1406064
1406250
1406436
1406626
1406816
1407006
1407190
1407374
1407554
1407734
1407910
1408084
1408260
1408436
1408614
1408792
1408966
1409142
1409318
1409494
1409672
1409850
1410032
1410210
1410388
1410562
1410734
1410904
1411072
1411240
1411406
1411576
1411748
1411926
1412102
1412278
1412458
1412630
1412800
1412972
1413144
1413316
1413492
1413670
1413850
1414028
1414206
1414386
1414564
1414742
1414920
1415096
1415272
1415446
1415622
1415798
1415972
1416148
1416324
1416502
1416676
1416854
1417030
1417206
1417370
1417528
1417700
1417872
1418088
1418296
1418492
1418678
1418858
1419034
1419208
1419380
1419550
1419722
1419898
1420076
1420254
1420436
1420620
1420804
1420984
1421160
1421330
1421500
1421670
1421828
1422002
1422176
1422348
1422524
1422688
1422862
1423034
1423210
1423384
1423554
1423724
1423890
1424046
1424214
1424380
1424540
1424708
1424878
1425050
1425228
1425406
1425584
1425762
1425944
1426124
1426306
1426486
1426672
1426894
1427110
1427310
1427494
1427674
1427852
1428016
1428192
1428368
1428550
1428738
1428922
1429102
1429284
1429464
1429630
1429812
1429990
1430170
1430350
1430524
1430698
1430876
1431054
1431230
1431406
1431586
1431768
1431956
1432142
1432332
1432524
1432720
1432908
1433092
1433276
1433458
1433636
1433818
1434002
1434188
1434374
1434560
1434750
1434938
1435120
1435298
1435478
1435658
1435834
1436008
1436180
1436350
1436526
1436706
1436886
1437062
1437238
1437414
1437594
1437772
1437948
1438124
1438302
1438482
1438658
1438838
1439014
1439192
1439370
1439552
1439738
1439918
1440098
1440282
1440464
1440644
1440824
1441004
1441188
1441372
1441552
1441734
1441920
1442100
1442282
1442466
1442650
1442830
1443008
1443188
1443366
1443546
1443726
1443910
1444086
1444262
1444434
1444606
1444780
1444954
1445132
1445314
1445496
1445678
1445862
1446046
1446230
1446412
1446600
1446784
1446964
1447144
1447322
1447500
1447682
1447868
1448052
1448232
1448408
1448584
1448760
1448932
1449108
1449288
1449468
1449648
1449826
1450008
1450192
1450374
1450556
1450736
1450914
1451088
1451260
1451436
1451614
1451796
1451978
1452164
1452348
1452530
1452712
1452898
1453082
1453264
1453446
1453628
1453810
1453986
1454164
1454340
1454518
1454692
1454870
1455044
1455220
1455398
1455578
1455758
1455936
1456120
1456304
1456484
1456666
1456844
1457024
1457200
1457376
1457556
1457732
1457910
1458092
1458276
1458462
1458648
1458832
1459018
1459198
1459380
1459562
1459742
1459920
1460100
1460282
1460464
1460642
1460824
1461008
1461186
1461364
1461544
1461724
1461902
1462078
1462260
1462440
1462618
1462796
1462974
1463154
1463330
1463506
1463682
1463858
1464036
1464220
1464404
1464588
1464768
1464948
1465126
1465306
1465484
1465660
1465834
1466010
1466186
1466362
1466540
1466722
1466902
1467084
1467266
1467454
1467636
1467816
1467996
1468178
1468356
1468536
1468714
1468896
1469080
1469270
1469504
1469726
1469930
1470118
1470306
1470488
1470666
1470844
1471004
1471180
1471360
1471544
1471732
1471968
1472198
1472398
1472578
1472756
1472938
1473122
1473304
1473498
1473738
1473966
1474168
1474350
1474532
1474710
1474872
1475046
1475210
1475394
1475580
1475764
1475942
1476104
1476280
1476440
1476614
1476788
1476964
1477138
1477306
1477474
1477633
1477786
1477944
1478108
1478269
1478428
1478590
1478748
1478910
1479072
1479234
1479394
1479550
1479708
1479866
1480028
1480186
1480346
1480504
1480662
1480818
1480972
1481132
1481290
1481450
1481612
1481776
1481942
1482114
1482290
1482466
1482644
1482826
1483002
1483176
1483344
1483512
1483678
1483828
1483988
1484148
1484310
1484476
1484644
1484814
1484980
1485148
1485318
1485492
1485666
1485840
1486014
1486192
1486368
1486542
1486720
1486896
1487070
1487246
1487422
1487598
1487774
1487950
1488128
1488304
1488480
1488654
1488826
1489002
1489178
1489354
1489528
1489704
1489880
1490056
1490236
1490416
1490594
1490772
1490950
1491124
1491296
1491464
1491636
1491806
1491974
1492144
1492316
1492488
1492664
1492842
1493024
1493206
1493386
1493570
1493740
1493928
1494102
1494274
1494444
1494616
1494792
1494968
1495146
1495324
1495502
1495680
1495858
1496036
1496216
1496396
1496572
1496748
1496922
1497094
1497264
1497434
1497604
1497776
1497942
1498118
1498288
1498460
1498636
1498820
1499006
1499190
1499372
1499554
1499736
1499910
1500084
1500256
1500428
1500600
1500772
1500944
1501118
1501294
1501472
1501646
1501824
1502002
1502184
1502364
1502546
1502732
1502918
1503102
1503280
1503458
1503632
1503806
1503978
1504150
1504326
1504502
1504686
1504870
1505052
1505236
1505422
1505608
1505788
1505966
1506144
1506324
1506500
1506676
1506856
1507034
1507212
1507390
1507572
1507752
1507930
1508106
1508288
1508470
1508650
1508828
1509008
1509186
1509364
1509548
1509732
1509918
1510100
1510282
1510466
1510646
1510824
1511000
1511176
1511354
1511528
1511704
1511888
1512072
1512256
1512436
1512618
1512800
1512980
1513160
1513340
1513516
1513694
1513876
1514058
1514236
1514414
1514592
1514770
1514948
1515128
1515310
1515492
1515670
1515850
1516034
1516212
1516388
1516562
1516742
1516926
1517108
1517294
1517482
1517668
1517850
1518030
1518208
1518384
1518560
1518736
1518910
1519084
1519258
1519434
1519612
1519788
1519968
1520150
1520332
1520512
1520688
1520868
1521046
1521224
1521400
1521578
1521756
1521932
1522110
1522288
1522466
1522640
1522814
1522992
1523168
1523344
1523522
1523696
1523870
1524042
1524216
1524392
1524572
1524752
1524930
1525114
1525300
1525480
1525658
1525838
1526016
1526180
1526344
1526504
1526682
1526866
1527056
1527244
1527432
1527618
1527802
1527984
1528166
1528344
1528522
1528702
1528882
1529064
1529250
1529434
1529618
1529800
1529972
1530146
1530320
1530492
1530652
1530828
1531002
1531182
1531360
1531536
1531714
1531900
1532088
1532272
1532454
1532640
1532830
1533018
1533204
1533392
1533574
1533758
1533938
1534118
1534302
1534484
1534666
1534854
1535040
1535224
1535406
1535594
1535780
1535964
1536150
1536340
1536526
1536710
1536898
1537092
1537280
1537462
1537646
1537830
1538014
1538198
1538376
1538558
1538738
1538918
1539098
1539282
1539460
1539640
1539824
1540010
1540192
1540372
1540556
1540738
1540918
1541098
1541278
1541462
1541640
1541824
1542008
1542198
1542382
1542566
1542750
1542936
1543116
1543296
1543476
1543658
1543838
1544022
1544208
1544392
1544576
1544760
1544944
1545124
1545302
1545482
1545658
1545836
1546012
1546192
1546372
1546550
1546726
1546904
1547082
1547258
1547436
1547618
1547798
1547976
1548154
1548336
1548516
1548692
1548870
1549052
1549234
1549414
1549592
1549772
1549952
1550132
1550314
1550496
1550678
1550856
1551040
1551224
1551392
1551570
1551744
1551908
1552080
1552248
1552408
1552576
1552738
1552904
1553068
1553232
1553396
1553560
1553724
1553884
1554042
1554198
1554350
1554506
1554664
1554824
1554986
1555138
1555312
1555472
1555624
1555776
1555926
1556078
1556232
1556394
1556552
1556714
1556878
1557040
1557206
1557368
1557530
1557692
1557852
1558012
1558164
1558316
1558472
1558628
1558784
1558942
1559092
1559250
1559388
1559532
1559680
1559838
1559990
1560148
1560308
1560464
1560622
1560780
1560934
1561084
1561236
1561384
1561534
1561690
1561844
1561996
1562144
1562292
1562440
1562592
1562744
1562896
1563050
1563202
1563354
1563512
1563666
1563826
1563980
1564136
1564292
1564448
1564602
1564758
1564912
1565066
1565218
1565364
1565506
1565650
1565794
1565940
1566090
1566238
1566386
1566536
1566688
1566854
1567018
1567170
1567324
1567484
1567638
1567808
1567960
1568124
1568270
1568434
1568580
1568728
1568872
1569016
1569162
1569306
1569450
1569600
1569742
1569880
1570018
1570156
1570298
1570442
1570580
1570720
1570864
1571008
1571144
1571284
1571422
1571560
1571700
1571840
1571980
1572120
1572262
1572402
1572556
1572702
1572848
1572990
1573134
1573278
1573424
1573574
1573724
1573878
1574050
1574198
1574370
1574532
1574682
1574826
1574968
1575114
1575256
1575394
1575538
1575678
1575828
1575972
1576116
1576256
1576402
1576534
1576672
1576806
1576940
1577078
1577216
1577356
1577508
1577676
1577848
1578068
1578276
1578472
1578654
1578832
1579010
1579162
1579340
1579492
1579664
1579808
1579960
1580122
1580266
1580408
1580550
1580696
1580858
1581004
1581152
1581318
1581480
1581632
1581794
1581938
1582082
1582226
1582370
1582514
1582656
1582798
1582944
1583106
1583262
1583428
1583592
1583756
1583920
1584084
1584248
1584412
1584570
1584728
1584884
1585038
1585190
1585340
1585494
1585644
1585796
1585952
1586108
1586268
1586428
1586588
1586740
1586890
1587052
1587198
1587362
1587516
1587678
1587834
1587996
1588150
1588314
1588474
1588636
1588794
1588948
1589108
1589266
1589414
1589574
1589732
1589888
1590046
1590198
1590352
1590498
1590650
1590804
1590950
1591114
1591272
1591430
1591590
1591748
1591904
1592054
1592216
1592372
1592528
1592684
1592840
1593000
1593162
1593328
1593496
1593668
1593840
1594010
1594162
1594332
1594478
1594642
1594784
1594944
1595096
1595256
1595418
1595588
1595766
1595946
1596126
1596282
1596436
1596586
1596742
1596914
1597066
1597238
1597388
1597560
1597716
1597886
1598050
1598214
1598364
1598530
1598672
1598836
1598978
1599128
1599288
1599444
1599590
1599742
1599898
1600052
1600210
1600368
1600532
1600728
1600916
1601104
1601306
1601498
1601692
1601882
1602104
1602320
1602522
1602710
1602894
1603078
1603256
1603432
1603672
1603912
1604140
1604340
1604496
1604690
1604872
1605054
1605238
1605424
1605612
1605800
1605986
1606166
1606348
1606534
1606726
1606922
1607110
1607304
1607498
1607684
1607866
1608094
1608312
1608518
1608708
1608910
1609110
1609312
1609516
1609718
1609918
1610118
1610320
1610512
1610696
1610854
1611058
1611250
1611432
1611586
1611772
1611946
1612122
1612302
1612484
1612644
1612836
1613004
1613190
1613368
1613548
1613728
1613906
1614082
1614270
1614498
1614722
1614934
1615126
1615314
1615500
1615688
1615918
1616138
1616346
1616532
1616720
1616904
1617086
1617312
1617536
1617746
1617936
1618120
1618300
1618482
1618672
1618860
1619058
1619260
1619470
1619676
1619872
1620066
1620256
1620442
1620634
1620832
1621028
1621220
1621458
1621692
1621910
1622100
1622288
1622478
1622668
1622908
1623136
1623348
1623536
1623720
1623902
1624062
1624302
1624534
1624752
1624964
1625188
1625406
1625606
1625798
1625990
1626176
1626330
1626512
1626660
1626838
1626986
1627146
1627318
1627542
1627760
1627966
1628150
1628332
1628506
1628682
1628858
1629038
1629218
1629400
1629584
1629772
1629960
1630148
1630332
1630530
1630732
1630924
1631108
1631292
1631480
1631668
1631850
1632002
1632180
1632328
1632504
1632678
1632850
1633018
1633172
1633340
1633494
1633672
1633850
1634036
1634220
1634406
1634592
1634822
1635044
1635250
1635440
1635632
1635828
1636022
1636264
1636496
1636718
1636918
1637108
1637304
1637498
1637686
1637876
1638066
1638256
1638490
1638714
1638920
1639098
1639278
1639460
1639646
1639880
1640100
1640302
1640482
1640662
1640846
1641078
1641306
1641516
1641700
1641882
1642062
1642222
1642406
1642584
1642812
1643046
1643274
1643480
1643670
1643852
1644034
1644214
1644392
1644568
1644742
1644900
1645084
1645270
1645506
1645728
1645932
1646114
1646268
1646444
1646610
1646774
1646938
1647098
1647258
1647418
1647580
1647746
1647916
1648084
1648244
1648410
1648562
1648732
1648886
1649058
1649224
1649396
1649580
1649766
1649994
1650204
1650404
1650594
1650784
1650974
1651160
1651342
1651528
1651712
1651894
1652074
1652254
1652436
1652616
1652778
1652958
1653136
1653320
1653508
1653696
1653884
1654068
1654250
1654434
1654618
1654802
1654988
1655168
1655354
1655536
1655700
1655882
1656058
1656238
1656430
1656626
1656816
1657002
1657186
1657368
1657546
1657728
1657906
1658084
1658268
1658460
1658700
1658924
1659134
1659328
1659526
1659724
1659958
1660188
1660402
1660594
1660752
1660908
1661062
1661252
1661440
1661630
1661818
1662010
1662198
1662380
1662536
1662714
1662888
1663066
1663246
1663428
1663610
1663792
1663974
1664156
1664340
1664524
1664710
1664896
1665078
1665264
1665456
1665652
1665846
1666036
1666268
1666496
1666700
1666878
1667054
1667230
1667414
1667600
1667796
1668036
1668260
1668470
1668660
1668846
1669032
1669224
1669414
1669602
1669788
1669978
1670164
1670350
1670538
1670728
1670918
1671102
1671284
1671464
1671644
1671822
1672002
1672188
1672372
1672556
1672740
1672926
1673110
1673290
1673468
1673648
1673832
1674016
1674200
1674384
1674572
1674760
1674948
1675136
1675326
1675514
1675702
1675890
1676086
1676278
1676468
1676658
1676846
1677034
1677218
1677402
1677584
1677764
1677946
1678126
1678310
1678492
1678676
1678858
1679038
1679218
1679400
1679580
1679760
1679942
1680126
1680306
1680486
1680666
1680848
1681028
1681208
1681386
1681566
1681742
1681922
1682104
1682288
1682468
1682648
1682830
1683010
1683190
1683370
1683550
1683728
1683904
1684084
1684262
1684438
1684614
1684788
1684952
1685128
1685302
1685478
1685650
1685808
1685972
1686128
1686292
1686448
1686618
1686790
1686968
1687144
1687322
1687502
1687684
1687868
1688050
1688228
1688402
1688578
1688754
1688928
1689102
1689280
1689460
1689638
1689818
1690000
1690184
1690368
1690548
1690728
1690910
1691092
1691270
1691448
1691630
1691810
1691986
1692160
1692320
1692488
1692660
1692840
1693026
1693216
1693400
1693580
1693758
1693934
1694110
1694280
1694450
1694616
1694782
1694946
1695112
1695274
1695438
1695604
1695768
1695936
1696104
1696274
1696448
1696620
1696796
1696966
1697136
1697300
1697462
1697620
1697782
1697942
1698106
1698274
1698444
1698616
1698788
1698962
1699136
1699310
1699488
1699668
1699852
1700034
1700218
1700402
1700586
1700764
1700936
1701092
1701246
1701398
1701568
1701736
1701904
1702074
1702238
1702402
1702568
1702736
1702906
1703076
1703250
1703422
1703596
1703768
1703942
1704114
1704288
1704464
1704642
1704822
1704998
1705174
1705346
1705516
1705684
1705852
1706024
1706202
1706382
1706566
1706746
1706924
1707100
1707272
1707430
1707604
1707786
1707974
1708162
1708346
1708522
1708694
1708860
1709024
1709186
1709346
1709504
1709664
1709824
1709984
1710146
1710308
1710470
1710634
1710796
1710958
1711118
1711276
1711432
1711588
1711744
1711900
1712058
1712214
1712374
1712534
1712692
1712850
1713010
1713170
1713328
1713488
1713648
1713804
1713962
1714122
1714278
1714438
1714596
1714752
1714908
1715062
1715218
1715372
1715528
1715682
1715838
1715996
1716156
1716316
1716474
1716634
1716794
1716954
1717112
1717272
1717428
1717584
1717736
1717888
1718036
1718186
1718336
1718488
1718642
1718800
1718968
1719138
1719310
1719482
1719648
1719814
1719976
1720134
1720292
1720452
1720610
1720766
1720924
1721080
1721240
1721402
1721566
1721730
1721892
1722054
1722214
1722374
1722534
1722690
1722846
1723004
1723170
1723362
1723540
1723714
1723882
1724046
1724210
1724370
1724530
1724686
1724840
1724984
1725138
1725290
1725440
1725594
1725750
1725906
1726064
1726222
1726378
1726532
1726684
1726832
1726974
1727128
1727286
1727472
1727664
1727862
1728048
1728232
1728406
1728584
1728762
1728938
1729112
1729290
1729468
1729642
1729814
1729980
1730142
1730302
1730462
1730622
1730784
1730950
1731124
1731328
1731514
1731702
1731898
1732092
1732294
1732480
1732658
1732826
1732978
1733146
1733310
1733474
1733640
1733812
1733996
1734178
1734354
1734526
1734696
1734870
1735046
1735218
1735388
1735556
1735726
1735894
1736060
1736222
1736384
1736542
1736700
1736850
1737010
1737168
1737330
1737520
1737704
1737898
1738090
1738300
1738492
1738680
1738860
1739038
1739214
1739390
1739564
1739740
1739914
1740088
1740256
1740422
1740588
1740750
1740914
1741078
1741240
1741406
1741570
1741736
1741934
1742118
1742298
1742472
1742650
1742822
1742990
1743158
1743328
1743496
1743664
1743830
1743996
1744164
1744330
1744496
1744660
1744826
1744992
1745166
1745340
1745512
1745680
1745850
1746020
1746192
1746362
1746532
1746700
1746868
1747036
1747204
1747372
1747542
1747716
1747890
1748060
1748230
1748396
1748562
1748724
1748886
1749052
1749222
1749398
1749574
1749756
1749934
1750112
1750286
1750456
1750620
1750784
1750948
1751112
1751280
1751444
1751612
1751778
1751950
1752120
1752288
1752438
1752600
1752762
1752924
1753088
1753252
1753412
1753572
1753730
1753884
1754038
1754190
1754340
1754488
1754634
1754784
1754938
1755102
1755280
1755478
1755676
1755866
1756050
1756230
1756408
1756580
1756750
1756914
1757060
1757220
1757362
1757518
1757662
1757816
1757966
1758118
1758266
1758418
1758570
1758724
1758878
1759028
1759178
1759328
1759476
1759622
1759772
1759922
1760076
1760238
1760430
1760628
1760846
1761048
1761216
1761392
1761558
1761726
1761894
1762062
1762226
1762370
1762518
1762678
1762830
1762980
1763132
1763282
1763434
1763586
1763732
1763886
1764040
1764198
1764364
1764530
1764694
1764844
1765006
1765164
1765306
1765462
1765618
1765780
1765950
1766144
1766318
1766492
1766660
1766838
1767030
1767228
1767418
1767596
1767766
1767920
1768086
1768234
1768398
1768544
1768710
1768876
1769074
1769262
1769450
1769634
1769812
1769986
1770160
1770334
1770512
1770690
1770868
1771042
1771210
1771376
1771538
1771700
1771860
1772020
1772182
1772348
1772520
1772718
1772900
1773086
1773268
1773444
1773622
1773794
1773964
1774132
1774298
1774464
1774636
1774810
1774982
1775148
1775312
1775474
1775640
1775808
1775978
1776154
1776356
1776546
1776738
1776934
1777116
1777294
1777466
1777638
1777810
1777982
1778152
1778320
1778488
1778656
1778822
1778992
1779162
1779334
1779508
1779682
1779888
1780082
1780268
1780450
1780628
1780806
1780980
1781152
1781320
1781486
1781652
1781820
1781990
1782162
1782342
1782526
1782704
1782880
1783098
1783308
1783508
1783710
1783900
1784080
1784262
1784442
1784622
1784806
1784990
1785174
1785358
1785540
1785720
1785894
1786066
1786232
1786396
1786560
1786724
1786890
1787062
1787240
1787424
1787606
1787806
1787994
1788184
1788366
1788542
1788712
1788876
1789040
1789202
1789398
1789584
1789762
1789938
1790112
1790284
1790450
1790614
1790780
1790952
1791156
1791350
1791542
1791722
1791896
1792068
1792244
1792420
1792592
1792760
1792926
1793086
1793232
1793392
1793550
1793708
1793876
1794048
1794218
1794384
1794548
1794712
1794874
1795034
1795190
1795348
1795508
1795672
1795840
1796018
1796204
1796388
1796572
1796746
1796912
1797076
1797238
1797398
1797556
1797712
1797868
1798028
1798186
1798344
1798502
1798658
1798812
1798970
1799128
1799288
1799450
1799610
1799772
1799936
