peaks
223
510
800
1094
1382
1666
1958
2242
2518
2808
3100
3388
3676
3982
4292
4584
4892
5196
5482
5792
6096
6392
6690
6992
7292
7582
7888
8196
8494
8786
9082
9372
9654
9948
10238
10524
10824
11114
11406
11686
11982
12278
12562
12848
13134
13412
13684
13968
14256
14538
14822
15112
15400
15682
15978
16274
16556
16838
17130
17426
17704
17990
18276
18564
18856
19154
19438
19714
20004
20292
20572
20872
21164
21448
21748
22044
22334
22608
22898
23184
23472
23764
24064
24356
24650
24948
25242
25518
25806
26100
26384
26680
26974
27264
27554
27856
28160
28454
28740
29022
29300
29568
29850
30130
30402
30672
30948
31226
31504
31798
32098
32396
32694
33000
33298
33588
33886
34180
34466
34754
35052
35346
35634
35940
36244
36538
36828
37124
37408
37710
38012
38300
38586
38886
39186
39492
39804
40116
40410
40714
41028
41332
41628
41926
42212
42496
42780
43060
43340
43618
43900
44204
44518
44826
45150
45476
45774
46080
46390
46692
46974
47256
47542
47820
48104
48394
48684
48990
49274
49550
49828
50126
50434
50728
51046
51356
51652
51950
52258
52556
52856
53162
53462
53746
54038
54330
54614
54912
55222
55512
55808
56110
56406
56684
56978
57272
57558
57842
58126
58412
58690
58992
59280
59562
59848
60132
60410
60694
60988
61276
61552
61832
62112
62390
62674
62966
63256
63522
63796
64074
64342
64610
64892
65180
65464
65752
66046
66326
66606
66884
67156
67428
67708
67990
68268
68548
68846
69134
69416
69692
69972
70252
70526
70808
71090
71374
71656
71946
72232
72510
72796
73078
73348
73616
73894
74168
74440
74722
75004
75280
75564
75840
76112
76370
76636
76908
77176
77450
77734
78020
78292
78576
78862
79138
79420
79714
80004
80274
80550
80830
81114
81388
81680
81968
82240
82526
82814
83090
83372
83664
83944
84216
84496
84772
85054
85346
85650
85948
86238
86548
86850
87140
87434
87728
88026
88316
88618
88898
89172
89458
89752
90036
90330
90616
90898
91174
91450
91730
92006
92292
92576
92860
93136
93410
93690
93972
94240
94528
94822
95098
95370
95650
95926
96196
96476
96766
97050
97328
97614
97888
98160
98432
98718
98998
99274
99564
99852
100134
100424
100726
101016
101298
101588
101870
102126
102376
102642
102916
103204
103542
103872
104178
104512
104826
105120
105420
105718
106008
106282
106590
106888
107174
107466
107762
108050
108336
108642
108940
109228
109518
109824
110096
110372
110656
110938
111222
111528
111836
112128
112416
112700
112982
113278
113572
113866
114144
114432
114716
115004
115292
115588
115874
116162
116452
116736
117014
117304
117584
117858
118126
118396
118668
118932
119210
119494
119778
120052
120340
120628
120908
121206
121490
121768
122034
122308
122594
122882
123180
123470
123754
124036
124326
124630
124926
125222
125540
125850
126140
126436
126730
127010
127302
127604
127902
128192
128496
128796
129072
129356
129644
129924
130192
130472
130754
131038
131316
131598
131882
132164
132446
132732
133012
133278
133556
133840
134124
134416
134724
135018
135304
135616
135916
136208
136500
136802
137092
137386
137692
137980
138264
138562
138858
139148
139454
139764
140066
140368
140670
140962
141250
141544
141848
142138
142432
142724
143026
143310
143596
143882
144154
144432
144714
145000
145282
145570
145860
146144
146428
146710
146992
147262
147540
147816
148090
148362
148648
148936
149210
149492
149786
150072
150350
150638
150924
151202
151492
151786
152068
152342
152596
152852
153098
153332
153568
153802
154038
154286
154548
154808
155074
155358
155644
155910
156172
156430
156688
156942
157208
157480
157754
158022
158292
158556
158806
159046
159282
159512
159736
159952
160164
160372
160578
160782
160986
161190
161390
161588
161788
161986
162186
162384
162586
162794
163004
163218
163436
163658
163886
164114
164350
164592
164840
165086
165340
165602
165866
166126
166394
166666
166934
167198
167468
167742
168006
168278
168560
168856
169148
169438
169730
170018
170302
170600
170896
171186
171474
171784
172078
172368
172660
172952
173244
173528
173812
174088
174362
174638
174924
175200
175472
175754
176030
176300
176584
176870
177146
177420
177704
177990
178274
178572
178864
179152
179434
179720
180008
180288
180576
180860
181142
181428
181718
182008
182290
182574
182870
183158
183448
183734
184014
184284
184560
184834
185108
185376
185652
185930
186202
186476
186756
187034
187308
187590
187868
188152
188436
188732
189020
189296
189576
189846
190116
190364
190612
190854
191092
191318
191542
191768
191998
192246
192548
192822
193084
193356
193622
193884
194160
194448
194708
194956
195202
195454
195688
195912
196132
196350
196564
196774
196984
197190
197398
197608
197826
198052
198292
198550
198808
199068
199324
199582
199836
200082
200336
200590
200844
201092
201350
201608
201868
202120
202372
202616
202860
203108
203368
203634
203898
204156
204400
204638
204868
205092
205312
205524
205738
205956
206188
206444
206708
206994
207282
207564
207838
208122
208400
208662
208926
209186
209434
209680
209942
210214
210486
210758
211046
211332
211610
211894
212176
212456
212730
213014
213290
213558
213816
214072
214316
214552
214788
215030
215300
215580
215864
216152
216438
216710
216970
217238
217512
217790
218064
218336
218606
218880
219168
219452
219732
220028
220322
220604
220890
221186
221484
221774
222062
222348
222626
222904
223176
223436
223690
223946
224200
224448
224688
224924
225154
225380
225606
225822
226044
226270
226494
226720
226944
227170
227392
227612
227830
228048
228272
228500
228728
228962
229200
229438
229680
229926
230178
230430
230686
230950
231206
231456
231712
231964
232208
232462
232728
232990
233260
233542
233826
234098
234378
234660
234938
235196
235452
235710
235958
236212
236476
236730
236978
237222
237462
237696
237932
238172
238414
238644
238872
239096
239324
239556
239798
240040
240294
240558
240830
241100
241394
241684
241956
242236
242520
242794
243068
243356
243640
243922
244210
244508
244796
245064
245338
245610
245880
246160
246464
246752
247038
247340
247630
247898
248168
248444
248726
248990
249262
249530
249784
250030
250272
250516
250744
250980
251218
251456
251698
251948
252208
252468
252748
253048
253330
253630
253944
254232
254524
254818
255102
255388
255690
255976
256266
256564
256860
257148
257448
257738
258026
258302
258568
258830
259096
259380
259664
259954
260258
260546
260840
261138
261428
261706
261992
262280
262564
262846
263130
263418
263712
264014
264304
264582
264866
265134
265404
265652
265906
266162
266420
266682
266944
267200
267440
267690
267928
268156
268388
268622
268850
269080
269304
269528
269748
269972
270194
270418
270644
270888
271146
271418
271700
271996
272280
272552
272820
273094
273362
273616
273872
274132
274404
274664
274920
275188
275444
275690
275942
276194
276438
276684
276938
277200
277456
277724
278004
278276
278550
278824
279106
279386
279656
279924
280194
280456
280712
280976
281238
281496
281758
282030
282312
282582
282858
283144
283426
283694
283956
284228
284514
284790
285068
285332
285580
285834
286088
286330
286580
286856
287148
287434
287738
288032
288304
288582
288860
289136
289402
289666
289938
290202
290468
290736
291012
291270
291542
291812
292080
292348
292634
292908
293176
293432
293690
293950
294206
294466
294740
295012
295276
295554
295838
296118
296386
296664
296942
297208
297474
297734
297988
298230
298474
298724
298984
299318
299650
299958
300264
300572
300876
301166
301454
301734
302008
302284
302566
302848
303116
303394
303684
303954
304238
304526
304794
305042
305292
305556
305820
306096
306388
306682
306962
307250
307538
307808
308080
308362
308640
308896
309164
309444
309720
310004
310286
310546
310816
311090
311356
311642
311924
312202
312472
312752
313026
313288
313554
313840
314120
314404
314686
314956
315218
315502
315782
316054
316326
316606
316888
317160
317434
317714
317980
318260
318556
318834
319130
319430
319708
319988
320278
320562
320856
321150
321434
321702
321974
322250
322512
322792
323082
323366
323656
323944
324230
324510
324796
325086
325358
325634
325922
326206
326494
326794
327074
327336
327578
327814
328054
328276
328496
328714
328956
329222
329496
329834
330170
330476
330784
331084
331384
331678
331924
332160
332386
332612
332840
333070
333304
333564
333802
334042
334308
334578
334874
335164
335422
335688
335956
336206
336464
336732
336976
337228
337468
337704
337930
338148
338364
338580
338796
339018
339258
339492
339752
340020
340304
340576
340850
341124
341380
341644
341914
342198
342472
342754
343044
343322
343590
343848
344086
344312
344536
344766
345018
345270
345566
345864
346156
346444
346730
347006
347264
347524
347794
348060
348320
348586
348858
349120
349394
349682
349962
350234
350510
350786
351046
351302
351572
351866
352148
352446
352738
353030
353318
353612
353902
354178
354458
354750
355030
355308
355594
355872
356138
356418
356698
356960
357224
357492
357766
358038
358310
358582
358858
359118
359380
359638
359890
360132
360382
360650
360908
361162
361438
361712
361966
362234
362522
362794
363062
363336
363618
363894
364186
364488
364774
365064
365350
365624
365894
366174
366462
366740
367018
367300
367564
367838
368116
368390
368660
368936
369216
369484
369754
370030
370298
370572
370860
371136
371406
371678
371956
372220
372474
372730
372994
373238
373496
373764
374032
374318
374614
374900
375180
375462
375744
376014
376294
376572
376842
377116
377394
377670
377930
378198
378474
378728
378984
379246
379512
379776
380052
380326
380590
380860
381142
381440
381732
382044
382334
382612
382902
383194
383476
383756
384040
384322
384608
384892
385174
385448
385728
386012
386286
386566
386846
387108
387362
387618
387876
388124
388382
388654
388928
389196
389476
389750
390006
390264
390526
390786
391034
391292
391568
391832
392102
392390
392670
392936
393210
393492
393756
394030
394314
394586
394854
395124
395394
395656
395926
396200
396472
396744
397020
397292
397584
397868
398148
398418
398694
398966
399228
399494
399758
400012
400280
400560
400836
401106
401382
401664
401936
402216
402498
402772
403034
403304
403576
403834
404100
404374
404644
404914
405192
405474
405744
406022
406300
406566
406834
407106
407378
407646
407916
408194
408464
408732
409002
409262
409514
409774
410030
410278
410538
410796
411054
411300
411578
411868
412172
412462
412730
412994
413250
413486
413718
413944
414180
414416
414678
414972
415250
415530
415812
416088
416376
416668
416946
417234
417522
417810
418098
418384
418660
418928
419196
419470
419736
419974
420212
420452
420686
420930
421190
421440
421692
421954
422210
422442
422674
422900
423120
423342
423564
423780
424002
424222
424442
424660
424876
425092
425302
425508
425710
425912
426116
426318
426522
426726
426930
427140
427360
427586
427814
428042
428274
428510
428744
428974
429198
429422
429648
429860
430082
430304
430526
430744
430960
431172
431378
431584
431792
432002
432212
432422
432632
432852
433060
433272
433488
433694
433905
434120
434332
434544
434750
434964
435174
435382
435586
435788
435990
436194
436404
436624
436858
437096
437338
437582
437818
438050
438274
438500
438724
438948
439174
439408
439654
439892
440136
440384
440640
440880
441132
441376
441620
441856
442084
442310
442522
442736
442948
443160
443370
443578
443788
443994
444208
444432
444664
444914
445176
445434
445698
445966
446234
446496
446750
447002
447248
447488
447722
447940
448164
448396
448630
448868
449104
449330
449552
449772
449992
450214
450440
450668
450898
451134
451366
451598
451822
452050
452286
452520
452758
453006
453254
453500
453744
453990
454246
454494
454734
454976
455222
455466
455708
455956
456210
456464
456712
456962
457210
457452
457694
457936
458174
458412
458650
458896
459144
459394
459650
459900
460144
460394
460648
460900
461140
461386
461642
461890
462144
462400
462652
462898
463154
463420
463684
463948
464220
464480
464744
465008
465270
465526
465788
466048
466306
466556
466804
467050
467296
467540
467792
468054
468316
468566
468816
469064
469312
469566
469824
470080
470334
470586
470840
471096
471360
471618
471878
472134
472382
472632
472880
473126
473380
473632
473876
474122
474372
474626
474884
475140
475392
475648
475904
476150
476400
476642
476876
477106
477340
477574
477810
478052
478302
478562
478820
479088
479352
479610
479868
480130
480388
480646
480906
481170
481432
481692
481954
482220
482480
482740
483000
483262
483522
483794
484066
484332
484590
484854
485118
485376
485630
485888
486150
486404
486668
486934
487206
487474
487744
488016
488280
488540
488800
489070
489330
489590
489850
490114
490372
490636
490906
491176
491442
491716
492004
492266
492510
492756
493006
493254
493506
493788
494094
494388
494698
495008
495288
495566
495842
496108
496372
496642
496922
497190
497456
497724
497996
498262
498532
498796
499046
499298
499558
499820
500078
500342
500608
500876
501136
501400
501664
501924
502172
502428
502690
502948
503214
503480
503744
504004
504270
504546
504816
505090
505368
505650
505906
506162
506420
506680
506942
507198
507448
507704
507974
508256
508540
508836
509126
509408
509688
509972
510246
510510
510788
511064
511330
511592
511864
512142
512414
512690
512968
513240
513508
513780
514056
514324
514588
514850
515110
515366
515628
515894
516156
516402
516656
516914
517170
517424
517688
517948
518212
518476
518746
519008
519266
519528
519784
520040
520296
520556
520808
521056
521256
521576
521834
522086
522338
522586
522828
523080
523334
523594
523864
524140
524416
524682
524958
525232
525492
525758
526032
526302
526574
526852
527128
527392
527648
527906
528158
528406
528660
528918
529172
529428
529688
529948
530198
530454
530716
530976
531232
531492
531754
532014
532270
532532
532792
533046
533304
533552
533804
534048
534298
534554
534810
535064
535324
535586
535840
536100
536364
536638
536902
537182
537470
537746
538026
538302
538568
538842
539128
539404
539676
539950
540218
540488
540752
541024
541288
541548
541816
542080
542340
542600
542862
543118
543370
543634
543900
544156
544406
544666
544924
545176
545428
545688
545956
546216
546476
546738
547006
547272
547546
547820
548090
548360
548632
548898
549154
549408
549666
549922
550176
550436
550704
550970
551238
551504
551760
552018
552284
552548
552810
553074
553340
553602
553870
554134
554396
554660
554928
555188
555440
555694
555952
556204
556456
556710
556968
557220
557484
557754
558020
558284
558552
558832
559096
559362
559632
559902
560174
560450
560726
561000
561266
561538
561806
562068
562328
562598
562860
563126
563398
563668
563932
564200
564470
564732
564992
565256
565504
565744
565986
566240
566504
566794
567098
567394
567696
568000
568288
568570
568858
569142
569418
569692
569974
570250
570520
570794
571068
571340
571614
571898
572170
572434
572708
572982
573246
573508
573768
574028
574280
574546
574814
575078
575342
575624
575890
576146
576380
576614
576844
577084
577334
577594
577880
578200
578532
578866
579192
579510
579828
580136
580440
580736
581028
581306
581580
581862
582132
582396
582658
582924
583188
583442
583704
583972
584238
584502
584770
585038
585304
585578
585856
586118
586378
586640
586908
587174
587444
587718
587990
588260
588534
588806
589072
589346
589620
589888
590152
590414
590678
590934
591196
591460
591724
591984
592246
592514
592776
593036
593302
593562
593814
594068
594328
594588
594840
595106
595372
595630
595890
596152
596408
596662
596928
597194
597466
597738
598014
598270
598536
598802
599060
599314
599572
599826
600076
600336
600604
600862
601130
601398
601666
601942
602204
602468
602720
602978
603240
603490
603742
604000
604254
604510
604764
605020
605272
605524
605774
606022
606270
606524
606778
607038
607300
607562
607818
608084
608344
608606
608868
609126
609382
609646
609908
610164
610424
610688
610952
611210
611466
611722
611974
612222
612474
612730
612984
613244
613512
613778
614048
614320
614586
614842
615096
615352
615602
615856
616116
616378
616634
616912
617176
617432
617692
617956
618226
618494
618758
619026
619296
619572
619854
620134
620404
620676
620942
621204
621468
621732
621994
622254
622518
622782
623044
623310
623578
623842
624098
624354
624604
624854
625108
625360
625608
625864
626126
626382
626644
626920
627186
627460
627734
628006
628272
628532
628800
629058
629326
629594
629858
630124
630402
630668
630924
631188
631444
631696
631952
632206
632458
632714
632978
633250
633516
633792
634062
634330
634592
634862
635128
635386
635646
635904
636156
636414
636676
636934
637190
637456
637720
637986
638250
638520
638784
639042
639308
639574
639834
640092
640350
640604
640858
641118
641374
641630
641898
642172
642434
642702
642970
643226
643478
643738
643998
644256
644512
644772
645036
645292
645556
645832
646100
646364
646636
646906
647168
647440
647722
647996
648272
648552
648828
649102
649372
649634
649888
650148
650410
650670
650932
651194
651456
651718
651978
652246
652506
652770
653036
653302
653560
653818
654084
654342
654604
654876
655144
655408
655680
655952
656216
656484
656754
657016
657278
657548
657822
658092
658358
658622
658886
659150
659422
659702
659956
660208
660462
660716
660984
661274
661568
661874
662190
662474
662766
663052
663326
663608
663894
664178
664450
664724
664990
665252
665526
665804
666074
666340
666614
666884
667156
667434
667700
667962
668216
668470
668726
668976
669230
669492
669746
670002
670266
670534
670796
671062
671326
671582
671846
672112
672382
672652
672934
673212
673480
673754
674032
674304
674574
674842
675110
675378
675654
675934
676212
676496
676782
677064
677346
677624
677898
678164
678430
678684
678930
679178
679436
679692
679948
680208
680470
680728
680996
681268
681536
681800
682070
682334
682592
682854
683118
683374
683630
683884
684138
684396
684668
684940
685208
685474
685748
686020
686288
686558
686830
687092
687352
687614
687872
688134
688404
688674
688938
689200
689472
689726
689978
690240
690500
690760
691020
691294
691560
691828
692106
692378
692650
692926
693210
693472
693738
694016
694298
694578
694868
695154
695426
695698
695970
696236
696506
696782
697050
697314
697584
697856
698120
698384
698654
698926
699190
699458
699734
699992
700252
700518
700782
701036
701300
701566
701828
702094
702364
702632
702910
703202
703480
703762
704054
704334
704610
704890
705174
705450
705728
706012
706286
706556
706826
707096
707356
707616
707878
708138
708406
708682
708954
709218
709488
709758
710028
710300
710578
710844
711108
711374
711638
711896
712162
712430
712696
712970
713242
713514
713778
714048
714328
714600
714862
715128
715386
715638
715894
716156
716410
716666
716930
717202
717466
717736
718004
718268
718526
718790
719048
719302
719562
719836
720098
720368
720650
720932
721202
721478
721746
722024
722284
722552
722820
723084
723360
723654
723942
724234
724532
724824
725100
725378
725652
725922
726192
726468
726748
727020
727296
727576
727848
728120
728386
728650
728910
729172
729442
729712
729984
730264
730542
730820
731092
731364
731626
731892
732164
732426
732692
732960
733228
733488
733746
734008
734264
734520
734768
735024
735280
735534
735798
736064
736328
736604
736882
737152
737420
737690
737950
738214
738486
738766
739044
739332
739628
739910
740184
740468
740756
741030
741300
741572
741836
742096
742364
742638
742910
743178
743454
743734
744002
744270
744542
744812
745084
745376
745654
745920
746186
746458
746720
746992
747268
747546
747818
748102
748384
748660
748944
749232
749510
749786
750062
750324
750580
750842
751114
751372
751636
751914
752194
752464
752740
753022
753286
753552
753820
754082
754340
754606
754876
755144
755410
755678
755936
756206
756486
756772
757048
757334
757628
757912
758188
758466
758738
759012
759288
759552
759812
760078
760352
760620
760878
761144
761414
761682
761950
762230
762504
762768
763032
763304
763570
763838
764112
764376
764636
764896
765166
765426
765684
765956
766224
766486
766750
767018
767288
767552
767820
768088
768352
768622
768892
769170
769438
769714
769980
770236
770504
770784
771050
771314
771584
771862
772124
772390
772664
772924
773182
773446
773712
773970
774232
774494
774756
775024
775300
775568
775832
776104
776370
776638
776914
777196
777472
777754
778046
778310
778574
778844
779106
779364
779644
779924
780206
780494
780798
781088
781364
781638
781904
782166
782430
782702
782966
783242
783524
783798
784082
784368
784648
784932
785226
785508
785784
786068
786354
786628
786910
787188
787454
787714
787978
788244
788504
788772
789054
789336
789602
789866
790134
790390
790656
790924
791198
791462
791732
792000
792260
792532
792792
793044
793294
793556
793846
794138
794436
794736
795036
795320
795612
795904
796192
796472
796764
797060
797346
797632
797918
798202
798474
798750
799026
799292
799562
799840
800116
800390
800652
800928
801202
801468
801742
802022
802300
802588
802882
803174
803450
803736
804020
804282
804554
804828
805092
805368
805642
805918
806192
806472
806758
807026
807298
807570
807840
808106
808378
808644
808902
809176
809456
809734
810014
810296
810570
810830
811100
811386
811662
811946
812236
812528
812810
813108
813392
813674
813944
814212
814468
814710
814948
815190
815440
815712
815996
816278
816580
816862
817142
817422
817696
817974
818248
818522
818798
819084
819370
819664
819958
820242
820522
820800
821092
821362
821632
821902
822174
822440
822710
822984
823260
823520
823782
824048
824318
824576
824842
825112
825378
825640
825912
826180
826436
826698
826964
827234
827494
827760
828040
828318
828598
828884
829162
829426
829668
829894
830128
830372
830630
830890
831170
831484
831794
832102
832398
832680
832934
833190
833456
833726
834000
834274
834562
834872
835158
835450
835742
836028
836298
836572
836850
837118
837382
837654
837926
838190
838464
838730
838992
839252
839510
839776
840038
840300
840572
840850
841128
841406
841692
841982
842250
842518
842794
843074
843350
843634
843918
844196
844464
844734
845002
845268
845536
845808
846092
846372
846662
846954
847248
847538
847824
848086
848338
848588
848832
849070
849304
849540
849798
850086
850406
850734
851048
851348
851642
851924
852220
852518
852816
853116
853414
853700
853986
854268
854540
854810
855088
855366
855642
855916
856196
856468
856736
857006
857282
857550
857810
858072
858338
858600
858862
859130
859416
859678
859924
860156
860384
860608
860844
861096
861374
861678
861978
862298
862616
862924
863236
863542
863824
864110
864394
864678
864978
865282
865570
865870
866170
866454
866744
867046
867334
867618
867916
868206
868490
868778
869070
869356
869632
869910
870184
870448
870712
870980
871246
871502
871768
872034
872294
872554
872830
873116
873386
873666
873938
874204
874460
874722
874996
875258
875524
875800
876076
876346
876620
876902
877178
877452
877730
878002
878272
878552
878834
879102
879378
879652
879920
880180
880454
880736
881014
881288
881570
881848
882124
882412
882696
882972
883248
883532
883814
884088
884366
884656
884938
885224
885514
885800
886076
886358
886638
886898
887176
887454
887734
888018
888308
888604
888882
889164
889446
889718
889990
890278
890564
890840
891108
891380
891648
891912
892188
892466
892746
893038
893340
893628
893922
894222
894512
894800
895090
895372
895642
895920
896198
896462
896736
897020
897300
897566
897842
898116
898386
898664
898942
899222
899488
899764
900052
900330
900616
900902
901190
901478
901762
902032
902308
902588
902860
903126
903398
903676
903946
904204
904456
904698
904934
905186
905452
905754
906054
906358
906668
906960
907262
907556
907834
908116
908402
908676
908950
909238
909506
909768
910034
910312
910588
910872
911166
911458
911752
912056
912354
912640
912930
913218
913502
913788
914080
914368
914646
914940
915232
915512
915786
916062
916338
916614
916900
917190
917472
917752
918028
918298
918576
918856
919134
919406
919686
919966
920238
920508
920784
921056
921318
921594
921874
922150
922418
922700
922988
923270
923556
923832
924114
924390
924674
924956
925228
925506
925792
926072
926362
926662
926948
927224
927510
927792
928084
928380
928660
928940
929224
929502
929782
930072
930364
930642
930916
931208
931488
931764
932050
932338
932614
932898
933184
933458
933738
934018
934296
934566
934842
935124
935400
935674
935962
936238
936508
936780
937054
937328
937600
937876
938158
938424
938684
938950
939216
939498
939798
940104
940408
940722
941026
941314
941602
941886
942162
942446
942736
943016
943298
943578
943852
944130
944420
944710
944994
945284
945564
945836
946102
946366
946626
946888
947156
947436
947716
947986
948276
948578
948858
949132
949414
949694
949964
950254
950562
950848
951140
951446
951742
952032
952318
952590
952870
953162
953456
953742
954032
954326
954598
954868
955138
955408
955678
955952
956232
956510
956808
957104
957394
957688
957990
958284
958568
958856
959138
959414
959692
959974
960242
960514
960786
961070
961348
961634
961926
962206
962478
962754
963020
963284
963550
963826
964092
964374
964654
964924
965194
965476
965752
966024
966298
966582
966860
967130
967408
967682
967948
968220
968504
968782
969072
969382
969666
969958
970246
970528
970806
971090
971378
971654
971928
972214
972502
972788
973088
973376
973660
973944
974220
974492
974770
975054
975336
975620
975910
976190
976462
976740
977028
977316
977590
977866
978146
978422
978698
978982
979252
979520
979798
980078
980344
980608
980876
981142
981408
981674
981942
982220
982494
982776
983062
983350
983616
983888
984162
984428
984690
984964
985246
985508
985772
986046
986330
986614
986898
987184
987462
987746
988030
988314
988586
988856
989136
989420
989702
989992
990280
990552
990832
991128
991404
991676
991958
992250
992524
992782
993038
993298
993564
993824
994104
994398
994684
994982
995282
995566
995858
996154
996430
996706
996986
997262
997552
997844
998142
998432
998724
999022
999320
999602
999892
1000192
1000472
1000746
1001024
1001304
1001584
1001862
1002148
1002420
1002666
1002904
1003140
1003378
1003638
1003922
1004180
1004438
1004710
1004974
1005240
1005484
1005722
1005946
1006158
1006374
1006582
1006792
1007004
1007204
1007410
1007604
1007794
1008001
1008201
1008412
1008620
1008828
1009024
1009224
1009420
1009614
1009810
1009998
1010190
1010386
1010588
1010808
1011054
1011320
1011604
1011888
1012168
1012448
1012722
1012984
1013236
1013486
1013744
1014002
1014262
1014534
1014822
1015096
1015392
1015696
1015984
1016292
1016604
1016904
1017184
1017484
1017786
1018102
1018436
1018758
1019068
1019394
1019718
1020030
1020350
1020684
1020958
1021196
1021436
1021666
1021896
1022144
1022424
1022754
1023102
1023460
1023798
1024114
1024426
1024728
1025024
1025300
1025568
1025826
1026072
1026314
1026578
1026844
1027126
1027436
1027722
1028010
1028288
1028558
1028842
1029144
1029442
1029760
1030076
1030382
1030694
1031016
1031334
1031652
1031970
1032290
1032586
1032886
1033174
1033448
1033726
1034026
1034342
1034638
1034954
1035276
1035590
1035900
1036232
1036558
1036854
1037148
1037448
1037726
1038002
1038268
1038530
1038790
1039040
1039292
1039562
1039846
1040154
1040458
1040774
1041080
1041368
1041662
1041952
1042260
1042578
1042886
1043194
1043516
1043818
1044130
1044460
1044792
1045118
1045440
1045760
1046070
1046384
1046684
1046974
1047260
1047552
1047842
1048130
1048430
1048730
1049018
1049296
1049584
1049864
1050136
1050410
1050674
1050922
1051178
1051420
1051670
1051898
1052126
1052368
1052622
1052892
1053204
1053534
1053858
1054194
1054496
1054804
1055118
1055414
1055722
1056030
1056326
1056618
1056922
1057238
1057548
1057848
1058158
1058472
1058786
1059098
1059402
1059690
1059980
1060280
1060568
1060856
1061144
1061436
1061726
1062004
1062266
1062524
1062778
1063046
1063308
1063562
1063810
1064052
1064298
1064564
1064846
1065148
1065476
1065796
1066106
1066426
1066752
1067058
1067394
1067738
1068066
1068406
1068740
1069068
1069390
1069716
1070038
1070348
1070654
1070960
1071270
1071576
1071878
1072162
1072452
1072750
1073062
1073384
1073716
1074040
1074342
1074652
1074946
1075228
1075532
1075836
1076142
1076444
1076760
1077060
1077352
1077656
1077954
1078240
1078512
1078768
1079014
1079248
1079482
1079710
1079954
1080222
1080532
1080862
1081182
1081502
1081834
1082154
1082476
1082806
1083124
1083438
1083762
1084080
1084372
1084668
1084970
1085262
1085550
1085866
1086190
1086484
1086786
1087094
1087386
1087664
1087954
1088252
1088540
1088840
1089124
1089414
1089692
1089980
1090270
1090562
1090864
1091190
1091510
1091814
1092134
1092452
1092762
1093062
1093376
1093680
1093972
1094278
1094584
1094884
1095160
1095432
1095706
1095960
1096216
1096490
1096770
1097045
1097315
1097598
1097878
1098158
1098428
1098680
1098936
1099198
1099472
1099748
1100020
1100276
1100550
1100880
1101214
1101548
1101868
1102174
1102468
1102776
1103074
1103358
1103660
1103962
1104254
1104548
1104844
1105142
1105430
1105728
1106028
1106332
1106630
1106936
1107248
1107558
1107854
1108152
1108452
1108750
1109046
1109354
1109654
1109936
1110238
1110536
1110822
1111112
1111392
1111670
1111948
1112238
1112540
1112838
1113140
1113452
1113732
1114024
1114324
1114608
1114890
1115188
1115480
1115774
1116084
1116396
1116712
1117038
1117352
1117658
1117958
1118272
1118582
1118880
1119192
1119500
1119814
1120156
1120478
1120794
1121092
1121388
1121670
1121950
1122230
1122524
1122810
1123092
1123380
1123672
1123968
1124272
1124580
1124868
1125164
1125452
1125750
1126040
1126340
1126634
1126926
1127226
1127536
1127836
1128130
1128422
1128710
1128996
1129292
1129596
1129896
1130186
1130486
1130788
1131074
1131362
1131654
1131946
1132230
1132512
1132808
1133108
1133402
1133690
1133968
1134248
1134540
1134840
1135144
1135436
1135734
1136034
1136328
1136648
1136990
1137330
1137662
1137996
1138328
1138670
1139044
1139390
1139740
1140070
1140416
1140766
1141116
1141470
1141824
1142176
1142522
1142842
1143172
1143488
1143816
1144152
1144470
1144802
1145118
1145400
1145694
1145990
1146266
1146548
1146842
1147128
1147420
1147728
1148030
1148344
1148658
1148958
1149268
1149584
1149890
1150196
1150498
1150818
1151134
1151436
1151748
1152078
1152416
1152748
1153064
1153398
1153724
1154026
1154322
1154618
1154910
1155194
1155486
1155774
1156050
1156346
1156632
1156912
1157210
1157518
1157826
1158130
1158426
1158710
1158986
1159276
1159562
1159846
1160132
1160420
1160700
1160976
1161268
1161548
1161820
1162102
1162390
1162676
1162978
1163294
1163610
1163924
1164222
1164514
1164814
1165120
1165410
1165718
1166016
1166300
1166584
1166878
1167176
1167476
1167774
1168094
1168396
1168712
1169018
1169324
1169636
1169934
1170222
1170506
1170798
1171092
1171400
1171700
1171984
1172278
1172580
1172864
1173152
1173442
1173720
1174002
1174290
1174570
1174848
1175140
1175434
1175708
1175992
1176266
1176546
1176828
1177114
1177408
1177686
1177960
1178246
1178536
1178824
1179128
1179430
1179724
1180032
1180332
1180604
1180886
1181168
1181448
1181724
1182012
1182308
1182600
1182898
1183196
1183494
1183776
1184062
1184342
1184618
1184906
1185184
1185460
1185756
1186046
1186326
1186618
1186906
1187184
1187460
1187750
1188034
1188298
1188574
1188864
1189142
1189414
1189696
1189968
1190238
1190516
1190786
1191072
1191370
1191652
1191940
1192224
1192506
1192786
1193082
1193366
1193640
1193924
1194198
1194474
1194752
1195056
1195344
1195636
1195946
1196254
1196548
1196860
1197170
1197454
1197742
1198040
1198330
1198632
1198950
1199262
1199562
1199874
1200198
1200506
1200824
1201148
1201452
1201754
1202070
1202378
1202686
1203006
1203314
1203620
1203950
1204260
1204558
1204852
1205128
1205394
1205672
1205946
1206208
1206470
1206752
1207032
1207300
1207582
1207882
1208174
1208464
1208756
1209052
1209330
1209606
1209912
1210214
1210496
1210780
1211068
1211354
1211614
1211882
1212142
1212388
1212646
1212922
1213194
1213480
1213776
1214054
1214342
1214644
1214924
1215206
1215502
1215792
1216076
1216358
1216664
1216958
1217246
1217540
1217832
1218100
1218368
1218644
1218934
1219194
1219460
1219738
1220010
1220280
1220552
1220850
1221134
1221388
1221636
1221880
1222110
1222332
1222550
1222794
1223062
1223422
1223750
1224054
1224366
1224686
1224986
1225262
1225532
1225800
1226058
1226332
1226624
1226896
1227168
1227458
1227780
1228068
1228350
1228632
1228894
1229156
1229414
1229686
1229938
1230194
1230458
1230728
1230988
1231238
1231492
1231746
1231996
1232256
1232532
1232802
1233078
1233368
1233642
1233916
1234186
1234456
1234730
1235004
1235306
1235668
1236000
1236326
1236668
1237020
1237368
1237728
1238080
1238440
1238774
1239082
1239382
1239678
1239950
1240214
1240478
1240736
1240988
1241246
1241508
1241778
1242082
1242400
1242692
1243002
1243312
1243596
1243896
1244200
1244498
1244808
1245148
1245470
1245794
1246146
1246476
1246802
1247112
1247422
1247716
1247992
1248272
1248550
1248818
1249100
1249440
1249756
1250078
1250396
1250698
1250982
1251270
1251564
1251842
1252110
1252388
1252686
1252966
1253272
1253566
1253844
1254132
1254432
1254728
1255020
1255312
1255620
1255910
1256188
1256454
1256730
1257028
1257314
1257608
1257918
1258202
1258474
1258760
1259042
1259338
1259624
1259926
1260230
1260534
1260848
1261184
1261506
1261816
1262136
1262444
1262744
1263046
1263348
1263664
1264000
1264346
1264680
1265020
1265378
1265722
1266068
1266438
1266794
1267168
1267538
1267890
1268254
1268616
1268972
1269332
1269660
1270018
1270342
1270678
1271024
1271360
1271700
1272044
1272374
1272702
1273018
1273318
1273634
1273946
1274250
1274564
1274866
1275156
1275438
1275728
1276016
1276296
1276582
1276860
1277138
1277418
1277698
1277980
1278268
1278566
1278864
1279150
1279438
1279736
1280028
1280312
1280592
1280884
1281168
1281436
1281700
1281978
1282254
1282528
1282814
1283098
1283378
1283658
1283954
1284266
1284560
1284844
1285136
1285424
1285698
1285974
1286270
1286542
1286810
1287092
1287376
1287652
1287938
1288232
1288514
1288794
1289086
1289376
1289652
1289922
1290206
1290494
1290772
1291060
1291374
1291680
1291974
1292268
1292552
1292834
1293106
1293396
1293686
1293974
1294262
1294554
1294844
1295124
1295406
1295696
1295972
1296246
1296540
1296840
1297124
1297414
1297714
1297998
1298294
1298588
1298876
1299170
1299472
1299760
1300046
1300360
1300662
1300958
1301254
1301568
1301866
1302156
1302458
1302754
1303036
1303332
1303632
1303934
1304234
1304534
1304844
1305156
1305456
1305758
1306070
1306372
1306668
1306986
1307296
1307600
1307924
1308242
1308538
1308842
1309160
1309464
1309760
1310066
1310372
1310670
1310974
1311272
1311566
1311880
1312210
1312530
1312820
1313132
1313440
1313746
1314068
1314368
1314656
1314966
1315274
1315570
1315874
1316176
1316460
1316742
1317038
1317330
1317614
1317900
1318202
1318504
1318786
1319078
1319386
1319684
1320002
1320308
1320604
1320912
1321248
1321554
1321856
1322172
1322484
1322780
1323092
1323394
1323698
1324004
1324318
1324638
1324960
1325294
1325622
1325940
1326260
1326570
1326882
1327194
1327486
1327800
1328106
1328402
1328718
1329012
1329320
1329626
1329916
1330220
1330520
1330818
1331114
1331412
1331702
1332004
1332304
1332612
1332904
1333204
1333508
1333800
1334112
1334418
1334710
1335016
1335314
1335608
1335900
1336172
1336452
1336742
1337022
1337306
1337606
1337894
1338184
1338482
1338774
1339064
1339372
1339676
1339964
1340252
1340560
1340864
1341156
1341468
1341780
1342074
1342372
1342674
1342966
1343256
1343558
1343850
1344130
1344422
1344734
1345018
1345314
1345610
1345892
1346172
1346470
1346768
1347054
1347342
1347630
1347912
1348182
1348466
1348760
1349048
1349350
1349668
1349964
1350268
1350576
1350874
1351182
1351474
1351758
1352058
1352344
1352624
1352910
1353200
1353476
1353744
1354020
1354302
1354582
1354854
1355142
1355426
1355708
1356030
1356374
1356696
1357000
1357316
1357624
1357932
1358248
1358560
1358856
1359146
1359428
1359704
1359972
1360258
1360558
1360844
1361126
1361418
1361714
1362008
1362282
1362562
1362834
1363102
1363382
1363668
1363964
1364264
1364578
1364866
1365132
1365418
1365706
1365978
1366262
1366568
1366864
1367150
1367462
1367760
1368054
1368364
1368672
1368958
1369254
1369570
1369868
1370172
1370458
1370752
1371048
1371334
1371620
1371932
1372224
1372518
1372822
1373112
1373384
1373670
1373960
1374240
1374514
1374812
1375122
1375420
1375720
1376038
1376358
1376656
1376962
1377268
1377560
1377860
1378178
1378498
1378794
1379098
1379418
1379722
1380014
1380316
1380628
1380926
1381212
1381530
1381848
1382136
1382426
1382752
1383058
1383348
1383662
1383976
1384280
1384594
1384914
1385228
1385546
1385862
1386170
1386464
1386762
1387076
1387384
1387688
1388024
1388344
1388648
1388968
1389282
1389590
1389896
1390196
1390498
1390822
1391142
1391448
1391766
1392086
1392388
1392690
1393006
1393296
1393566
1393854
1394140
1394434
1394704
1394968
1395252
1395538
1395810
1396096
1396362
1396614
1396860
1397106
1397360
1397610
1397884
1398190
1398482
1398760
1399032
1399324
1399624
1399902
1400170
1400454
1400734
1401012
1401286
1401566
1401862
1402158
1402436
1402712
1402996
1403260
1403518
1403782
1404060
1404342
1404622
1404910
1405228
1405556
1405882
1406184
1406488
1406790
1407076
1407378
1407706
1408034
1408362
1408678
1408988
1409288
1409572
1409856
1410204
1410530
1410852
1411122
1411396
1411652
1411900
1412164
1412492
1412810
1413118
1413416
1413712
1414030
1414342
1414650
1414984
1415300
1415612
1415956
1416286
1416600
1416916
1417254
1417588
1417908
1418212
1418512
1418810
1419102
1419400
1419696
1420008
1420334
1420664
1421014
1421342
1421652
1421960
1422270
1422564
1422844
1423120
1423406
1423708
1423990
1424274
1424546
1424810
1425082
1425382
1425704
1426008
1426308
1426646
1426992
1427330
1427672
1428004
1428330
1428658
1428984
1429306
1429612
1429946
1430268
1430576
1430898
1431228
1431540
1431858
1432184
1432524
1432840
1433158
1433484
1433766
1434034
1434310
1434584
1434862
1435158
1435494
1435820
1436122
1436450
1436758
1437048
1437354
1437660
1437962
1438250
1438538
1438850
1439144
1439434
1439726
1440028
1440324
1440610
1440898
1441190
1441484
1441770
1442046
1442334
1442620
1442898
1443164
1443426
1443698
1443970
1444242
1444510
1444804
1445100
1445382
1445662
1445940
1446218
1446480
1446744
1447018
1447302
1447596
1447902
1448210
1448504
1448786
1449074
1449364
1449646
1449928
1450224
1450530
1450874
1451220
1451550
1451876
1452208
1452500
1452764
1453028
1453282
1453530
1453788
1454076
1454376
1454674
1455002
1455346
1455656
1455968
1456282
1456574
1456886
1457212
1457532
1457850
1458156
1458468
1458774
1459080
1459372
1459658
1459952
1460240
1460534
1460818
1461114
1461398
1461672
1461948
1462222
1462500
1462778
1463070
1463362
1463666
1463966
1464264
1464580
1464878
1465164
1465458
1465762
1466040
1466318
1466608
1466896
1467166
1467446
1467746
1468046
1468358
1468702
1469016
1469314
1469626
1469968
1470288
1470598
1470940
1471254
1471558
1471872
1472182
1472490
1472782
1473092
1473392
1473670
1473952
1474246
1474548
1474832
1475124
1475446
1475744
1476004
1476266
1476518
1476758
1477004
1477270
1477514
1477778
1478096
1478410
1478740
1479048
1479358
1479664
1479962
1480236
1480500
1480776
1481048
1481314
1481564
1481810
1482036
1482268
1482492
1482710
1482924
1483130
1483336
1483542
1483746
1483948
1484150
1484352
1484556
1484760
1484968
1485176
1485386
1485594
1485802
1486008
1486218
1486420
1486634
1486840
1487062
1487280
1487506
1487738
1487980
1488220
1488486
1488756
1489034
1489306
1489602
1489900
1490178
1490462
1490756
1491044
1491336
1491618
1491908
1492194
1492470
1492744
1493042
1493338
1493620
1493910
1494202
1494496
1494768
1495042
1495322
1495598
1495866
1496144
1496464
1496784
1497082
1497358
1497652
1497946
1498224
1498474
1498720
1498970
1499228
1499476
1499748
1500022
1500300
1500574
1500866
1501144
1501430
1501716
1502012
1502304
1502610
1502912
1503204
1503490
1503774
1504070
1504364
1504668
1504976
1505274
1505560
1505840
1506126
1506418
1506692
1506962
1507232
1507510
1507788
1508064
1508344
1508632
1508920
1509216
1509486
1509766
1510058
1510348
1510620
1510894
1511174
1511466
1511744
1512020
1512304
1512604
1512898
1513172
1513436
1513694
1513934
1514168
1514388
1514624
1514854
1515088
1515328
1515572
1516600
1516854
1517106
1517358
1517608
1517868
1518128
1518392
1518662
1518936
1519214
1519486
1519752
1520016
1520278
1520532
1520792
1521062
1521320
1521558
1521802
1522042
1522272
1522502
1522742
1522976
1523252
1523556
1523848
1524122
1524390
1524656
1524912
1525178
1525450
1525734
1526010
1526308
1526614
1526914
1527194
1527486
1527778
1528064
1528328
1528581
1528834
1529072
1529324
1529584
1529828
1530076
1530330
1530586
1530840
1531114
1531392
1531658
1531932
1532204
1532488
1532756
1533040
1533326
1533610
1533888
1534170
1534456
1534738
1535008
1535282
1535566
1535848
1536112
1536384
1536658
1536932
1537204
1537472
1537740
1538012
1538278
1538548
1538828
1539116
1539386
1539654
1539912
1540172
1540418
1540672
1540934
1541186
1541438
1541714
1542004
1542274
1542544
1542820
1543080
1543356
1543642
1543910
1544178
1544458
1544738
1544998
1545266
1545538
1545794
1546068
1546358
1546638
1546924
1547214
1547514
1547810
1548112
1548416
1548704
1549006
1549300
1549568
1549832
1550108
1550390
1550654
1550916
1551170
1551408
1551590
1551826
1552048
1552278
1552510
1552754
1553026
1553298
1553540
1553786
1554026
1554260
1554496
1554726
1554952
1555178
1555402
1555628
1555846
1556064
1556276
1556484
1556702
1556900
1557100
1557310
1557508
1557712
1557914
1558112
1558310
1558506
1558700
1558896
1559090
1559288
1559475
1559682
1559862
1560048
1560232
1560414
1560594
1560774
1560952
1561134
1561314
1561498
1561678
1561862
1562042
1562224
1562406
1562588
1562768
1562946
1563124
1563300
1563474
1563656
1563828
1563998
1564176
1564356
1564546
1564736
1564922
1565107
1565290
1565474
1565658
1565844
1566032
1566222
1566414
1566602
1566790
1566974
1567158
1567340
1567520
1567700
1567876
1568054
1568234
1568414
1568594
1568778
1568962
1569150
1569336
1569526
1569706
1569890
1570072
1570258
1570432
1570610
1570788
1570964
1571144
1571314
1571490
1571666
1571846
1572020
1572200
1572382
1572566
1572740
1572916
1573090
1573262
1573432
1573600
1573770
1573936
1574106
1574266
1574432
1574600
1574784
1574984
1575194
1575400
1575606
1575798
1575986
1576168
1576346
1576522
1576694
1576866
1577036
1577204
1577372
1577540
1577708
1577878
1578048
1578226
1578396
1578570
1578748
1578916
1579090
1579268
1579446
1579628
1579808
1579990
1580170
1580354
1580540
1580730
1580916
1581108
1581304
1581500
1581694
1581882
1582068
1582250
1582432
1582606
1582772
1582942
1583110
1583284
1583470
1583678
1583960
1584218
1584468
1584722
1584988
1585266
1585548
1585820
1586106
1586384
1586622
1586844
1587056
1587264
1587466
1587664
1587858
1588056
1588244
1588432
1588622
1588812
1589008
1589202
1589402
1589606
1589814
1590024
1590238
1590454
1590674
1590898
1591120
1591334
1591546
1591750
1591950
1592146
1592338
1592530
1592722
1592908
1593102
1593288
1593480
1593672
1593868
1594066
1594278
1594516
1594736
1594954
1595174
1595388
1595604
1595826
1596044
1596258
1596474
1596690
1596902
1597114
1597330
1597544
1597760
1597968
1598178
1598388
1598602
1598816
1599030
1599244
1599462
1599678
1599892
1600104
1600312
1600526
1600738
1600942
1601144
1601352
1601552
1601750
1601950
1602150
1602352
1602548
1602748
1602952
1603154
1603364
1603572
1603782
1603986
1604194
1604400
1604604
1604806
1605008
1605208
1605406
1605602
1605800
1605996
1606192
1606390
1606588
1606780
1606976
1607172
1607366
1607558
1607754
1607950
1608146
1608344
1608538
1608734
1608936
1609140
1609358
1609600
1609836
1610066
1610296
1610504
1610712
1610920
1611126
1611336
1611556
1611776
1612012
1612266
1612536
1612812
1613090
1613358
1613612
1613850
1614074
1614300
1614524
1614740
1614952
1615182
1615398
1615612
1615826
1616044
1616270
1616510
1616742
1616972
1617194
1617412
1617624
1617824
1618022
1618218
1618420
1618630
1618870
1619144
1619416
1619666
1619922
1620190
1620470
1620730
1620972
1621224
1621458
1621694
1621924
1622158
1622376
1622596
1622814
1623028
1623236
1623444
1623652
1623862
1624082
1624304
1624530
1624752
1624970
1625198
1625426
1625660
1625912
1626166
1626432
1626686
1626928
1627162
1627400
1627636
1627866
1628104
1628340
1628580
1628816
1629046
1629278
1629504
1629730
1629958
1630196
1630452
1630724
1630996
1631254
1631508
1631758
1631996
1632230
1632484
1632756
1633026
1633304
1633588
1633854
1634116
1634378
1634648
1634908
1635188
1635466
1635736
1636020
1636320
1636610
1636884
1637164
1637450
1637716
1638008
1638330
1638646
1638944
1639248
1639542
1639820
1640098
1640382
1640662
1640936
1641230
1641530
1641820
1642114
1642410
1642682
1642964
1643252
1643538
1643824
1644140
1644452
1644748
1645052
1645352
1645630
1645924
1646226
1646520
1646832
1647144
1647454
1647762
1648066
1648360
1648666
1648964
1649262
1649566
1649888
1650192
1650498
1650818
1651130
1651426
1651734
1652046
1652352
1652672
1652990
1653298
1653608
1653922
1654238
1654552
1654868
1655180
1655488
1655806
1656126
1656432
1656752
1657070
1657376
1657696
1658012
1658312
1658626
1658942
1659250
1659566
1659880
1660184
1660512
1660820
1661116
1661432
1661744
1662036
1662344
1662646
1662952
1663264
1663576
1663876
1664190
1664500
1664808
1665126
1665440
1665740
1666048
1666352
1666650
1666968
1667282
1667586
1667900
1668218
1668522
1668830
1669142
1669444
1669752
1670064
1670356
1670660
1670974
1671268
1671568
1671876
1672166
1672478
1672790
1673084
1673382
1673680
1673972
1674250
1674538
1674812
1675090
1675382
1675674
1675958
1676260
1676558
1676840
1677142
1677432
1677708
1678000
1678288
1678560
1678850
1679142
1679422
1679708
1680010
1680302
1680580
1680866
1681154
1681438
1681736
1682014
1682294
1682556
1682810
1683050
1683292
1683554
1683820
1684082
1684352
1684610
1684876
1685140
1685400
1685652
1685998
1686316
1686596
1686862
1687112
1687362
1687608
1687850
1688088
1688340
1688600
1688898
1689212
1689496
1689786
1690070
1690348
1690622
1690902
1691162
1691418
1691696
1691986
1692284
1692592
1692906
1693210
1693512
1693816
1694118
1694422
1694734
1695040
1695344
1695654
1695934
1696224
1696526
1696824
1697146
1697478
1697786
1698098
1698410
1698712
1699010
1699330
1699634
1699932
1700232
1700520
1700830
1701140
1701440
1701758
1702080
1702388
1702710
1703024
1703322
1703626
1703934
1704236
1704524
1704826
1705116
1705398
1705700
1706012
1706308
1706606
1706918
1707214
1707506
1707806
1708110
1708384
1708644
1708914
1709176
1709438
1709710
1709978
1710294
1710622
1710948
1711272
1711582
1711884
1712188
1712474
1712768
1713064
1713358
1713642
1713936
1714248
1714542
1714856
1715168
1715466
1715784
1716096
1716382
1716678
1716980
1717268
1717576
1717874
1718156
1718436
1718736
1719044
1719356
1719680
1719988
1720282
1720590
1720882
1721168
1721470
1721776
1722076
1722388
1722692
1722982
1723288
1723604
1723902
1724206
1724510
1724798
1725090
1725386
1725674
1725976
1726276
1726560
1726846
1727130
1727406
1727690
1727978
1728262
1728550
1728828
1729102
1729390
1729686
1729978
1730274
1730576
1730870
1731168
1731474
1731772
1732072
1732378
1732668
1732960
1733248
1733522
1733804
1734096
1734382
1734678
1734990
1735286
1735584
1735894
1736194
1736486
1736772
1737048
1737328
1737624
1737912
1738194
1738492
1738786
1739074
1739380
1739688
1739986
1740286
1740572
1740846
1741168
1741494
1741794
1742072
1742336
1742590
1742850
1743118
1743384
1743668
1743962
1744254
1744566
1744868
1745148
1745436
1745704
1745952
1746194
1746430
1746674
1746916
1747158
1747390
1747624
1747884
1748150
1748420
1748690
1748964
1749234
1749490
1749766
1750032
1750296
1750566
1750818
1751108
1751422
1751734
1752036
1752320
1752606
1752888
1753150
1753418
1753696
1753976
1754250
1754540
1754826
1755106
1755390
1755682
1755952
1756230
1756518
1756796
1757070
1757354
1757636
1757914
1758194
1758482
1758752
1759030
1759320
1759604
1759890
1760180
1760460
1760740
1761022
1761294
1761562
1761836
1762104
1762356
1762622
1762896
1763168
1763438
1763720
1763990
1764262
1764536
1764810
1765086
1765356
1765620
1765890
1766166
1766438
1766724
1767016
1767302
1767600
1767900
1768192
1768476
1768766
1769060
1769352
1769656
1769954
1770236
1770512
1770778
1771034
1771296
1771574
1771838
1772118
1772396
1772684
1772956
1773236
1773526
1773802
1774086
1774362
1774636
1774910
1775188
1775468
1775738
1776018
1776294
1776562
1776842
1777114
1777386
1777658
1777938
1778212
1778490
1778776
1779064
1779348
1779638
1779928
1780204
1780486
1780766
1781036
1781318
1781610
1781892
1782178
1782478
1782766
1783040
1783314
1783584
1783846
1784112
1784380
1784656
1784936
1785220
1785492
1785760
1786048
1786332
1786612
1786894
1787176
1787452
1787730
1787986
1788226
1788472
1788768
1789048
1789338
1789618
1789894
1790158
1790401
1790652
1790896
1791142
1791390
1791654
1791910
1792162
1792428
1792706
1792986
1793268
1793534
1793796
1794060
1794324
1794582
1794830
1795076
1795336
1795606
1795870
1796148
1796426
1796690
1796952
1797228
1797492
1797758
1798028
1798304
1798584
1798880
1799180
1799464
1799754
