peaks
141
354
560
758
962
1172
1374
1584
1794
2010
2224
2438
2652
2864
3074
3284
3496
3712
3930
4152
4372
4590
4804
5014
5216
5416
5616
5814
6018
6224
6430
6640
6844
7052
7260
7462
7660
7862
8056
8246
8450
8652
8860
9070
9284
9506
9730
9954
10182
10404
10622
10844
11072
11312
11558
11810
12056
12288
12522
12742
12966
13188
13406
13618
13820
14018
14204
14396
14586
14776
14978
15192
15410
15638
15876
16114
16354
16588
16816
17040
17254
17458
17660
17852
18052
18250
18448
18660
18872
19086
19304
19526
19754
19978
20198
20414
20632
20848
21060
21268
21476
21690
21912
22138
22370
22600
22834
23068
23308
23548
23788
24026
24254
24482
24706
24920
25136
25348
25564
25786
26018
26246
26470
26688
26900
27106
27310
27514
27716
27928
28140
28354
28564
28772
28984
29192
29406
29612
29822
30026
30228
30424
30616
30808
30998
31202
31412
31628
31856
32084
32302
32516
32718
32916
33110
33304
33498
33694
33896
34110
34332
34556
34782
35000
35212
35420
35624
35824
36020
36212
36406
36602
36796
36990
37184
37378
37574
37774
37978
38192
38398
38608
38816
39018
39220
39408
39602
39786
39976
40164
40354
40550
40756
40968
41182
41398
41616
41834
42042
42246
42446
42644
42840
43032
43228
43416
43604
43786
43966
44144
44334
44542
44768
45006
45248
45482
45716
45948
46172
46386
46602
46814
47026
47234
47436
47636
47834
48030
48228
48424
48620
48822
49034
49256
49482
49706
49918
50122
50322
50520
50722
50920
51120
51320
51516
51714
51914
52112
52320
52526
52734
52942
53146
53354
53558
53758
53956
54150
54342
54528
54710
54894
55080
55272
55474
55676
55884
56086
56296
56502
56706
56908
57108
57308
57496
57680
57860
58038
58214
58394
58578
58796
59044
59304
59576
59850
60118
60382
60636
60882
61118
61354
61580
61794
62008
62220
62428
62636
62840
63040
63242
63438
63636
63842
64052
64256
64466
64672
64886
65098
65308
65518
65730
65946
66170
66400
66634
66866
67094
67328
67562
67796
68026
68248
68468
68678
68892
69100
69316
69536
69768
70002
70232
70470
70696
70916
71130
71334
71532
71728
71924
72126
72344
72570
72796
73014
73224
73432
73640
73844
74058
74272
74488
74706
74922
75132
75338
75542
75742
75948
76146
76344
76536
76732
76924
77124
77328
77540
77756
77978
78194
78404
78610
78806
79000
79190
79376
79562
79738
79918
80100
80278
80464
80654
80850
81056
81280
81508
81724
81940
82150
82356
82562
82764
82962
83160
83356
83556
83762
83980
84204
84436
84674
84908
85140
85366
85590
85812
86030
86244
86452
86654
86866
87064
87250
87436
87620
87806
87982
88158
88334
88510
88690
88868
89050
89234
89422
89610
89804
89996
90194
90392
90592
90794
90990
91188
91384
91580
91776
91970
92166
92362
92550
92736
92924
93112
93306
93496
93682
93866
94052
94244
94448
94668
94896
95126
95358
95594
95830
96062
96286
96506
96726
96956
97192
97424
97646
97870
98098
98324
98556
98788
99018
99248
99484
99720
99950
100174
100402
100626
100846
101066
101286
101518
101744
101964
102176
102378
102584
102786
103002
103216
103434
103650
103870
104092
104316
104542
104766
104986
105202
105414
105634
105864
106102
106342
106578
106808
107026
107238
107442
107642
107858
108080
108312
108540
108764
108990
109210
109434
109648
109860
110068
110270
110476
110680
110888
111104
111332
111574
111812
112042
112260
112472
112682
112888
113086
113284
113478
113672
113870
114080
114294
114504
114720
114930
115140
115344
115548
115752
115954
116164
116366
116562
116756
116946
117140
117332
117524
117722
117930
118138
118352
118566
118774
118980
119178
119372
119562
119752
119944
120138
120330
120520
120708
120898
121090
121280
121468
121656
121848
122046
122248
122448
122658
122858
123068
123272
123478
123680
123882
124086
124292
124512
124736
124960
125182
125398
125610
125816
126014
126208
126402
126598
126802
127004
127206
127412
127632
127856
128078
128302
128520
128734
128944
129152
129350
129546
129740
129940
130138
130342
130548
130762
130980
131202
131422
131638
131850
132060
132268
132480
132696
132904
133112
133314
133508
133698
133878
134064
134244
134438
134648
134854
135062
135276
135498
135724
135946
136162
136368
136578
136774
136970
137160
137358
137562
137772
137974
138174
138370
138556
138746
138932
139120
139302
139488
139680
139874
140074
140284
140498
140714
140926
141130
141338
141532
141720
141908
142090
142270
142450
142630
142816
143008
143204
143406
143614
143822
144036
144258
144484
144706
144926
145140
145348
145554
145748
145946
146132
146324
146514
146702
146892
147084
147284
147500
147730
147964
148198
148428
148654
148870
149082
149286
149482
149680
149876
150080
150286
150492
150700
150904
151110
151316
151522
151736
151952
152174
152402
152628
152850
153066
153280
153486
153696
153906
154128
154360
154606
154860
155114
155358
155590
155804
156012
156220
156430
156652
156870
157092
157316
157532
157742
157946
158146
158344
158544
158750
158976
159220
159478
159740
159996
160238
160474
160700
160930
161160
161382
161596
161804
162012
162228
162444
162668
162880
163094
163296
163500
163702
163904
164108
164314
164528
164746
164972
165204
165440
165674
165898
166128
166360
166586
166818
167038
167248
167458
167664
167878
168100
168332
168572
168818
169054
169284
169506
169726
169946
170164
170374
170576
170774
170970
171166
171362
171570
171798
172026
172258
172492
172724
172956
173184
173412
173632
173842
174048
174252
174458
174672
174896
175122
175350
175580
175806
176028
176246
176460
176668
176878
177084
177296
177500
177704
177904
178108
178310
178510
178714
178918
179114
179308
179504
179702
179904
180114
180324
180536
180750
180964
181178
181394
181606
181818
182028
182234
182442
182646
182848
183048
183244
183432
183620
183810
184008
184216
184424
184638
184848
185062
185266
185468
185662
185858
186052
186246
186446
186648
186852
187052
187248
187444
187634
187824
188012
188202
188398
188598
188804
189012
189224
189442
189652
189868
190080
190290
190498
190700
190894
191086
191274
191458
191640
191828
192008
192182
192368
192548
192730
192912
193092
193270
193446
193626
193804
193982
194158
194330
194502
194674
194848
195022
195204
195390
195576
195762
195946
196132
196318
196502
196694
196880
197070
197260
197452
197638
197828
198016
198204
198394
198586
198770
198952
199128
199308
199494
199674
199864
200056
200260
200458
200670
200874
201076
201272
201462
201650
201840
202028
202216
202408
202600
202794
202988
203184
203382
203578
203774
203968
204164
204356
204544
204734
204920
205110
205290
205474
205658
205842
206030
206214
206398
206582
206764
206946
207126
207306
207484
207664
207844
208020
208200
208376
208554
208736
208920
209112
209306
209498
209698
209888
210078
210268
210454
210634
210822
211006
211194
211384
211576
211762
211946
212132
212326
212518
212716
212916
213110
213302
213488
213668
213846
214024
214206
214386
214578
214782
214988
215200
215408
215608
215816
216014
216210
216402
216588
216770
216950
217128
217308
217490
217678
217868
218058
218244
218430
218614
218796
218978
219158
219336
219516
219702
219898
220098
220300
220498
220694
220888
221084
221284
221490
221696
221900
222100
222304
222508
222708
222904
223098
223290
223486
223682
223876
224072
224264
224454
224644
224834
225022
225210
225400
225598
225800
226000
226198
226394
226586
226776
226972
227164
227352
227536
227716
227890
228062
228234
228406
228594
228786
228980
229178
229380
229574
229766
229958
230146
230330
230516
230702
230890
231084
231278
231480
231680
231888
232092
232292
232484
232678
232870
233064
233254
233442
233626
233812
233996
234178
234362
234552
234746
234942
235134
235324
235512
235698
235884
236070
236248
236432
236618
236798
236974
237152
237326
237500
237676
237856
238042
238236
238442
238656
238868
239074
239272
239476
239672
239868
240062
240256
240448
240636
240824
241012
241200
241390
241580
241772
241960
242144
242328
242512
242696
242882
243066
243246
243428
243602
243778
243954
244130
244308
244488
244668
244848
245032
245224
245428
245632
245836
246038
246236
246432
246624
246816
247008
247202
247398
247590
247784
247974
248160
248340
248528
248712
248902
249098
249286
249470
249664
249852
250038
250222
250404
250582
250754
250936
251108
251286
251468
251648
251832
252024
252222
252424
252620
252818
253008
253196
253388
253582
253778
253976
254172
254372
254570
254770
254968
255162
255356
255550
255746
255942
256138
256332
256522
256710
256892
257072
257252
257434
257618
257806
257992
258176
258364
258552
258738
258918
259096
259272
259450
259626
259804
259982
260166
260352
260538
260730
260920
261112
261304
261496
261690
261884
262078
262266
262450
262634
262820
263008
263200
263396
263596
263798
263998
264198
264396
264592
264784
264972
265156
265336
265514
265690
265864
266040
266222
266410
266608
266808
267008
267208
267406
267602
267792
267980
268168
268350
268532
268716
268900
269086
269270
269452
269650
269852
270060
270266
270466
270664
270860
271052
271244
271438
271634
271842
272044
272242
272436
272630
272822
273020
273212
273416
273608
273806
273990
274168
274348
274518
274694
274864
275038
275220
275406
275598
275796
276000
276198
276392
276578
276762
276942
277134
277322
277516
277710
277902
278092
278280
278464
278648
278834
279024
279218
279414
279612
279812
280014
280214
280416
280614
280814
281012
281204
281394
281580
281764
281946
282124
282304
282484
282666
282850
283036
283226
283418
283612
283806
284000
284194
284386
284578
284768
284956
285144
285330
285512
285692
285874
286060
286246
286434
286618
286798
286978
287156
287330
287504
287676
287848
288022
288196
288372
288552
288736
288924
289114
289300
289486
289674
289864
290056
290250
290444
290638
290830
291018
291206
291392
291574
291756
291934
292112
292290
292472
292658
292848
293036
293224
293410
293596
293782
293970
294160
294356
294560
294766
294970
295172
295372
295570
295764
295954
296146
296332
296526
296712
296908
297102
297294
297484
297674
297864
298056
298248
298440
298632
298822
299012
299198
299386
299574
299764
299956
300146
300334
300526
300712
300900
301090
301276
301458
301638
301824
302012
302204
302394
302588
302786
302984
303178
303374
303564
303756
303952
304154
304350
304544
304736
304928
305116
305304
305486
305674
305858
306048
306244
306444
306644
306846
307046
307246
307444
307640
307836
308032
308226
308420
308616
308812
309004
309210
309414
309624
309832
310042
310250
310456
310664
310870
311076
311278
311490
311694
311894
312092
312284
312472
312660
312840
313018
313206
313388
313574
313754
313938
314122
314310
314502
314694
314886
315082
315274
315466
315654
315840
316026
316206
316392
316580
316774
316968
317164
317362
317554
317746
317942
318142
318342
318542
318738
318932
319122
319310
319494
319680
319866
320052
320240
320426
320614
320804
320994
321180
321368
321556
321750
321944
322140
322340
322536
322738
322940
323144
323346
323546
323742
323932
324116
324300
324490
324684
324882
325078
325278
325478
325678
325880
326080
326280
326474
326666
326854
327042
327232
327424
327616
327812
328010
328210
328404
328594
328778
328960
329150
329336
329524
329714
329904
330092
330278
330468
330664
330854
331042
331228
331412
331596
331780
331964
332148
332334
332522
332710
332898
333082
333268
333450
333630
333812
333996
334182
334368
334558
334750
334944
335140
335334
335528
335720
335912
336100
336290
336480
336668
336856
337038
337230
337414
337596
337780
337962
338146
338328
338512
338696
338882
339072
339256
339442
339628
339808
339992
340178
340364
340564
340762
340956
341150
341342
341534
341726
341924
342122
342322
342520
342716
342914
343108
343300
343488
343672
343862
344056
344252
344448
344654
344850
345044
345238
345430
345622
345818
346016
346220
346430
346642
346848
347050
347246
347438
347626
347810
347996
348182
348376
348576
348776
348980
349180
349378
349572
349762
349954
350144
350336
350530
350726
350920
351120
351316
351504
351688
351874
352060
352246
352434
352618
352802
352984
353164
353344
353526
353708
353894
354082
354272
354462
354654
354844
355038
355234
355432
355624
355814
356000
356184
356368
356552
356738
356928
357120
357310
357502
357692
357884
358072
358264
358454
358648
358844
359040
359234
359424
359614
359800
359988
360172
360352
360536
360724
360912
361106
361292
361472
361650
361828
362002
362176
362346
362532
362718
362904
363088
363266
363452
363636
363818
364012
364204
364400
364598
364796
364994
365190
365384
365580
365774
365970
366156
366344
366530
366720
366914
367110
367300
367490
367680
367870
368064
368262
368458
368674
368900
369130
369362
369586
369800
370004
370204
370398
370590
370780
370968
371156
371348
371546
371756
371974
372192
372406
372616
372822
373028
373240
373462
373682
373896
374110
374316
374514
374712
374912
375108
375304
375500
375696
375884
376080
376270
376466
376660
376850
377036
377218
377396
377578
377768
377964
378156
378352
378546
378742
378936
379134
379334
379542
379752
379970
380194
380424
380646
380862
381070
381276
381484
381694
381906
382120
382332
382538
382736
382930
383126
383324
383520
383716
383920
384130
384338
384544
384746
384942
385138
385334
385526
385718
385904
386088
386274
386466
386658
386848
387038
387230
387420
387616
387822
388032
388246
388462
388678
388898
389112
389330
389546
389758
389968
390170
390370
390564
390756
390946
391140
391336
391546
391772
392000
392224
392450
392674
392892
393100
393304
393504
393696
393886
394070
394254
394452
394648
394852
395058
395266
395478
395692
395904
396118
396330
396546
396762
396974
397182
397384
397584
397776
397974
398162
398348
398532
398714
398892
399070
399246
399422
399600
399784
399964
400146
400328
400514
400700
400888
401074
401262
401446
401632
401820
402006
402192
402380
402570
402758
402940
403124
403306
403490
403678
403854
404032
404208
404384
404554
404722
404888
405048
405218
405390
405562
405736
405904
406072
406234
406400
406568
406742
406920
407100
407278
407458
407634
407808
407980
408150
408322
408490
408662
408840
409012
409178
409344
409504
409666
409830
410000
410166
410338
410522
410712
410908
411110
411310
411520
411722
411924
412128
412320
412524
412718
412922
413116
413316
413516
413714
413902
414092
414280
414468
414658
414840
415020
415198
415380
415568
415756
415954
416146
416336
416522
416706
416890
417076
417264
417450
417638
417826
418020
418212
418404
418596
418786
418980
419164
419344
419528
419712
419902
420096
420296
420502
420710
420914
421114
421312
421514
421718
421926
422134
422336
422536
422728
422928
423132
423346
423570
423800
424038
424272
424486
424706
424930
425158
425364
425572
425780
425984
426188
426396
426594
426786
426972
427158
427346
427538
427730
427924
428118
428316
428518
428724
428932
429128
429326
429532
429732
429936
430142
430350
430556
430770
430982
431196
431408
431622
431840
432060
432284
432512
432728
432960
433196
433440
433686
433932
434166
434386
434606
434832
435068
435308
435550
435800
436052
436300
436532
436770
437006
437242
437478
437708
437936
438160
438380
438598
438810
439018
439226
439424
439618
439810
440002
440198
440406
440618
440836
441066
441312
441566
441816
442062
442294
442520
442746
442968
443184
443398
443608
443810
444022
444242
444476
444714
444954
445196
445448
445700
445928
446156
446382
446606
446826
447040
447254
447462
447670
447878
448088
448298
448510
448726
448966
449218
449476
449724
449962
450188
450414
450652
450906
451166
451424
451676
451932
452186
452436
452682
452926
453168
453414
453638
453862
454086
454314
454548
454782
455018
455242
455462
455688
455924
456172
456410
456654
456890
457128
457364
457606
457846
458076
458302
458526
458750
458976
459202
459432
459662
459884
460114
460356
460604
460854
461090
461324
461546
461768
461988
462210
462430
462652
462878
463118
463356
463588
463816
464044
464266
464480
464692
464900
465112
465334
465564
465798
466032
466268
466502
466740
466986
467228
467478
467724
467960
468188
468408
468634
468860
469094
469332
469576
469814
470050
470284
470520
470754
470986
471216
471438
471656
471864
472070
472278
472486
472696
472910
473126
473340
473556
473770
473978
474184
474388
474590
474790
474988
475184
475382
475584
475788
475990
476188
476386
476586
476794
477004
477228
477458
477680
477898
478124
478354
478578
478794
479004
479212
479418
479628
479842
480062
480284
480502
480718
480926
481134
481332
481532
481724
481922
482120
482320
482512
482702
482906
483128
483368
483608
483844
484076
484300
484518
484730
484930
485128
485324
485520
485720
485924
486128
486334
486540
486750
486962
487170
487386
487604
487832
488062
488286
488504
488718
488924
489126
489326
489528
489744
489984
490242
490506
490770
491034
491288
491532
491766
492000
492238
492484
492732
492980
493220
493452
493684
493920
494160
494402
494644
494892
495140
495390
495634
495876
496102
496326
496554
496796
497044
497288
497528
497766
497992
498214
498440
498676
498920
499160
499400
499644
499892
500142
500398
500648
500882
501112
501334
501554
501772
501984
502192
502400
502608
502814
503026
503238
503448
503652
503864
504068
504284
504490
504706
504928
505146
505364
505576
505790
506002
506212
506420
506624
506826
507028
507224
507420
507612
507804
507996
508188
508388
508578
508780
508974
509172
509368
509560
509750
509936
510124
510302
510488
510678
510878
511084
511300
511520
511746
511990
512244
512500
512756
513006
513240
513466
513692
513924
514170
514424
514678
514928
515156
515380
515598
515810
516022
516234
516452
516662
516872
517072
517290
517508
517740
517962
518188
518412
518636
518858
519074
519286
519496
519698
519900
520098
520298
520502
520708
520918
521134
521348
521564
521768
521976
522180
522382
522580
522782
522992
523196
523410
523622
523844
524078
524308
524544
524782
525022
525260
525492
525712
525928
526146
526368
526590
526812
527026
527230
527434
527640
527858
528094
528346
528608
528868
529116
529360
529600
529834
530056
530260
530468
530678
530888
531102
531312
531522
531738
531966
532206
532446
532684
532910
533133
533352
533570
533782
533992
534202
534414
534624
534838
535060
535290
535522
535758
535988
536220
536456
536698
536940
537180
537420
537656
537882
538100
538312
538528
538752
538984
539232
539492
539754
540012
540268
540522
540772
541022
541276
541526
541766
541998
542222
542444
542670
542904
543146
543380
543608
543838
544080
544326
544574
544822
545070
545312
545540
545760
545978
546192
546402
546616
546826
547040
547258
547486
547728
547970
548212
548462
548708
548950
549184
549410
549630
549850
550076
550308
550550
550790
551020
551252
551486
551716
551948
552182
552420
552662
552914
553172
553428
553678
553922
554162
554394
554620
554842
555078
555330
555598
555866
556122
556370
556616
556856
557096
557326
557552
557768
557996
558238
558488
558734
558974
559212
559444
559666
559880
560094
560310
560524
560736
560948
561164
561382
561600
561818
562040
562256
562466
562670
562872
563074
563280
563486
563694
563904
564116
564328
564542
564750
564958
565162
565368
565570
565766
565966
566172
566378
566596
566814
567050
567280
567514
567742
567966
568192
568420
568648
568872
569082
569288
569494
569704
569924
570164
570412
570660
570902
571124
571342
571558
571774
571982
572192
572396
572604
572826
573058
573298
573536
573768
573990
574210
574432
574648
574858
575074
575290
575518
575746
575970
576206
576454
576706
576958
577196
577436
577678
577928
578180
578442
578710
578978
579242
579504
579748
579984
580216
580454
580698
580942
581178
581404
581632
581856
582082
582314
582552
582802
583058
583322
583594
583870
584136
584388
584636
584880
585116
585348
585572
585792
586016
586236
586464
586696
586930
587162
587388
587612
587832
588044
588254
588470
588700
588950
589212
589478
589742
590004
590258
590506
590740
590982
591232
591494
591752
592000
592244
592490
592734
592978
593226
593484
593750
594006
594250
594498
594742
594992
595242
595492
595730
595964
596192
596418
596640
596860
597074
597292
597514
597728
597940
598154
598374
598600
598840
599074
599304
599538
599776
600026
600278
600544
600814
601060
601310
601556
601794
602024
602252
602472
602686
602900
603112
603324
603538
603752
603966
604176
604382
604584
604782
604984
605178
605384
605584
605792
606010
606232
606448
606668
606894
607130
607362
607600
607842
608084
608316
608542
608754
608962
609166
609372
609576
609776
609976
610174
610376
610582
610794
611010
611220
611442
611678
611922
612156
612378
612594
612804
613018
613242
613480
613722
613970
614222
614472
614722
614964
615206
615442
615672
615904
616134
616360
616588
616806
617030
617250
617468
617688
617908
618132
618360
618582
618798
619008
619212
619416
619624
619830
620036
620250
620472
620682
620908
621120
621324
621536
621755
621978
622212
622448
622682
622902
623112
623316
623514
623716
623918
624130
624352
624578
624802
625028
625258
625490
625716
625934
626146
626354
626560
626764
626972
627186
627392
627598
627802
628010
628212
628416
628626
628854
629092
629330
629560
629790
630018
630248
630478
630708
630942
631176
631410
631642
631868
632086
632300
632520
632748
632982
633220
633456
633692
633924
634152
634370
634586
634802
635016
635234
635446
635664
635880
636102
636326
636546
636776
637010
637248
637476
637708
637944
638178
638402
638630
638854
639080
639310
639546
639788
640040
640294
640542
640786
641026
641266
641498
641732
641970
642210
642440
642670
642904
643140
643372
643600
643828
644058
644288
644518
644740
644966
645190
645404
645616
645832
646048
646264
646472
646686
646916
647162
647414
647662
647912
648154
648396
648628
648862
649098
649332
649568
649806
650042
650268
650492
650716
650944
651172
651396
651614
651834
652058
652286
652532
652778
653026
653270
653514
653752
653986
654218
654454
654696
654938
655182
655422
655656
655882
656100
656312
656520
656732
656952
657182
657424
657674
657922
658162
658390
658616
658840
659066
659280
659494
659706
659912
660120
660334
660556
660784
661018
661262
661514
661766
662018
662260
662496
662736
662976
663224
663484
663744
664002
664254
664496
664734
664966
665198
665432
665670
665902
666134
666370
666606
666838
667066
667284
667506
667718
667942
668172
668406
668642
668878
669108
669334
669556
669770
669984
670208
670448
670698
670956
671210
671456
671700
671946
672194
672448
672706
672966
673222
673474
673724
673968
674204
674438
674668
674898
675138
675374
675614
675860
676114
676370
676618
676854
677078
677302
677526
677750
677980
678216
678454
678692
678936
679176
679420
679666
679906
680138
680366
680598
680830
681068
681318
681576
681834
682084
682324
682556
682788
683020
683252
683480
683702
683922
684146
684384
684632
684878
685112
685342
685582
685830
686080
686332
686580
686836
687090
687342
687588
687828
688066
688304
688542
688776
689020
689276
689546
689812
690078
690342
690602
690860
691120
691378
691634
691886
692130
692368
692608
692852
693104
693364
693622
693878
694136
694402
694670
694934
695196
695458
695722
695990
696260
696534
696802
697064
697326
697588
697848
698100
698354
698606
698840
699064
699290
699512
699738
699954
700166
700376
700588
700800
701012
701222
701438
701664
701898
702136
702370
702596
702824
703050
703286
703524
703762
704000
704236
704474
704730
705002
705282
705562
705842
706118
706382
706636
706878
707120
707360
707602
707846
708086
708326
708568
708818
709080
709348
709620
709892
710156
710412
710666
710926
711192
711456
711712
711962
712214
712458
712708
712956
713198
713436
713672
713910
714150
714376
714604
714834
715062
715292
715524
715756
715992
716232
716478
716730
716980
717228
717472
717712
717952
718188
718420
718646
718862
719074
719284
719490
719692
719900
720102
720312
720510
720718
720928
721142
721354
721562
721772
721976
722182
722386
722598
722828
723080
723340
723598
723856
724108
724356
724596
724824
725046
725270
725504
725748
725990
726238
726488
726734
726978
727216
727458
727710
727974
728232
728482
728710
728934
729168
729416
729670
729920
730156
730380
730600
730826
731060
731304
731556
731806
732054
732308
732572
732836
733102
733362
733624
733884
734136
734390
734648
734912
735176
735440
735700
735956
736198
736438
736680
736928
737170
737412
737658
737908
738160
738410
738658
738904
739158
739410
739660
739916
740182
740454
740706
740950
741198
741452
741704
741948
742192
742428
742666
742912
743168
743426
743688
743950
744214
744466
744720
744976
745234
745496
745760
746030
746300
746564
746824
747088
747352
747606
747854
748088
748328
748568
748810
749048
749284
749524
749768
750012
750252
750484
750720
750966
751212
751466
751728
751996
752268
752546
752820
753084
753344
753590
753824
754052
754280
754508
754748
755000
755264
755532
755798
756058
756314
756568
756822
757082
757346
757606
757862
758106
758346
758586
758842
759120
759404
759692
759980
760258
760522
760776
761018
761256
761484
761706
761938
762180
762436
762706
762978
763236
763480
763714
763942
764162
764380
764600
764818
765040
765262
765486
765708
765926
766142
766356
766570
766784
767002
767222
767438
767654
767868
768084
768300
768516
768734
768956
769178
769400
769626
769856
770096
770336
770576
770814
771044
771266
771486
771710
771938
772174
772422
772682
772926
773182
773420
773652
773886
774118
774348
774576
774798
775018
775238
775462
775696
775938
776178
776430
776692
776950
777200
777444
777676
777910
778132
778350
778562
778778
779000
779230
779464
779700
779926
780156
780390
780626
780856
781078
781296
781516
781736
781958
782190
782434
782682
782930
783180
783434
783690
783940
784182
784418
784654
784884
785118
785356
785596
785834
786070
786306
786530
786748
786966
787188
787412
787638
787866
788092
788314
788542
788780
789032
789286
789534
789776
790014
790248
790484
790722
790960
791192
791428
791668
791918
792172
792426
792666
792894
793118
793340
793570
793802
794040
794276
794508
794726
794944
795158
795378
795606
795842
796074
796298
796522
796748
796978
797208
797440
797668
797890
798114
798346
798592
798846
799100
799358
799616
799872
800126
800374
800620
800864
801106
801342
801574
801808
802050
802304
802568
802836
803102
803364
803618
803866
804118
804360
804592
804820
805046
805268
805490
805718
805956
806198
806438
806680
806932
807176
807418
807660
807890
808120
808346
808578
808812
809052
809296
809526
809748
809968
810188
810420
810660
810900
811144
811382
811622
811854
812088
812328
812572
812814
813048
813278
813502
813728
813964
814204
814448
814688
814922
815152
815376
815596
815810
816018
816226
816438
816654
816876
817098
817324
817548
817760
817978
818200
818416
818636
818858
819082
819304
819522
819734
819946
820158
820376
820596
820820
821054
821296
821538
821778
822010
822236
822458
822672
822880
823094
823316
823542
823778
824018
824262
824506
824742
824976
825206
825438
825672
825908
826142
826370
826590
826806
827022
827242
827466
827688
827914
828136
828354
828572
828786
828996
829214
829428
829636
829854
830072
830294
830518
830744
830968
831190
831416
831644
831870
832092
832314
832532
832748
832966
833182
833400
833618
833834
834052
834272
834490
834712
834928
835144
835364
835590
835824
836064
836308
836552
836796
837046
837294
837538
837784
838040
838302
838562
838824
839084
839328
839562
839790
840020
840250
840486
840738
840992
841248
841500
841750
842000
842252
842492
842730
842964
843204
843448
843690
843934
844178
844424
844674
844922
845164
845400
845630
845858
846086
846324
846570
846826
847094
847364
847620
847854
848080
848302
848524
848750
848976
849198
849426
849660
849906
850158
850408
850658
850904
851142
851374
851602
851836
852078
852316
852560
852820
853084
853348
853606
853864
854122
854384
854650
854918
855182
855446
855708
855970
856232
856498
856762
857018
857260
857484
857720
857968
858220
858470
858726
858986
859242
859500
859756
860008
860262
860520
860782
861046
861302
861552
861796
862040
862280
862504
862718
862932
863146
863370
863614
863872
864136
864398
864650
864902
865162
865424
865688
865954
866218
866484
866746
866998
867244
867494
867754
868016
868274
868542
868810
869072
869332
869578
869822
870064
870310
870562
870812
871064
871306
871544
871778
872008
872244
872486
872730
872962
873192
873416
873634
873852
874058
874268
874474
874678
874886
875098
875312
875524
875736
875950
876166
876380
876590
876790
876988
877188
877388
877590
877804
878044
878294
878556
878812
879068
879318
879564
879804
880042
880274
880500
880720
880940
881158
881382
881616
881858
882104
882350
882592
882834
883072
883310
883548
883790
884032
884266
884490
884704
884910
885128
885356
885592
885830
886066
886308
886552
886790
887026
887254
887480
887704
887922
888134
888350
888572
888806
889050
889296
889542
889786
890030
890264
890498
890738
890974
891208
891438
891660
891876
892086
892298
892508
892720
892934
893146
893352
893558
893760
893962
894162
894366
894570
894770
894980
895190
895404
895626
895850
896078
896304
896520
896740
896950
897148
897362
897554
897742
897936
898120
898300
898482
898664
898846
899034
899228
899432
899646
899868
900102
900342
900578
900810
901036
901264
901484
901706
901932
902158
902384
902614
902844
903066
903286
903498
903708
903922
904136
904350
904564
904782
905006
905226
905446
905652
905864
906084
906318
906570
906832
907084
907326
907580
907840
908076
908302
908522
908738
908938
909146
909360
909596
909850
910110
910370
910618
910856
911080
911308
911546
911796
912046
912294
912532
912772
913014
913254
913488
913718
913952
914192
914440
914692
914942
915192
915436
915680
915928
916166
916382
916596
916806
917016
917240
917484
917746
918012
918274
918528
918766
918992
919214
919438
919664
919890
920114
920336
920564
920802
921050
921302
921564
921832
922100
922364
922622
922882
923144
923410
923678
923938
924188
924432
924680
924928
925170
925412
925648
925888
926134
926374
926598
926824
927056
927288
927536
927790
928048
928302
928550
928792
929034
929284
929544
929804
930050
930290
930530
930776
931026
931276
931522
931762
931920
932208
932438
932666
932890
933116
933348
933580
933816
934050
934276
934492
934708
934928
935162
935410
935666
935928
936192
936450
936698
936942
937188
937436
937688
937948
938206
938466
938722
938968
939196
939416
939640
939868
940104
940346
940592
940828
941062
941300
941540
941778
942022
942266
942510
942750
942992
943238
943482
943720
943944
944166
944394
944628
944866
945106
945344
945578
945806
946032
946258
946488
946732
946990
947260
947534
947808
948074
948336
948594
948842
949078
949308
949536
949760
949984
950210
950438
950664
950886
951102
951322
951550
951786
952024
952266
952512
952760
953008
953254
953498
953740
953982
954226
954464
954694
954930
955162
955388
955610
955834
956060
956294
956530
956770
957014
957256
957488
957730
957976
958222
958464
958698
958924
959142
959358
959572
959782
959998
960228
960466
960710
960958
961208
961448
961694
961960
962228
962492
962748
963010
963272
963534
963792
964044
964292
964540
964792
965046
965298
965550
965808
966066
966320
966570
966820
967066
967306
967536
967768
968010
968266
968518
968768
969008
969248
969488
969722
969952
970188
970424
970652
970878
971100
971318
971538
971756
971968
972176
972376
972574
972766
972958
973152
973354
973566
973786
974014
974242
974476
974702
974924
975140
975356
975574
975782
975992
976208
976438
976672
976910
977146
977376
977604
977830
978054
978278
978504
978732
978956
979174
979382
979590
979798
980006
980218
980432
980644
980852
981054
981252
981452
981650
981854
982060
982270
982486
982706
982928
983154
983382
983608
983830
984056
984280
984512
984746
984986
985234
985482
985726
985970
986216
986458
986692
986916
987138
987358
987580
987806
988034
988274
988518
988764
989006
989244
989480
989714
989942
990172
990412
990662
990916
991164
991400
991634
991862
992090
992316
992542
992768
992992
993208
993428
993654
993884
994114
994344
994572
994800
995028
995256
995488
995728
995972
996216
996458
996694
996922
997142
997366
997588
997814
998038
998264
998496
998736
998980
999220
999452
999682
999910
1000130
1000346
1000564
1000786
1001012
1001234
1001456
1001684
1001916
1002152
1002392
1002630
1002856
1003082
1003306
1003528
1003746
1003966
1004186
1004404
1004626
1004858
1005096
1005338
1005580
1005818
1006052
1006282
1006508
1006734
1006958
1007182
1007408
1007628
1007848
1008074
1008312
1008552
1008792
1009022
1009246
1009462
1009672
1009878
1010086
1010290
1010496
1010704
1010918
1011130
1011354
1011584
1011832
1012076
1012316
1012548
1012774
1012998
1013218
1013436
1013654
1013872
1014092
1014314
1014536
1014758
1014978
1015200
1015420
1015638
1015862
1016084
1016312
1016544
1016772
1016988
1017216
1017448
1017686
1017926
1018150
1018372
1018594
1018818
1019040
1019260
1019480
1019698
1019912
1020122
1020334
1020548
1020758
1020966
1021172
1021374
1021576
1021778
1021976
1022174
1022372
1022568
1022764
1022960
1023156
1023352
1023548
1023748
1023946
1024142
1024338
1024534
1024732
1024918
1025108
1025298
1025488
1025676
1025864
1026050
1026238
1026424
1026606
1026788
1026974
1027150
1027330
1027510
1027694
1027878
1028064
1028258
1028458
1028664
1028866
1029070
1029276
1029482
1029686
1029892
1030098
1030300
1030502
1030700
1030898
1031100
1031304
1031508
1031708
1031916
1032124
1032330
1032536
1032736
1032936
1033136
1033334
1033526
1033720
1033904
1034092
1034276
1034456
1034634
1034814
1034994
1035176
1035360
1035550
1035744
1035942
1036138
1036334
1036534
1036724
1036918
1037114
1037308
1037502
1037698
1037904
1038110
1038314
1038514
1038716
1038920
1039124
1039328
1039526
1039730
1039938
1040148
1040364
1040578
1040794
1041006
1041216
1041430
1041650
1041876
1042096
1042314
1042536
1042766
1042998
1043230
1043454
1043672
1043888
1044108
1044326
1044540
1044750
1044962
1045172
1045386
1045598
1045820
1046044
1046264
1046484
1046706
1046930
1047154
1047382
1047604
1047818
1048026
1048230
1048428
1048622
1048814
1049008
1049202
1049398
1049604
1049820
1050040
1050266
1050492
1050720
1050946
1051170
1051382
1051592
1051800
1052008
1052222
1052448
1052682
1052912
1053148
1053384
1053614
1053838
1054064
1054288
1054510
1054728
1054950
1055174
1055402
1055634
1055864
1056096
1056328
1056564
1056804
1057034
1057266
1057502
1057736
1057968
1058196
1058410
1058616
1058820
1059022
1059220
1059422
1059636
1059864
1060098
1060340
1060588
1060834
1061072
1061310
1061546
1061778
1062004
1062228
1062458
1062690
1062924
1063152
1063378
1063596
1063816
1064036
1064260
1064494
1064722
1064946
1065166
1065380
1065598
1065826
1066056
1066284
1066510
1066736
1066960
1067180
1067396
1067604
1067814
1068022
1068236
1068452
1068664
1068886
1069104
1069326
1069552
1069778
1070004
1070220
1070434
1070648
1070862
1071080
1071302
1071518
1071736
1071958
1072182
1072416
1072650
1072882
1073110
1073328
1073540
1073750
1073960
1074174
1074398
1074634
1074880
1075132
1075376
1075614
1075844
1076064
1076280
1076498
1076704
1076906
1077108
1077300
1077500
1077716
1077936
1078164
1078396
1078620
1078844
1079066
1079288
1079502
1079716
1079936
1080144
1080372
1080612
1080860
1081106
1081344
1081576
1081808
1082042
1082286
1082538
1082792
1083050
1083310
1083572
1083832
1084076
1084314
1084544
1084772
1085008
1085252
1085498
1085736
1085968
1086206
1086452
1086688
1086926
1087164
1087396
1087634
1087876
1088124
1088370
1088612
1088850
1089092
1089340
1089594
1089840
1090092
1090348
1090602
1090856
1091106
1091356
1091606
1091850
1092088
1092318
1092546
1092770
1092988
1093210
1093440
1093676
1093920
1094164
1094412
1094666
1094920
1095172
1095416
1095658
1095898
1096140
1096386
1096632
1096870
1097106
1097336
1097572
1097812
1098054
1098296
1098532
1098762
1098980
1099188
1099392
1099598
1099804
1100016
1100236
1100458
1100688
1100922
1101160
1101402
1101642
1101884
1102112
1102336
1102556
1102778
1103002
1103226
1103444
1103660
1103870
1104080
1104296
1104516
1104742
1104986
1105244
1105502
1105758
1106006
1106246
1106482
1106714
1106948
1107188
1107434
1107674
1107910
1108148
1108386
1108624
1108856
1109090
1109326
1109568
1109816
1110068
1110322
1110574
1110824
1111076
1111336
1111596
1111858
1112114
1112368
1112620
1112868
1113116
1113354
1113596
1113828
1114062
1114296
1114528
1114754
1114982
1115210
1115436
1115664
1115898
1116136
1116376
1116624
1116872
1117112
1117340
1117564
1117798
1118040
1118276
1118510
1118752
1118992
1119234
1119474
1119710
1119942
1120170
1120386
1120598
1120812
1121032
1121266
1121506
1121752
1121998
1122246
1122492
1122736
1122970
1123198
1123424
1123658
1123900
1124148
1124402
1124654
1124904
1125148
1125384
1125616
1125846
1126074
1126304
1126532
1126762
1127000
1127242
1127484
1127718
1127952
1128190
1128426
1128664
1128896
1129124
1129354
1129586
1129814
1130044
1130272
1130504
1130730
1130950
1131168
1131388
1131610
1131832
1132058
1132286
1132520
1132754
1132990
1133226
1133462
1133696
1133926
1134152
1134374
1134600
1134816
1135032
1135256
1135502
1135758
1136012
1136262
1136506
1136750
1136986
1137220
1137450
1137680
1137910
1138138
1138366
1138588
1138800
1139016
1139234
1139458
1139688
1139916
1140150
1140382
1140610
1140832
1141052
1141270
1141490
1141708
1141920
1142138
1142368
1142612
1142866
1143130
1143394
1143652
1143904
1144146
1144380
1144606
1144830
1145050
1145268
1145490
1145720
1145940
1146152
1146364
1146578
1146796
1147014
1147234
1147462
1147692
1147926
1148160
1148398
1148642
1148890
1149140
1149390
1149628
1149852
1150074
1150296
1150520
1150752
1150986
1151218
1151450
1151680
1151914
1152146
1152384
1152626
1152862
1153102
1153344
1153590
1153836
1154076
1154314
1154540
1154772
1155010
1155254
1155492
1155726
1155960
1156188
1156420
1156658
1156900
1157142
1157382
1157618
1157850
1158076
1158298
1158522
1158746
1158962
1159172
1159378
1159588
1159808
1160036
1160272
1160512
1160752
1160986
1161218
1161450
1161678
1161898
1162110
1162330
1162550
1162772
1162992
1163202
1163408
1163614
1163824
1164044
1164268
1164492
1164710
1164926
1165142
1165362
1165586
1165806
1166038
1166264
1166490
1166712
1166934
1167158
1167384
1167612
1167848
1168088
1168332
1168572
1168806
1169030
1169256
1169482
1169712
1169944
1170178
1170406
1170636
1170860
1171086
1171312
1171538
1171754
1171972
1172200
1172432
1172668
1172902
1173132
1173360
1173574
1173786
1174002
1174220
1174440
1174660
1174878
1175092
1175302
1175516
1175738
1175966
1176196
1176420
1176638
1176856
1177076
1177298
1177520
1177742
1177964
1178190
1178418
1178650
1178886
1179122
1179354
1179580
1179802
1180022
1180246
1180470
1180702
1180934
1181164
1181390
1181616
1181842
1182068
1182294
1182520
1182738
1182954
1183170
1183386
1183604
1183822
1184038
1184250
1184460
1184658
1184856
1185058
1185264
1185482
1185710
1185948
1186184
1186418
1186646
1186870
1187086
1187298
1187506
1187712
1187918
1188132
1188364
1188608
1188858
1189110
1189362
1189610
1189854
1190096
1190334
1190570
1190808
1191040
1191266
1191484
1191698
1191908
1192116
1192322
1192544
1192760
1192978
1193190
1193396
1193600
1193808
1194022
1194250
1194484
1194708
1194922
1195142
1195370
1195612
1195864
1196108
1196344
1196580
1196818
1197062
1197302
1197534
1197758
1197982
1198212
1198444
1198684
1198926
1199166
1199400
1199634
1199866
1200092
1200324
1200564
1200818
1201070
1201312
1201546
1201774
1202000
1202222
1202446
1202666
1202886
1203106
1203326
1203558
1203796
1204032
1204268
1204502
1204742
1204984
1205228
1205466
1205700
1205928
1206154
1206382
1206610
1206838
1207066
1207294
1207526
1207760
1208000
1208244
1208488
1208726
1208960
1209192
1209424
1209652
1209878
1210104
1210334
1210572
1210808
1211044
1211280
1211514
1211750
1211986
1212222
1212458
1212692
1212922
1213156
1213386
1213616
1213844
1214072
1214302
1214534
1214762
1214988
1215222
1215458
1215698
1215940
1216180
1216416
1216646
1216866
1217088
1217310
1217534
1217766
1217994
1218222
1218448
1218668
1218882
1219096
1219312
1219532
1219750
1219974
1220208
1220452
1220700
1220940
1221172
1221394
1221614
1221836
1222060
1222288
1222516
1222742
1222962
1223176
1223384
1223588
1223788
1223988
1224180
1224376
1224582
1224820
1225068
1225318
1225570
1225812
1226048
1226280
1226498
1226708
1226912
1227116
1227324
1227538
1227752
1227966
1228178
1228384
1228588
1228792
1228998
1229198
1229400
1229606
1229804
1230008
1230214
1230424
1230630
1230834
1231036
1231244
1231464
1231696
1231932
1232170
1232406
1232638
1232862
1233082
1233302
1233518
1233734
1233948
1234158
1234374
1234596
1234826
1235058
1235292
1235522
1235754
1235988
1236222
1236448
1236674
1236902
1237130
1237352
1237566
1237772
1237974
1238182
1238400
1238632
1238878
1239128
1239378
1239620
1239854
1240082
1240306
1240528
1240754
1240984
1241220
1241454
1241682
1241912
1242148
1242378
1242604
1242830
1243062
1243298
1243534
1243770
1244006
1244238
1244472
1244702
1244922
1245142
1245364
1245598
1245834
1246072
1246308
1246540
1246774
1247002
1247228
1247454
1247676
1247894
1248114
1248338
1248564
1248794
1249024
1249256
1249490
1249724
1249952
1250178
1250396
1250612
1250824
1251042
1251270
1251498
1251736
1251978
1252222
1252464
1252702
1252932
1253158
1253378
1253596
1253816
1254040
1254272
1254502
1254734
1254962
1255192
1255410
1255632
1255856
1256084
1256308
1256526
1256742
1256944
1257148
1257352
1257560
1257776
1258000
1258230
1258464
1258692
1258916
1259138
1259354
1259572
1259782
1259988
1260194
1260400
1260610
1260822
1261036
1261250
1261466
1261680
1261896
1262112
1262334
1262560
1262788
1263012
1263234
1263450
1263654
1263856
1264056
1264258
1264460
1264662
1264866
1265072
1265284
1265500
1265724
1265950
1266174
1266390
1266608
1266828
1267052
1267278
1267500
1267716
1267926
1268138
1268354
1268572
1268798
1269020
1269244
1269468
1269694
1269920
1270146
1270366
1270586
1270814
1271046
1271286
1271528
1271774
1272020
1272268
1272512
1272756
1272994
1273224
1273448
1273668
1273888
1274110
1274344
1274582
1274818
1275052
1275288
1275524
1275762
1276000
1276232
1276462
1276690
1276910
1277128
1277348
1277574
1277804
1278034
1278272
1278510
1278744
1278974
1279204
1279432
1279664
1279892
1280116
1280334
1280556
1280778
1281002
1281228
1281456
1281678
1281896
1282110
1282328
1282546
1282766
1282990
1283220
1283458
1283696
1283928
1284156
1284382
1284602
1284822
1285044
1285270
1285498
1285734
1285970
1286206
1286450
1286692
1286932
1287160
1287376
1287580
1287788
1288000
1288208
1288414
1288630
1288848
1289072
1289302
1289536
1289770
1290002
1290228
1290448
1290658
1290866
1291076
1291292
1291518
1291746
1291976
1292212
1292448
1292690
1292938
1293194
1293450
1293704
1293954
1294196
1294434
1294670
1294908
1295150
1295398
1295648
1295898
1296138
1296380
1296620
1296860
1297102
1297346
1297580
1297812
1298046
1298286
1298530
1298776
1299020
1299262
1299498
1299730
1299956
1300186
1300422
1300660
1300894
1301120
1301346
1301568
1301788
1302010
1302236
1302452
1302660
1302862
1303062
1303264
1303476
1303692
1303914
1304136
1304356
1304572
1304790
1305016
1305256
1305506
1305762
1306018
1306274
1306528
1306778
1307024
1307260
1307488
1307708
1307928
1308148
1308376
1308604
1308830
1309054
1309274
1309494
1309720
1309948
1310174
1310402
1310626
1310852
1311082
1311312
1311538
1311762
1311978
1312188
1312396
1312604
1312818
1313030
1313248
1313482
1313730
1313982
1314228
1314468
1314702
1314932
1315158
1315382
1315608
1315834
1316060
1316284
1316498
1316708
1316914
1317122
1317336
1317560
1317790
1318026
1318262
1318496
1318726
1318950
1319168
1319380
1319586
1319794
1320012
1320236
1320464
1320694
1320924
1321154
1321388
1321624
1321856
1322082
1322306
1322526
1322744
1322960
1323170
1323378
1323590
1323798
1324002
1324202
1324402
1324602
1324808
1325012
1325224
1325436
1325658
1325886
1326118
1326356
1326588
1326820
1327048
1327266
1327484
1327704
1327928
1328154
1328378
1328592
1328802
1329008
1329214
1329422
1329636
1329856
1330070
1330282
1330490
1330700
1330912
1331130
1331348
1331566
1331784
1331996
1332206
1332418
1332630
1332848
1333068
1333286
1333500
1333710
1333914
1334118
1334322
1334534
1334744
1334954
1335166
1335380
1335604
1335822
1336042
1336262
1336496
1336734
1336972
1337210
1337442
1337664
1337886
1338112
1338340
1338574
1338806
1339036
1339262
1339490
1339712
1339932
1340152
1340374
1340594
1340818
1341040
1341260
1341478
1341688
1341900
1342116
1342340
1342574
1342806
1343030
1343244
1343456
1343672
1343890
1344110
1344332
1344554
1344774
1344988
1345196
1345402
1345608
1345818
1346024
1346234
1346448
1346674
1346914
1347160
1347400
1347630
1347856
1348080
1348300
1348518
1348738
1348956
1349176
1349396
1349612
1349826
1350044
1350272
1350510
1350742
1350964
1351184
1351404
1351626
1351848
1352070
1352294
1352514
1352732
1352950
1353172
1353390
1353610
1353834
1354052
1354272
1354498
1354714
1354934
1355160
1355398
1355642
1355886
1356124
1356356
1356584
1356808
1357026
1357248
1357468
1357694
1357920
1358158
1358404
1358656
1358908
1359152
1359380
1359610
1359830
1360056
1360286
1360506
1360726
1360946
1361170
1361402
1361634
1361866
1362096
1362322
1362550
1362768
1362984
1363202
1363426
1363654
1363884
1364114
1364342
1364570
1364802
1365036
1365266
1365494
1365716
1365932
1366154
1366384
1366618
1366854
1367080
1367304
1367528
1367754
1367976
1368200
1368420
1368640
1368864
1369086
1369308
1369532
1369758
1369984
1370206
1370424
1370638
1370848
1371056
1371258
1371464
1371680
1371902
1372142
1372388
1372636
1372882
1373116
1373342
1373562
1373780
1374002
1374230
1374458
1374678
1374904
1375128
1375356
1375588
1375818
1376040
1376262
1376482
1376702
1376918
1377130
1377346
1377570
1377806
1378046
1378284
1378516
1378752
1378982
1379216
1379446
1379682
1379922
1380162
1380390
1380612
1380832
1381054
1381274
1381494
1381710
1381924
1382140
1382362
1382594
1382834
1383082
1383336
1383588
1383834
1384080
1384326
1384566
1384806
1385042
1385262
1385474
1385682
1385892
1386106
1386326
1386548
1386774
1387002
1387230
1387456
1387682
1387902
1388114
1388326
1388532
1388738
1388936
1389132
1389324
1389520
1389720
1389918
1390116
1390324
1390536
1390756
1390976
1391198
1391422
1391646
1391872
1392102
1392332
1392560
1392788
1393020
1393250
1393482
1393718
1393960
1394202
1394446
1394688
1394934
1395184
1395438
1395682
1395926
1396174
1396426
1396678
1396930
1397180
1397416
1397656
1397896
1398136
1398358
1398582
1398810
1399042
1399280
1399516
1399750
1399982
1400210
1400426
1400646
1400870
1401092
1401316
1401542
1401764
1401984
1402198
1402412
1402624
1402838
1403056
1403286
1403516
1403748
1403980
1404216
1404444
1404666
1404880
1405092
1405304
1405522
1405732
1405946
1406162
1406384
1406614
1406846
1407080
1407312
1407538
1407766
1407990
1408218
1408448
1408684
1408916
1409138
1409362
1409588
1409810
1410026
1410240
1410454
1410666
1410878
1411090
1411306
1411528
1411756
1411986
1412226
1412470
1412718
1412970
1413222
1413474
1413722
1413962
1414198
1414438
1414684
1414934
1415192
1415452
1415712
1415966
1416216
1416466
1416720
1416976
1417230
1417480
1417732
1417980
1418224
1418452
1418682
1418906
1419136
1419362
1419592
1419822
1420052
1420284
1420512
1420744
1420968
1421198
1421428
1421658
1421894
1422130
1422366
1422590
1422820
1423050
1423286
1423522
1423766
1424012
1424252
1424490
1424726
1424960
1425196
1425432
1425666
1425894
1426122
1426352
1426578
1426802
1427028
1427266
1427514
1427764
1428008
1428246
1428476
1428700
1428922
1429138
1429354
1429576
1429798
1430020
1430244
1430466
1430688
1430906
1431132
1431358
1431584
1431814
1432046
1432278
1432500
1432714
1432922
1433132
1433344
1433562
1433784
1434010
1434230
1434450
1434670
1434892
1435114
1435334
1435552
1435762
1435964
1436170
1436372
1436568
1436772
1436966
1437166
1437364
1437560
1437756
1437956
1438166
1438382
1438606
1438836
1439066
1439298
1439528
1439756
1439982
1440208
1440436
1440668
1440888
1441114
1441354
1441596
1441830
1442062
1442292
1442514
1442728
1442938
1443140
1443338
1443536
1443736
1443940
1444154
1444370
1444592
1444828
1445074
1445324
1445572
1445822
1446072
1446318
1446554
1446786
1447014
1447242
1447472
1447698
1447936
1448178
1448416
1448654
1448892
1449122
1449352
1449580
1449810
1450044
1450280
1450514
1450746
1450970
1451184
1451398
1451612
1451828
1452042
1452260
1452478
1452696
1452916
1453134
1453350
1453570
1453794
1454026
1454262
1454498
1454730
1454960
1455192
1455426
1455662
1455902
1456144
1456384
1456632
1456880
1457130
1457374
1457620
1457866
1458104
1458326
1458536
1458746
1458962
1459186
1459424
1459670
1459910
1460136
1460350
1460566
1460788
1461014
1461242
1461464
1461688
1461914
1462136
1462356
1462572
1462788
1462994
1463204
1463418
1463636
1463856
1464080
1464306
1464536
1464772
1465012
1465250
1465482
1465714
1465948
1466190
1466430
1466666
1466900
1467132
1467368
1467612
1467854
1468096
1468340
1468576
1468812
1469044
1469274
1469502
1469726
1469946
1470164
1470384
1470606
1470832
1471058
1471288
1471518
1471752
1471984
1472220
1472454
1472690
1472928
1473174
1473418
1473660
1473902
1474142
1474380
1474620
1474864
1475110
1475356
1475600
1475842
1476078
1476306
1476528
1476750
1476954
1477184
1477398
1477612
1477832
1478054
1478274
1478498
1478710
1478918
1479122
1479332
1479546
1479762
1479982
1480204
1480434
1480660
1480884
1481110
1481334
1481562
1481792
1482020
1482244
1482460
1482670
1482878
1483084
1483290
1483492
1483692
1483892
1484096
1484296
1484498
1484700
1484904
1485104
1485308
1485526
1485752
1485976
1486192
1486402
1486610
1486818
1487026
1487228
1487430
1487636
1487844
1488058
1488276
1488498
1488726
1488954
1489188
1489424
1489656
1489886
1490112
1490334
1490556
1490772
1490984
1491192
1491396
1491604
1491822
1492046
1492280
1492526
1492774
1493020
1493262
1493500
1493738
1493972
1494208
1494442
1494670
1494882
1495100
1495312
1495524
1495734
1495942
1496150
1496360
1496568
1496772
1496976
1497178
1497380
1497582
1497790
1498000
1498212
1498434
1498660
1498892
1499120
1499348
1499572
1499796
1500026
1500250
1500472
1500700
1500930
1501162
1501394
1501626
1501860
1502098
1502344
1502592
1502844
1503106
1503368
1503616
1503852
1504088
1504322
1504554
1504784
1505014
1505236
1505464
1505698
1505934
1506176
1506422
1506668
1506908
1507140
1507364
1507576
1507784
1507986
1508192
1508404
1508628
1508852
1509084
1509318
1509554
1509788
1510014
1510236
1510454
1510668
1510872
1511076
1511284
1511502
1511726
1511958
1512194
1512434
1512670
1512904
1513132
1513358
1513588
1513828
1514076
1514332
1514586
1514834
1515076
1515312
1515548
1515786
1516026
1516266
1516494
1516720
1516954
1517198
1517440
1517680
1517922
1518162
1518400
1518630
1518858
1519092
1519324
1519558
1519800
1520048
1520296
1520544
1520794
1521042
1521290
1521532
1521774
1522016
1522256
1522496
1522736
1522976
1523222
1523466
1523710
1523948
1524180
1524410
1524642
1524878
1525124
1525374
1525626
1525872
1526120
1526364
1526602
1526838
1527074
1527308
1527538
1527760
1527976
1528196
1528416
1528640
1528874
1529114
1529358
1529598
1529836
1530068
1530296
1530514
1530732
1530952
1531172
1531396
1531624
1531858
1532098
1532340
1532582
1532834
1533066
1533304
1533528
1533754
1533976
1534196
1534412
1534628
1534848
1535074
1535306
1535540
1535778
1536016
1536252
1536480
1536710
1536942
1537180
1537422
1537674
1537924
1538172
1538418
1538658
1538896
1539134
1539380
1539630
1539880
1540132
1540384
1540634
1540880
1541124
1541370
1541612
1541854
1542104
1542364
1542624
1542884
1543142
1543398
1543650
1543904
1544166
1544432
1544704
1544978
1545246
1545504
1545758
1546006
1546254
1546502
1546756
1547008
1547258
1547508
1547758
1548006
1548252
1548506
1548760
1549010
1549266
1549510
1549738
1549970
1550202
1550444
1550694
1550950
1551202
1551454
1551708
1551958
1552206
1552462
1552714
1552962
1553212
1553464
1553714
1553958
1554204
1554452
1554698
1554940
1555186
1555428
1555666
1555906
1556146
1556384
1556622
1556862
1557100
1557334
1557566
1557800
1558040
1558280
1558532
1558786
1559042
1559298
1559554
1559810
1560060
1560308
1560558
1560808
1561054
1561300
1561546
1561788
1562024
1562258
1562492
1562722
1562948
1563174
1563398
1563620
1563840
1564068
1564300
1564536
1564772
1564994
1565210
1565422
1565636
1565848
1566060
1566274
1566488
1566698
1566910
1567118
1567326
1567530
1567732
1567930
1568134
1568336
1568540
1568744
1568952
1569166
1569382
1569596
1569806
1570016
1570226
1570438
1570650
1570862
1571080
1571300
1571526
1571744
1571968
1572188
1572412
1572632
1572852
1573074
1573298
1573528
1573766
1574006
1574244
1574476
1574712
1574946
1575170
1575384
1575596
1575812
1576036
1576264
1576492
1576722
1576944
1577164
1577390
1577620
1577856
1578096
1578336
1578574
1578820
1579070
1579320
1579570
1579818
1580060
1580304
1580548
1580796
1581046
1581292
1581534
1581770
1582006
1582238
1582476
1582704
1582928
1583148
1583368
1583586
1583802
1584020
1584236
1584452
1584664
1584874
1585082
1585288
1585490
1585692
1585894
1586102
1586308
1586520
1586738
1586958
1587180
1587402
1587624
1587848
1588076
1588304
1588522
1588732
1588938
1589136
1589334
1589530
1589724
1589916
1590110
1590304
1590504
1590712
1590932
1591162
1591390
1591608
1591830
1592036
1592244
1592450
1592654
1592856
1593060
1593254
1593446
1593640
1593832
1594024
1594212
1594398
1594584
1594772
1594960
1595154
1595356
1595562
1595772
1595978
1596188
1596394
1596596
1596790
1596986
1597176
1597364
1597550
1597740
1597924
1598114
1598296
1598484
1598670
1598850
1599034
1599218
1599400
1599582
1599766
1599952
1600144
1600340
1600542
1600752
1600964
1601178
1601388
1601594
1601796
1601994
1602192
1602392
1602596
1602806
1603020
1603236
1603450
1603662
1603874
1604088
1604298
1604506
1604714
1604922
1605130
1605342
1605554
1605768
1605988
1606210
1606434
1606652
1606872
1607090
1607300
1607506
1607710
1607906
1608106
1608300
1608494
1608688
1608880
1609070
1609260
1609450
1609638
1609828
1610020
1610208
1610402
1610596
1610798
1610990
1611184
1611380
1611574
1611766
1611958
1612150
1612354
1612550
1612746
1612946
1613160
1613372
1613594
1613812
1614026
1614234
1614442
1614653
1614858
1615068
1615274
1615484
1615698
1615910
1616126
1616344
1616560
1616766
1616978
1617190
1617408
1617624
1617834
1618036
1618234
1618436
1618636
1618838
1619042
1619246
1619458
1619688
1619940
1620188
1620436
1620680
1620920
1621154
1621390
1621626
1621866
1622104
1622338
1622576
1622812
1623054
1623298
1623546
1623794
1624038
1624276
1624510
1624732
1624958
1625180
1625406
1625626
1625848
1626070
1626290
1626505
1626724
1626946
1627176
1627414
1627662
1627924
1628176
1628436
1628696
1628950
1629200
1629440
1629668
1629898
1630134
1630378
1630630
1630878
1631122
1631356
1631578
1631798
1632024
1632258
1632500
1632742
1632980
1633212
1633440
1633670
1633900
1634128
1634350
1634570
1634796
1635026
1635264
1635502
1635734
1635958
1636172
1636378
1636580
1636788
1636998
1637218
1637444
1637680
1637926
1638174
1638424
1638672
1638920
1639168
1639416
1639658
1639902
1640148
1640398
1640644
1640890
1641136
1641382
1641624
1641862
1642094
1642324
1642554
1642790
1643034
1643272
1643504
1643732
1643956
1644184
1644410
1644636
1644862
1645082
1645304
1645528
1645752
1645980
1646208
1646434
1646662
1646890
1647118
1647348
1647580
1647814
1648042
1648276
1648506
1648734
1648952
1649168
1649382
1649600
1649814
1650038
1650262
1650482
1650700
1650916
1651138
1651366
1651606
1651858
1652120
1652380
1652648
1652912
1653176
1653434
1653690
1653944
1654196
1654438
1654674
1654906
1655138
1655368
1655596
1655822
1656048
1656272
1656504
1656740
1656976
1657210
1657438
1657668
1657900
1658126
1658342
1658560
1658780
1659004
1659234
1659468
1659710
1659952
1660194
1660436
1660674
1660906
1661134
1661364
1661598
1661838
1662074
1662312
1662560
1662810
1663060
1663310
1663558
1663808
1664056
1664304
1664550
1664802
1665050
1665300
1665550
1665798
1666052
1666310
1666568
1666828
1667086
1667342
1667596
1667836
1668066
1668306
1668550
1668798
1669050
1669302
1669550
1669800
1670052
1670306
1670562
1670820
1671080
1671336
1671592
1671846
1672092
1672328
1672564
1672794
1673018
1673232
1673444
1673662
1673884
1674110
1674342
1674582
1674824
1675066
1675306
1675548
1675790
1676026
1676260
1676502
1676752
1676998
1677242
1677484
1677726
1677970
1678210
1678452
1678698
1678938
1679182
1679428
1679672
1679916
1680160
1680404
1680642
1680872
1681102
1681322
1681540
1681762
1681988
1682214
1682442
1682668
1682896
1683130
1683370
1683614
1683860
1684102
1684340
1684562
1684784
1685002
1685224
1685442
1685656
1685868
1686080
1686294
1686510
1686730
1686962
1687200
1687446
1687694
1687944
1688190
1688438
1688672
1688904
1689128
1689342
1689550
1689748
1689948
1690152
1690370
1690590
1690818
1691042
1691266
1691484
1691702
1691920
1692138
1692364
1692600
1692842
1693086
1693334
1693582
1693828
1694070
1694300
1694518
1694730
1694938
1695146
1695360
1695584
1695818
1696048
1696266
1696484
1696710
1696936
1697170
1697402
1697640
1697886
1698140
1698396
1698652
1698908
1699170
1699440
1699706
1699964
1700220
1700476
1700736
1700996
1701254
1701508
1701758
1702014
1702276
1702534
1702790
1703040
1703292
1703548
1703802
1704054
1704302
1704554
1704798
1705024
1705254
1705490
1705728
1705958
1706184
1706408
1706634
1706860
1707082
1707300
1707510
1707718
1707928
1708144
1708370
1708604
1708836
1709070
1709302
1709532
1709760
1709984
1710204
1710424
1710644
1710866
1711082
1711292
1711500
1711712
1711930
1712154
1712380
1712612
1712850
1713094
1713342
1713590
1713836
1714080
1714328
1714580
1714828
1715070
1715314
1715558
1715804
1716052
1716304
1716548
1716790
1717032
1717282
1717530
1717774
1718020
1718266
1718512
1718758
1719006
1719254
1719500
1719742
1719988
1720232
1720472
1720716
1720960
1721208
1721458
1721706
1721952
1722198
1722444
1722694
1722942
1723190
1723444
1723702
1723958
1724210
1724456
1724698
1724932
1725158
1725382
1725606
1725830
1726060
1726292
1726522
1726748
1726970
1727184
1727404
1727624
1727842
1728060
1728268
1728474
1728676
1728876
1729074
1729270
1729468
1729676
1729900
1730132
1730372
1730616
1730866
1731116
1731366
1731616
1731870
1732122
1732366
1732608
1732848
1733086
1733326
1733568
1733810
1734046
1734276
1734508
1734746
1734984
1735222
1735456
1735692
1735926
1736158
1736390
1736620
1736846
1737064
1737278
1737496
1737720
1737946
1738170
1738392
1738616
1738844
1739078
1739312
1739550
1739784
1740014
1740246
1740476
1740710
1740936
1741156
1741366
1741576
1741788
1742010
1742246
1742486
1742726
1742970
1743216
1743462
1743706
1743946
1744186
1744424
1744664
1744908
1745154
1745402
1745644
1745890
1746140
1746394
1746644
1746900
1747160
1747420
1747676
1747930
1748186
1748442
1748702
1748964
1749224
1749478
1749722
1749962
1750204
1750448
1750688
1750926
1751162
1751402
1751640
1751882
1752122
1752362
1752602
1752846
1753092
1753338
1753586
1753826
1754052
1754272
1754482
1754690
1754898
1755106
1755320
1755544
1755774
1756008
1756246
1756482
1756720
1756966
1757216
1757472
1757722
1757966
1758208
1758448
1758682
1758912
1759140
1759368
1759600
1759838
1760074
1760320
1760574
1760826
1761074
1761320
1761560
1761802
1762044
1762286
1762522
1762756
1762992
1763240
1763496
1763748
1763998
1764242
1764482
1764724
1764964
1765198
1765436
1765674
1765922
1766172
1766424
1766670
1766910
1767152
1767392
1767634
1767876
1768120
1768360
1768600
1768846
1769096
1769348
1769598
1769848
1770096
1770342
1770586
1770826
1771070
1771320
1771570
1771812
1772054
1772294
1772534
1772774
1773004
1773230
1773462
1773692
1773922
1774140
1774360
1774590
1774822
1775048
1775276
1775500
1775724
1775940
1776160
1776386
1776616
1776854
1777088
1777318
1777542
1777764
1777996
1778212
1778436
1778652
1778872
1779094
1779314
1779532
1779740
1779948
1780152
1780362
1780576
1780808
1781054
1781310
1781572
1781838
1782108
1782362
1782608
1782846
1783064
1783284
1783498
1783712
1783930
1784156
1784394
1784636
1784892
1785156
1785426
1785682
1785924
1786162
1786410
1786660
1786900
1787144
1787386
1787620
1787846
1788066
1788280
1788490
1788702
1788916
1789142
1789388
1789652
1789920
1790188
1790430
1790660
1790894
1791132
1791370
1791606
1791844
1792088
1792342
1792604
1792872
1793144
1793420
1793690
1793960
1794228
1794494
1794764
1795032
1795296
1795560
1795824
1796086
1796342
1796598
1796858
1797124
1797390
1797652
1797910
1798160
1798410
1798664
1798924
1799186
1799442
1799700
1799964
