peaks
179
422
666
900
1128
1364
1604
1848
2096
2346
2592
2846
3096
3340
3582
3832
4068
4308
4550
4786
5026
5264
5512
5754
5998
6248
6504
6740
6994
7244
7490
7744
7996
8244
8496
8748
8992
9246
9494
9736
9976
10218
10458
10704
10950
11190
11434
11684
11936
12188
12428
12680
12922
13158
13392
13630
13866
14100
14336
14574
14810
15046
15284
15522
15756
15994
16232
16476
16710
16952
17192
17430
17672
17914
18154
18396
18634
18878
19120
19364
19610
19862
20098
20352
20604
20846
21078
21320
21558
21804
22054
22288
22530
22770
23016
23258
23498
23734
23968
24200
24434
24666
24898
25132
25374
25612
25858
26106
26348
26588
26826
27058
27288
27518
27744
27970
28196
28424
28652
28882
29114
29348
29584
29820
30054
30294
30532
30764
31002
31236
31472
31708
31946
32186
32420
32656
32900
33144
33388
33636
33876
34128
34376
34632
34870
35122
35370
35616
35856
36104
36346
36586
36824
37070
37310
37548
37794
38036
38270
38506
38750
38988
39236
39468
39714
39956
40198
40442
40690
40940
41184
41438
41692
41938
42186
42438
42684
42922
43166
43402
43636
43870
44108
44334
44560
44786
45008
45232
45450
45672
45890
46108
46328
46546
46766
46984
47204
47424
47642
47862
48084
48306
48530
48758
48988
49220
49456
49688
49924
50162
50398
50546
50782
50912
51028
51248
51478
51710
51944
52178
52418
52660
52898
53146
53388
53630
53872
54030
54284
54536
54788
55040
55284
55532
55776
56018
56258
56498
56752
56998
57244
57482
57732
57984
58236
58492
58748
59006
59262
59510
59760
60004
60246
60486
60726
60966
61202
61440
61674
61906
62148
62380
62610
62840
63072
63302
63528
63756
63984
64208
64434
64662
64888
65116
65344
65574
65802
66030
66256
66476
66698
66920
67136
67356
67576
67796
68016
68234
68450
68670
68890
69108
69328
69548
69770
69990
70210
70438
70654
70870
71086
71304
71512
71728
71942
72150
72360
72562
72770
72976
73184
73380
73586
73786
73992
74186
74390
74586
74784
74990
75184
75376
75582
75778
75972
76178
76380
76578
76788
76988
77190
77396
77598
77796
78002
78202
78410
78616
78816
79028
79236
79438
79656
79858
80060
80272
80478
80680
80890
81098
81298
81508
81718
81928
82146
82364
82584
82802
83010
83222
83430
83640
83850
84056
84264
84468
84678
84886
85094
85294
85502
85712
85918
86128
86344
86548
86772
86986
87202
87418
87628
87840
88056
88276
88498
88720
88936
89158
89380
89602
89826
90042
90254
90472
90702
90930
91156
91382
91596
91828
92054
92282
92508
92738
92966
93194
93424
93654
93882
94112
94346
94582
94808
95042
95280
95512
95738
95958
96182
96406
96622
96838
97056
97278
97506
97732
97956
98174
98398
98622
98840
99056
99268
99494
99710
99940
100174
100414
100658
100894
101140
101386
101626
101870
102106
102332
102568
102798
103016
103250
103482
103700
103932
104164
104296
104418
104616
104852
105076
105300
105540
105780
106016
106244
106468
106698
106918
107148
107380
107606
107832
108064
108280
108506
108740
108970
109202
109428
109652
109872
110092
110312
110536
110766
111000
111234
111466
111710
111952
112188
112418
112658
112894
113128
113356
113576
113798
114022
114244
114460
114688
114906
115126
115350
115574
115790
116018
116248
116478
116708
116942
117176
117410
117638
117878
118126
118352
118582
118820
119056
119284
119512
119764
120000
120244
120470
120708
120934
121166
121396
121632
121858
122082
122308
122534
122752
122970
123200
123430
123662
123886
124118
124352
124584
124814
125040
125264
125490
125716
125942
126166
126392
126620
126846
127056
127286
127516
127744
127958
128180
128404
128628
128848
129062
129274
129488
129694
129912
130132
130354
130566
130792
131018
131236
131458
131676
131902
132124
132340
132562
132792
133014
133240
133470
133702
133930
134148
134366
134590
134810
135026
135246
135464
135670
135884
136098
136302
136500
136708
136912
137118
137316
137514
137718
137920
138112
138304
138494
138690
138880
139076
139280
139486
139684
139888
140100
140308
140506
140716
140924
141122
141332
141540
141738
141942
142152
142358
142564
142778
142992
143200
143420
143632
143844
144054
144260
144398
144628
144846
145066
145270
145484
145698
145918
146138
146344
146556
146772
146980
147202
147412
147620
147836
148050
148254
148466
148678
148882
149092
149306
149514
149722
149936
150144
150360
150566
150772
150982
151194
151394
151604
151812
152026
152240
152452
152672
152886
153106
153330
153546
153766
153986
154202
154418
154636
154854
155064
155278
155488
155690
155898
156112
156314
156514
156720
156926
157122
157332
157530
157734
157938
158152
158354
158574
158780
158990
159208
159412
159624
159838
160044
160246
160456
160662
160860
161058
161258
161462
161666
161868
162068
162270
162470
162668
162870
163072
163268
163468
163666
163868
164072
164274
164474
164686
164888
165090
165292
165496
165690
165892
166090
166280
166476
166672
166858
167054
167250
167444
167642
167842
168040
168238
168434
168626
168820
169016
169224
169422
169620
169832
170034
170234
170442
170644
170842
171044
171250
171444
171644
171844
172034
172234
172428
172620
172816
173010
173204
173402
173600
173798
174004
174204
174406
174612
174818
175014
175224
175424
175626
175836
176036
176248
176456
176660
176866
177004
177226
177440
177580
177810
177962
178196
178404
178610
178822
179026
179224
179432
179648
179848
180056
180260
180472
180686
180890
181100
181312
181520
181734
181956
182168
182386
182610
182834
183056
183278
183506
183730
183948
184172
184392
184600
184810
185022
185236
185448
185652
185864
186074
186280
186494
186712
186930
187144
187366
187584
187804
188028
188236
188460
188686
188904
189128
189354
189578
189798
190028
190260
190484
190702
190922
191140
191356
191574
191790
192006
192226
192442
192658
192874
193094
193314
193530
193748
193964
194184
194406
194624
194840
195056
195272
195484
195700
195918
196130
196346
196560
196774
196994
197212
197428
197646
197866
198080
198302
198520
198736
198948
199174
199396
199612
199836
200054
200252
200454
200654
200874
201080
201296
201510
201726
201942
202162
202370
202588
202806
203018
203238
203454
203664
203884
204096
204308
204526
204746
204962
205180
205408
205624
205844
206070
206294
206518
206744
206966
207184
207404
207622
207834
208052
208272
208486
208706
208928
209146
209356
209576
209792
210000
210220
210436
210650
210868
211088
211312
211534
211758
211994
212218
212450
212684
212910
213134
213360
213596
213828
214054
214278
214506
214740
214964
215186
215406
215634
215856
216068
216296
216518
216736
216958
217184
217412
217642
217868
218090
218314
218544
218770
218996
219220
219442
219668
219888
220112
220338
220576
220796
221028
221262
221494
221726
221960
222202
222430
222662
222904
223140
223382
223616
223860
224088
224318
224550
224788
225010
225234
225466
225692
225912
226132
226366
226590
226818
227052
227280
227504
227732
227966
228202
228434
228668
228902
229128
229364
229602
229844
230072
230306
230544
230780
231004
231236
231472
231704
231928
232154
232388
232624
232860
233086
233306
233530
233754
233974
234196
234414
234638
234868
235102
235338
235570
235800
236034
236270
236500
236740
236970
237200
237430
237666
237896
238116
238348
238584
238806
239028
239260
239494
239720
239948
240186
240428
240668
240902
241142
241380
241618
241848
242086
242324
242552
242782
243014
243248
243480
243712
243940
244164
244386
244602
244808
245018
245234
245454
245670
245894
246120
246350
246578
246812
247046
247278
247510
247736
247962
248192
248416
248642
248872
249096
249320
249544
249758
249980
250204
250428
250644
250862
251086
251304
251522
251740
251962
252180
252400
252618
252828
253038
253248
253460
253672
253880
254094
254310
254512
254720
254932
255140
255350
255554
255766
255974
256184
256380
256590
256790
256988
257182
257384
257584
257774
257972
258172
258370
258564
258764
258970
259174
259376
259574
259780
259974
260170
260366
260558
260748
260940
261130
261316
261508
261702
261892
262082
262280
262474
262662
262858
263058
263246
263434
263630
263816
264000
264194
264386
264566
264756
264948
265140
265328
265522
265716
265906
266092
266278
266474
266666
266860
267056
267238
267428
267620
267810
267996
268186
268380
268568
268758
268954
269154
269346
269542
269750
269962
270166
270370
270570
270772
270970
271164
271372
271578
271780
271990
272204
272412
272618
272830
273038
273242
273448
273664
273868
274074
274284
274498
274710
274918
275132
275356
275572
275790
276010
276228
276446
276668
276896
277116
277334
277556
277782
278006
278224
278452
278676
278898
279122
279344
279570
279798
280020
280244
280466
280696
280918
281140
281368
281600
281826
282058
282286
282530
282754
282990
283228
283468
283712
283938
284178
284406
284636
284858
285080
285306
285528
285746
285974
286192
286410
286634
286870
287090
287318
287552
287782
288010
288248
288482
288714
288954
289184
289414
289646
289884
290112
290344
290584
290808
291034
291264
291488
291710
291936
292162
292382
292606
292832
293056
293278
293510
293730
293950
294172
294398
294624
294846
295074
295302
295524
295752
295984
296204
296430
296644
296864
297082
297308
297518
297738
297958
298172
298388
298602
298822
299036
299254
299480
299698
299918
300144
300374
300586
300804
301022
301244
301466
301696
301918
302142
302374
302596
302816
303046
303272
303490
303710
303938
304158
304374
304592
304808
305026
305246
305470
305686
305908
306136
306356
306578
306802
307024
307240
307462
307682
307898
308120
308342
308562
308776
308996
309216
309434
309650
309872
310094
310312
310536
310770
310990
311218
311452
311682
311906
312142
312370
312596
312820
313052
313276
313500
313736
313966
314196
314432
314668
314906
315150
315388
315622
315854
316090
316318
316546
316776
317004
317230
317468
317692
317922
318162
318390
318620
318858
319086
319312
319546
319778
320002
320226
320442
320662
320886
321106
321324
321538
321756
321974
322178
322388
322606
322820
323032
323248
323468
323692
323924
324150
324378
324606
324832
325058
325284
325494
325706
325920
326140
326364
326586
326808
327032
327256
327476
327698
327924
328150
328368
328586
328816
329030
329252
329482
329706
329930
330158
330390
330620
330848
331084
331322
331552
331780
332012
332240
332464
332698
332922
333146
333376
333602
333822
334046
334278
334498
334720
334950
335170
335394
335618
335838
336050
336256
336470
336692
336910
337124
337342
337562
337784
338004
338228
338448
338664
338882
339100
339322
339534
339742
339956
340174
340390
340604
340818
341032
341242
341456
341672
341888
342100
342314
342532
342746
342956
343176
343392
343604
343814
344026
344246
344470
344698
344920
345140
345370
345598
345820
346050
346280
346506
346736
346964
347190
347416
347640
347862
348088
348318
348548
348768
348994
349230
349450
349668
349886
350106
350320
350534
350748
350970
351192
351414
351640
351866
352088
352312
352540
352762
352982
353206
353432
353662
353902
354134
354362
354590
354824
355052
355288
355514
355744
355970
356200
356432
356658
356878
357104
357328
357552
357782
358004
358240
358464
358694
358928
359142
359388
359618
359846
360072
360290
360512
360738
360958
361184
361410
361636
361864
362080
362296
362502
362712
362914
363116
363318
363522
363730
363942
364154
364370
364590
364810
365032
365252
365468
365688
365908
366124
366338
366554
366766
366974
367184
367392
367598
367806
368016
368216
368424
368630
368838
369050
369266
369472
369676
369884
370090
370294
370494
370706
370904
371100
371304
371504
371704
371902
372092
372290
372484
372670
372860
373046
373232
373418
373600
373782
373964
374142
374320
374502
374682
374858
375040
375222
375390
375572
375750
375924
376100
376280
376450
376626
376804
376978
377150
377328
377504
377676
377850
378024
378192
378364
378540
378708
378880
379056
379228
379400
379576
379750
379924
380094
380268
380442
380612
380786
380958
381128
381300
381476
381650
381824
382002
382184
382362
382550
382742
382934
383122
383312
383498
383704
383902
384090
384284
384484
384680
384876
385064
385252
385444
385636
385826
386020
386222
386426
386620
386826
387032
387238
387444
387648
387852
388054
388254
388458
388664
388876
389092
389300
389512
389722
389930
390138
390348
390552
390768
390982
391190
391406
391622
391836
392050
392266
392486
392710
392928
393148
393374
393588
393808
394036
394264
394488
394708
394928
395144
395356
395578
395804
396030
396260
396486
396706
396928
397152
397376
397602
397826
398052
398266
398494
398718
398938
399156
399376
399596
399820
400050
400278
400508
400746
400978
401216
401442
401668
401894
402122
402346
402564
402776
403006
403234
403464
403694
403916
404140
404364
404594
404810
405028
405256
405478
405696
405910
406128
406350
406572
406800
407014
407236
407460
407680
407892
408112
408330
408544
408760
408978
409192
409410
409636
409856
410074
410300
410522
410740
410960
411182
411404
411624
411846
412072
412300
412524
412748
412970
413188
413406
413622
413840
414056
414272
414488
414702
414920
415138
415356
415572
415794
416008
416232
416458
416688
416912
417130
417358
417584
417810
418030
418258
418484
418704
418926
419150
419368
419590
419812
420034
420250
420472
420692
420912
421130
421350
421572
421792
422014
422228
422452
422670
422886
423104
423322
423536
423758
423976
424198
424414
424636
424858
425074
425294
425514
425730
425952
426170
426392
426624
426852
427082
427310
427534
427758
427982
428202
428428
428656
428880
429104
429324
429548
429768
429998
430220
430440
430662
430882
431098
431320
431542
431756
431972
432192
432406
432622
432836
433048
433260
433476
433688
433906
434122
434336
434552
434770
434986
435214
435450
435680
435914
436142
436366
436590
436816
437038
437252
437476
437692
437910
438122
438336
438556
438770
438986
439206
439426
439648
439874
440106
440326
440548
440770
440992
441208
441430
441654
441872
442098
442324
442544
442766
442988
443210
443428
443648
443872
444096
444310
444532
444756
444972
445198
445420
445640
445858
446074
446292
446510
446728
446940
447160
447378
447590
447804
448012
448214
448414
448620
448830
449042
449250
449466
449678
449898
450120
450342
450558
450770
450976
451192
451410
451626
451842
452054
452274
452496
452720
452942
453156
453374
453594
453816
454042
454274
454502
454728
454958
455182
455400
455620
455848
456070
456284
456500
456726
456954
457178
457402
457630
457862
458082
458302
458528
458760
458990
459214
459426
459646
459876
460106
460334
460564
460784
460998
461218
461440
461670
461888
462106
462326
462552
462782
463018
463248
463474
463696
463924
464160
464394
464622
464860
465100
465336
465568
465802
466036
466268
466498
466732
466950
467168
467394
467624
467856
468090
468312
468536
468764
468992
469228
469452
469676
469912
470136
470364
470594
470828
471068
471302
471542
471790
472032
472274
472520
472762
473000
473232
473466
473698
473926
474150
474382
474616
474848
475078
475302
475532
475766
476000
476228
476460
476690
476916
477144
477378
477606
477842
478074
478302
478524
478750
478976
479206
479442
479678
479914
480156
480386
480622
480864
481096
481334
481576
481818
482056
482296
482526
482752
482978
483210
483440
483666
483900
484128
484348
484572
484800
485028
485256
485482
485710
485938
486170
486404
486630
486844
487076
487294
487510
487732
487964
488202
488440
488678
488910
489144
489382
489624
489864
490104
490326
490550
490774
491000
491226
491452
491666
491886
492110
492334
492556
492780
493006
493238
493466
493702
493936
494172
494392
494646
494868
495098
495328
495552
495770
495996
496228
496460
496700
496924
497156
497386
497610
497830
498058
498288
498520
498748
498980
499222
499468
499712
499950
500192
500436
500672
500902
501140
501378
501614
501848
502074
502306
502540
502770
502992
503216
503448
503684
503918
504160
504392
504620
504852
505086
505324
505556
505792
506024
506264
506502
506730
506962
507204
507446
507684
507928
508158
508392
508626
508868
509100
509328
509566
509802
509996
510232
510464
510696
510930
511166
511410
511642
511884
512122
512362
512602
512832
513062
513294
513524
513744
513968
514192
514420
514648
514874
515102
515322
515546
515768
515990
516210
516430
516650
516872
517094
517318
517544
517770
518000
518238
518464
518694
518922
519160
519386
519612
519844
520078
520308
520540
520764
520988
521212
521440
521666
521894
522126
522348
522580
522804
523032
523270
523498
523730
523962
524196
524422
524640
524862
525084
525302
525524
525752
525976
526202
526426
526652
526878
527104
527330
527558
527778
528004
528232
528460
528692
528920
529152
529384
529616
529852
530084
530316
530548
530778
530952
531194
531420
531652
531882
532104
532322
532542
532756
532974
533190
533404
533618
533836
534052
534278
534510
534728
534954
535190
535414
535636
535862
536094
536314
536532
536756
536980
537196
537414
537634
537846
538064
538280
538494
538710
538924
539138
539354
539566
539780
539996
540206
540424
540642
540860
541078
541292
541510
541724
541940
542162
542378
542594
542814
543034
543254
543468
543692
543908
544114
544326
544542
544762
544978
545202
545418
545634
545852
546076
546294
546514
546734
546948
547162
547380
547602
547822
548044
548270
548496
548712
548934
549162
549396
549618
549842
550080
550308
550532
550756
550990
551216
551434
551656
551874
552094
552310
552526
552742
552962
553180
553398
553618
553840
554062
554280
554500
554720
554936
555148
555366
555586
555798
556010
556228
556454
556668
556886
557106
557326
557550
557778
557998
558222
558450
558682
558918
559148
559388
559630
559862
560096
560330
560554
560774
561000
561224
561440
561666
561898
562114
562336
562570
562794
563016
563246
563482
563702
563926
564158
564390
564612
564840
565064
565290
565522
565758
565980
566208
566438
566668
566894
567118
567348
567578
567796
568022
568256
568476
568700
568934
569156
569382
569610
569836
570060
570282
570504
570730
570956
571182
571412
571638
571860
572084
572308
572524
572750
572972
573188
573410
573630
573850
574064
574282
574502
574720
574938
575146
575368
575586
575794
576006
576220
576442
576650
576860
577068
577278
577490
577694
577902
578112
578316
578514
578714
578912
579108
579310
579518
579716
579918
580126
580344
580560
580776
580988
581196
581404
581616
581824
582038
582252
582464
582684
582902
583114
583332
583552
583764
583976
584188
584398
584602
584812
585020
585224
585434
585644
585848
586062
586268
586474
586688
586902
587116
587328
587540
587754
587966
588174
588392
588608
588816
589034
589254
589466
589682
589898
590108
590322
590538
590656
590959
591182
591392
591602
591814
592022
592238
592454
592668
592888
593104
593318
593536
593750
593966
594182
594396
594616
594840
595052
595274
595498
595712
595928
596144
596356
596578
596802
597014
597224
597442
597664
597880
598106
598336
598554
598782
598994
599214
599438
599656
599884
600116
600340
600576
600812
601038
601268
601502
601716
601940
602164
602386
602608
602830
603042
603260
603474
603690
603911
604128
604340
604556
604766
604978
605196
605410
605614
605836
606054
606268
606488
606710
606928
607156
607386
607608
607826
608054
608280
608502
608728
608956
609182
609414
609644
609870
610088
610306
610524
610744
610964
611182
611414
611642
611866
612088
612318
612544
612766
613000
613220
613434
613654
613884
614096
614312
614536
614750
614976
615208
615336
615456
615670
615894
616114
616342
616562
616782
616998
617212
617438
617654
617878
618110
618324
618546
618776
619006
619224
619456
619684
619916
620148
620370
620616
620852
621082
621310
621524
621738
621946
622158
622370
622584
622804
623020
623254
623500
623748
623994
624226
624466
624698
624934
625166
625392
625614
625832
626050
626262
626480
626700
626916
627138
627358
627582
627802
628024
628246
628470
628694
628920
629144
629374
629538
629796
630044
630292
630532
630768
630994
631220
631446
631666
631886
632104
632330
632552
632778
632998
633226
633454
633678
633896
634120
634344
634570
634786
635014
635246
635468
635694
635926
636154
636378
636606
636836
637066
637302
637538
637774
638014
638252
638490
638730
638974
639212
639450
639686
639910
640146
640382
640608
640844
641082
641320
641552
641788
642022
642252
642480
642702
642932
643154
643378
643600
643830
644060
644290
644522
644748
644974
645204
645430
645656
645884
646116
646340
646570
646800
647026
647260
647492
647732
647972
648212
648452
648684
648914
649148
649382
649608
649840
650070
650302
650542
650780
651010
651242
651482
651718
651946
652186
652426
652662
652892
653128
653364
653604
653842
654082
654322
654558
654792
655024
655258
655496
655732
655964
656196
656432
656666
656900
657138
657376
657606
657840
658078
658316
658548
658784
659022
659266
659502
659744
659984
660216
660454
660692
660924
661160
661388
661622
661858
662086
662320
662550
662780
663010
663246
663480
663710
663944
664182
664412
664648
664886
665124
665362
665592
665824
666046
666272
666496
666732
666970
667208
667446
667676
667906
668136
668362
668594
668830
669066
669298
669528
669758
669996
670236
670470
670706
670940
671174
671406
671640
671870
672100
672334
672562
672788
673014
673234
673452
673670
673894
674122
674350
674580
674808
675042
675274
675506
675744
675978
676210
676442
676680
676914
677142
677376
677614
677850
678080
678318
678554
678786
679020
679256
679486
679720
679960
680192
680430
680668
680902
681138
681370
681602
681836
682068
682302
682536
682768
683002
683240
683480
683716
683958
684194
684434
684670
684906
685144
685376
685608
685846
686082
686312
686548
686774
687000
687228
687458
687688
687916
688152
688384
688618
688860
689098
689332
689560
689796
690030
690262
690494
690732
690972
691206
691442
691680
691920
692160
692408
692652
692888
693124
693356
693594
693830
694070
694312
694550
694794
695034
695272
695516
695754
695988
696224
696462
696698
696936
697166
697402
697638
697870
698100
698332
698564
698802
699038
699272
699514
699758
700002
700240
700486
700730
700974
701212
701454
701690
701928
702158
702392
702622
702850
703078
703306
703536
703764
703996
704224
704454
704682
704918
705152
705384
705612
705846
706080
706316
706548
706782
707012
707248
707480
707712
707944
708174
708406
708636
708864
709086
709314
709542
709762
709986
710204
710420
710634
710850
711070
711284
711501
711708
711928
712144
712362
712576
712788
713000
713214
713426
713632
713838
714038
714236
714444
714638
714834
715036
715238
715438
715640
715844
716046
716252
716458
716666
716878
717078
717276
717470
717662
717852
718044
718236
718426
718616
718800
718990
719176
719362
719548
719730
719912
720098
720268
720448
720628
720808
720990
721164
721348
721528
721710
721892
722078
722262
722452
722634
722830
723012
723200
723389
723583
723762
723954
724330
724512
724692
724885
725067
725246
725418
725592
725764
725940
726112
726282
726456
726626
726794
726930
727130
727260
727458
727586
727782
727950
728122
728292
728458
728628
728796
728966
729140
729316
729492
729666
729844
730020
730194
730370
730550
730726
730904
731078
731254
731434
731602
731774
731946
732116
732282
732448
732614
732784
732954
733088
733286
733402
733624
733788
733952
734114
734276
734436
734598
734760
734918
735080
735240
735400
735562
735722
735882
736046
736206
736368
736528
736688
736840
736998
737152
737306
737456
737608
737762
737916
738076
738226
738380
738538
738688
738848
738998
739152
739312
739462
739616
739772
739932
740082
740240
740400
740560
740718
740882
741046
741210
741380
741540
741704
741868
742034
742200
742364
742530
742694
742848
743024
743184
743342
743502
743664
743824
743986
744152
744310
744462
744620
744780
744942
745054
745242
745406
745564
745722
745876
746038
746188
746342
746502
746650
746802
746954
747112
747266
747420
747578
747731
747882
748038
748188
748344
748490
748640
748792
748942
749098
749248
749404
749554
749708
749860
750010
750162
750312
750466
750620
750774
750930
751084
751240
751398
751552
751706
751858
752014
752164
752320
752468
752626
752780
752934
753088
753240
753394
753550
753710
753864
754016
754166
754316
754470
754616
754764
754916
755060
755204
755350
755492
755636
755788
755938
756084
756238
756384
756534
756682
756830
756968
757116
757254
757370
757530
757644
757820
757968
758106
758248
758392
758534
758680
758818
758964
759108
759256
759406
759554
759704
759854
760006
760160
760312
760466
760616
760776
760928
761088
761242
761394
761548
761704
761866
762016
762176
762330
762488
762646
762800
762956
763112
763270
763428
763594
763750
763910
764076
764238
764402
764560
764728
764892
765060
765224
765392
765564
765734
765908
766086
766258
766420
766588
766760
766942
767046
767300
767408
767640
767812
767970
768132
768300
768466
768622
768782
768944
769106
769272
769444
769620
769796
769968
770144
770256
770514
770636
770862
770982
771202
771368
771530
771698
771866
772036
772204
772376
772548
772722
772892
773064
773236
773406
773574
773740
773910
774082
774252
774420
774532
774768
774942
775056
775250
775424
775598
775766
775938
776112
776286
776462
776642
776820
776936
777180
777298
777542
777710
777880
778052
778230
778402
778578
778754
778932
779116
779294
779472
779650
779828
780004
780182
780360
780534
780708
780882
781052
781222
781396
781570
781742
781918
782102
782276
782394
782642
782754
783000
783122
783360
783524
783692
783860
784030
784138
784374
784486
784722
784894
785064
785176
785412
785526
785762
785932
786102
786270
786440
786610
786782
786892
787134
787254
787486
787658
787832
788006
788152
788290
788412
788622
788810
789002
789190
789380
789568
789750
789936
790120
790306
790492
790680
790862
791044
791224
791408
791588
791768
791948
792130
792306
792482
792656
792832
793010
793190
793370
793552
793734
793916
794098
794282
794468
794652
794838
795024
795206
795392
795580
795770
795888
796144
796256
796506
796684
796856
797034
797200
797370
797544
797694
797888
798060
798234
798408
798580
798750
798922
799094
799266
799438
799612
799786
799956
800136
800304
800478
800652
800828
801008
801176
801352
801526
801700
801870
802040
802210
802378
802552
802720
802888
803054
803222
803394
803554
803718
803884
804046
804208
804372
804534
804694
804854
805022
805182
805338
805498
805662
805830
805990
806158
806326
806492
806658
806826
806994
807152
807314
807478
807646
807802
807970
808137
808294
808458
808617
808782
808944
809108
809268
809438
809598
809758
809922
810084
810246
810412
810570
810734
810904
811066
811234
811392
811558
811718
811888
812058
812222
812392
812560
812734
812902
813074
813246
813412
813578
813742
813912
814076
814234
814400
814562
814724
814890
815048
815214
815374
815530
815694
815854
816014
816178
816346
816508
816664
816830
816996
817156
817326
817488
817652
817814
817978
818150
818314
818478
818638
818804
818968
819132
819298
819466
819624
819790
819958
820116
820280
820448
820614
820778
820954
821122
821288
821458
821628
821796
821964
822130
822302
822470
822640
822816
822982
823150
823320
823492
823660
823830
824006
824176
824342
824516
824686
824854
825020
825186
825354
825512
825674
825840
826002
826162
826326
826486
826650
826804
826966
827128
827286
827446
827606
827764
827926
828076
828234
828392
828546
828700
828856
829020
829176
829326
829482
829638
829796
829946
830110
830262
830408
830564
830716
830868
831022
831168
831322
831474
831622
831770
831922
832072
832226
832374
832524
832672
832822
832978
833124
833278
833428
833570
833718
833870
834016
834166
834312
834464
834606
834754
834906
835058
835200
835308
835482
835630
835782
835932
836080
836224
836376
836524
836670
836814
836960
837106
837248
837392
837536
837678
837824
837962
838106
838246
838382
838518
838658
838802
838942
839084
839222
839370
839512
839656
839804
839944
840090
840238
840388
840542
840702
840866
841032
841198
841358
841520
841682
841844
842008
842174
842334
842500
842654
842808
842964
843118
843270
843424
843576
843722
843870
844020
844168
844314
844468
844612
844764
844918
845066
845216
845368
845522
845676
845832
845988
846142
846294
846454
846606
846756
846912
847062
847210
847364
847514
847662
847816
847966
848118
848266
848420
848578
848728
848882
849034
849188
849342
849500
849654
849806
849970
850124
850284
850446
850602
850764
850928
851078
851230
851380
851538
851686
851840
851996
852146
852298
852442
852594
852748
852898
853048
853200
853352
853502
853654
853814
853966
854128
854282
854434
854594
854748
854900
855052
855208
855370
855530
855684
855846
856008
856166
856328
856488
856646
856806
856966
857124
857288
857450
857606
857770
857940
858106
858266
858430
858600
858770
858944
859106
859278
859450
859620
859788
859954
860132
860302
860476
860650
860822
861000
861166
861338
861516
861688
861854
862022
862188
862360
862522
862690
862858
863034
863202
863374
863552
863728
863904
864088
864262
864452
864644
864834
865014
865202
865394
865586
865776
865964
866156
866346
866534
866720
866900
867080
867268
867452
867628
867808
867988
868176
868354
868542
868718
868896
869080
869260
869432
869612
869788
869958
870136
870314
870498
870682
870860
871048
871236
871434
871624
871816
872008
872200
872386
872576
872764
872956
873144
873332
873524
873718
873916
874110
874302
874492
874690
874886
875082
875278
875470
875662
875848
876050
876242
876430
876616
876808
877008
877204
877394
877582
877784
877986
878180
878376
878568
878770
878960
879148
879340
879536
879724
879916
880112
880308
880510
880702
880898
881088
881282
881476
881664
881856
882052
882246
882440
882632
882824
883014
883208
883402
883602
883794
883988
884176
884358
884542
884730
884918
885104
885300
885500
885694
885886
886070
886260
886444
886624
886812
886988
887182
887368
887556
887744
887942
888130
888326
888524
888724
888922
889118
889314
889510
889706
889898
890084
890270
890456
890646
890836
891022
891210
891400
891592
891774
891958
892144
892320
892498
892672
892850
893026
893206
893378
893558
893740
893930
894102
894286
894472
894654
894842
895022
895204
895386
895574
895760
895938
896120
896302
896484
896658
896836
897014
897192
897368
897548
897726
897898
898076
898256
898434
898620
898792
898976
899150
899326
899506
899682
899860
900038
900214
900396
900582
900754
900934
901116
901296
901478
901666
901840
902016
902196
902374
902552
902734
902914
903100
903286
903476
903666
903864
904052
904254
904444
904638
904834
905018
905202
905390
905584
905770
905954
906146
906338
906532
906728
906930
907118
907310
907506
907696
907888
908078
908268
908460
908650
908842
909040
909230
909426
909624
909820
910014
910208
910408
910606
910800
910994
911190
911386
911582
911782
911986
912182
912382
912588
912790
912984
913182
913384
913578
913770
913962
914150
914340
914530
914720
914914
915102
915288
915480
915678
915864
916056
916248
916442
916634
916828
917010
917202
917396
917584
917768
917958
918134
918326
918518
918702
918898
919092
919274
919466
919656
919846
920044
920230
920420
920616
920796
920984
921172
921360
921550
921728
921916
922102
922290
922476
922664
922846
923032
923218
923408
923598
923788
923988
924176
924370
924566
924762
924952
925140
925334
925528
925718
925916
926100
926290
926476
926668
926846
927026
927216
927408
927594
927772
927960
928154
928336
928522
928708
928898
929094
929278
929472
929658
929846
930046
930240
930434
930630
930826
931012
931200
931392
931574
931758
931948
932132
932316
932502
932688
932878
933070
933258
933448
933636
933824
934018
934218
934414
934610
934810
935004
935204
935406
935606
935800
935994
936192
936388
936586
936790
936988
937182
937368
937556
937744
937936
938126
938308
938498
938686
938876
939056
939244
939436
939620
939808
939994
940186
940364
940544
940726
940910
941096
941284
941472
941664
941860
942048
942246
942440
942628
942820
943018
943210
943396
943586
943780
943966
944154
944334
944528
944720
944906
945102
945286
945472
945658
945844
946028
946212
946398
946586
946778
946958
947148
947334
947522
947712
947902
948092
948282
948478
948672
948864
949050
949234
949418
949604
949796
949978
950162
950350
950546
950738
950928
951110
951298
951482
951664
951844
952030
952214
952396
952578
952762
952950
953136
953324
953514
953704
953890
954086
954264
954450
954634
954818
955004
955190
955374
955552
955734
955918
956102
956288
956474
956662
956846
957028
957212
957400
957594
957774
957962
958154
958344
958530
958718
958910
959108
959300
959498
959696
959902
960096
960294
960490
960686
960882
961076
961270
961468
961664
961860
962056
962254
962454
962652
962846
963038
963228
963424
963624
963814
964004
964188
964380
964568
964754
964950
965148
965348
965546
965746
965946
966146
966350
966550
966750
966954
967152
967344
967538
967738
967932
968126
968322
968528
968718
968910
969104
969302
969496
969700
969896
970092
970294
970498
970698
970894
971094
971290
971494
971686
971882
972086
972288
972482
972680
972878
973076
973274
973480
973672
973864
974052
974244
974442
974638
974836
975036
975238
975442
975644
975846
976052
976262
976474
976678
976894
977102
977310
977518
977726
977932
978136
978338
978542
978750
978954
979154
979358
979568
979772
979970
980172
980370
980568
980770
980962
981160
981358
981560
981764
981970
982176
982382
982586
982786
982990
983192
983392
983588
983786
983970
984152
984332
984506
984684
984868
985046
985226
985402
985582
985762
985944
986122
986308
986492
986672
986858
987048
987234
987418
987610
987806
988008
988202
988396
988592
988790
988996
989192
989392
989592
989798
989994
990192
990386
990580
990774
990958
991146
991332
991514
991698
991890
992080
992272
992470
992652
992846
993032
993216
993400
993582
993768
993952
994132
994306
994490
994668
994848
995030
995214
995390
995578
995760
995938
996114
996286
996464
996646
996834
997027
997222
997419
997625
997828
998034
998234
998440
998636
998834
999034
999234
999426
999620
999816
1000018
1000210
1000408
1000602
1000800
1000998
1001194
1001388
1001570
1001764
1001938
1002114
1002298
1002478
1002652
1002830
1003008
1003184
1003366
1003542
1003724
1003906
1004090
1004272
1004452
1004632
1004816
1005005
1005188
1005376
1005560
1005752
1005942
1006134
1006328
1006522
1006716
1006918
1007110
1007306
1007510
1007708
1007902
1008092
1008278
1008466
1008658
1008856
1009050
1009242
1009428
1009604
1009784
1009966
1010140
1010316
1010500
1010692
1010882
1011076
1011270
1011458
1011648
1011836
1012028
1012220
1012412
1012598
1012790
1012988
1013180
1013368
1013564
1013752
1013944
1014118
1014302
1014486
1014666
1014836
1015018
1015194
1015370
1015552
1015738
1015922
1016108
1016296
1016492
1016674
1016864
1017054
1017248
1017442
1017640
1017826
1018022
1018212
1018408
1018598
1018786
1018976
1019166
1019362
1019552
1019740
1019918
1020096
1020284
1020468
1020650
1020830
1021004
1021184
1021366
1021548
1021728
1021908
1022090
1022270
1022456
1022640
1022828
1023016
1023206
1023394
1023582
1023768
1023948
1024120
1024300
1024480
1024648
1024822
1024996
1025174
1025358
1025546
1025736
1025936
1026126
1026322
1026510
1026698
1026886
1027074
1027258
1027444
1027628
1027812
1027998
1028178
1028362
1028544
1028732
1028928
1029124
1029324
1029512
1029706
1029900
1030090
1030280
1030466
1030652
1030838
1031030
1031208
1031392
1031578
1031764
1031948
1032134
1032320
1032508
1032700
1032896
1033088
1033280
1033462
1033650
1033848
1034040
1034228
1034416
1034604
1034792
1034984
1035178
1035370
1035564
1035758
1035948
1036148
1036348
1036548
1036748
1036948
1037142
1037338
1037536
1037740
1037936
1038126
1038314
1038504
1038696
1038886
1039072
1039252
1039419
1039606
1039784
1039956
1040130
1040304
1040469
1040644
1040822
1040990
1041164
1041336
1041512
1041682
1041860
1042028
1042200
1042372
1042542
1042718
1042888
1043052
1043220
1043392
1043562
1043730
1043902
1044070
1044244
1044418
1044592
1044760
1044940
1045112
1045288
1045458
1045640
1045810
1045984
1046160
1046338
1046508
1046682
1046854
1047026
1047200
1047374
1047546
1047728
1047914
1048086
1048264
1048440
1048626
1048794
1048964
1049142
1049306
1049470
1049634
1049802
1049966
1050124
1050290
1050460
1050630
1050794
1050964
1051132
1051300
1051470
1051640
1051810
1051980
1052152
1052324
1052492
1052666
1052846
1053016
1053190
1053370
1053548
1053720
1053892
1054062
1054230
1054392
1054562
1054736
1054898
1055064
1055234
1055400
1055562
1055732
1055892
1056058
1056186
1056384
1056550
1056708
1056870
1057032
1057196
1057350
1057516
1057670
1057832
1057986
1058142
1058304
1058462
1058620
1058780
1058938
1059096
1059254
1059416
1059572
1059736
1059898
1060066
1060226
1060390
1060560
1060720
1060886
1061052
1061222
1061394
1061566
1061740
1061916
1062092
1062274
1062452
1062624
1062800
1062974
1063150
1063314
1063484
1063654
1063814
1063976
1064146
1064308
1064470
1064626
1064786
1064946
1065106
1065268
1065430
1065588
1065750
1065906
1066060
1066207
1066370
1066522
1066668
1066820
1066972
1067122
1067274
1067428
1067582
1067740
1067896
1068058
1068216
1068376
1068536
1068694
1068852
1069014
1069166
1069313
1069476
1069638
1069796
1069956
1070120
1070284
1070446
1070600
1070760
1070918
1071080
1071243
1071404
1071560
1071712
1071872
1072014
1072178
1072332
1072484
1072636
1072790
1072940
1073096
1073240
1073390
1073542
1073690
1073836
1073986
1074140
1074294
1074452
1074602
1074762
1074912
1075074
1075232
1075384
1075542
1075700
1075862
1076026
1076188
1076348
1076510
1076670
1076832
1076992
1077152
1077310
1077468
1077624
1077780
1077936
1078092
1078250
1078400
1078556
1078712
1078868
1079026
1079182
1079338
1079500
1079656
1079822
1079972
1080148
1080310
1080466
1080632
1080796
1080954
1081122
1081284
1081446
1081606
1081772
1081936
1082098
1082262
1082420
1082590
1082752
1082914
1083072
1083234
1083400
1083562
1083726
1083902
1084068
1084238
1084408
1084576
1084744
1084912
1085078
1085248
1085412
1085580
1085750
1085920
1086090
1086260
1086424
1086588
1086758
1086922
1087080
1087242
1087408
1087572
1087734
1087894
1088060
1088230
1088390
1088560
1088730
1088898
1089062
1089236
1089402
1089568
1089734
1089906
1090072
1090242
1090416
1090576
1090744
1090908
1091070
1091232
1091392
1091556
1091714
1091876
1092030
1092196
1092352
1092516
1092672
1092832
1092990
1093150
1093314
1093476
1093634
1093798
1093966
1094132
1094300
1094474
1094636
1094804
1094974
1095136
1095306
1095474
1095640
1095808
1095974
1096138
1096298
1096462
1096626
1096796
1096958
1097126
1097294
1097458
1097624
1097788
1097953
1098108
1098266
1098423
1098582
1098740
1098898
1099056
1099209
1099362
1099516
1099676
1099833
1099990
1100142
1100306
1100460
1100620
1100780
1100940
1101102
1101256
1101418
1101574
1101732
1101892
1102052
1102206
1102359
1102524
1102678
1102829
1102976
1103126
1103284
1103436
1103588
1103736
1103888
1104042
1104188
1104338
1104488
1104638
1104788
1104936
1105090
1105244
1105406
1105570
1105734
1105898
1106062
1106230
1106396
1106564
1106732
1106902
1107072
1107244
1107414
1107582
1107758
1107922
1108088
1108256
1108426
1108604
1108772
1108942
1109120
1109294
1109464
1109634
1109800
1109974
1110142
1110304
1110472
1110638
1110810
1110974
1111148
1111316
1111486
1111660
1111834
1111998
1112178
1112356
1112532
1112704
1112874
1113044
1113214
1113386
1113556
1113726
1113898
1114076
1114248
1114424
1114594
1114768
1114944
1115120
1115298
1115474
1115642
1115812
1115978
1116144
1116310
1116482
1116648
1116820
1116992
1117154
1117342
1117518
1117698
1117872
1118048
1118228
1118398
1118572
1118741
1118914
1119084
1119252
1119428
1119598
1119762
1119934
1120106
1120274
1120450
1120616
1120780
1120942
1121120
1121292
1121464
1121638
1121810
1121984
1122156
1122330
1122502
1122674
1122844
1123012
1123184
1123352
1123528
1123694
1123862
1124036
1124208
1124372
1124540
1124714
1124884
1125046
1125212
1125374
1125536
1125696
1125860
1126012
1126176
1126336
1126498
1126662
1126824
1126984
1127146
1127310
1127464
1127630
1127794
1127950
1128116
1128272
1128434
1128600
1128758
1128922
1129084
1129244
1129408
1129566
1129727
1129884
1130046
1130212
1130373
1130536
1130700
1130868
1131026
1131186
1131352
1131506
1131664
1131828
1131986
1132144
1132296
1132456
1132608
1132767
1132924
1133082
1133232
1133392
1133543
1133700
1133856
1134016
1134167
1134319
1134470
1134628
1134776
1134930
1135086
1135244
1135390
1135546
1135708
1135856
1136012
1136174
1136326
1136482
1136640
1136806
1136968
1137126
1137284
1137444
1137602
1137760
1137916
1138070
1138222
1138384
1138536
1138692
1138852
1139006
1139156
1139310
1139466
1139620
1139778
1139934
1140094
1140244
1140398
1140558
1140716
1140870
1141026
1141184
1141350
1141506
1141666
1141826
1141986
1142146
1142310
1142470
1142622
1142776
1142926
1143080
1143242
1143394
1143550
1143704
1143862
1144020
1144176
1144332
1144486
1144646
1144814
1144976
1145130
1145290
1145448
1145610
1145776
1145936
1146102
1146266
1146432
1146604
1146768
1146934
1147100
1147262
1147430
1147606
1147774
1147944
1148112
1148282
1148458
1148630
1148796
1148964
1149134
1149310
1149476
1149644
1149798
1149978
1150142
1150306
1150478
1150638
1150802
1150968
1151140
1151302
1151470
1151636
1151806
1151966
1152128
1152294
1152452
1152614
1152780
1152944
1153104
1153272
1153444
1153618
1153790
1153956
1154122
1154290
1154460
1154636
1154806
1154974
1155150
1155318
1155496
1155670
1155846
1156018
1156194
1156374
1156556
1156734
1156912
1157084
1157260
1157438
1157606
1157778
1157950
1158124
1158296
1158470
1158640
1158812
1158984
1159156
1159330
1159502
1159678
1159850
1160030
1160206
1160384
1160564
1160742
1160916
1161090
1161268
1161436
1161612
1161778
1161940
1162096
1162258
1162424
1162578
1162738
1162900
1163062
1163228
1163400
1163562
1163728
1163902
1164056
1164228
1164390
1164554
1164716
1164874
1165038
1165198
1165360
1165526
1165682
1165844
1166004
1166168
1166338
1166500
1166660
1166820
1166986
1167146
1167300
1167466
1167626
1167780
1167942
1168102
1168268
1168426
1168590
1168756
1168926
1169088
1169252
1169414
1169578
1169742
1169910
1170074
1170238
1170400
1170556
1170712
1170868
1171036
1171194
1171358
1171518
1171684
1171850
1172016
1172180
1172344
1172504
1172664
1172820
1172980
1173142
1173312
1173478
1173638
1173798
1173962
1174124
1174280
1174444
1174606
1174768
1174930
1175094
1175262
1175428
1175596
1175764
1175940
1176106
1176276
1176450
1176622
1176790
1176966
1177142
1177316
1177490
1177662
1177838
1178010
1178180
1178348
1178514
1178678
1178842
1179008
1179180
1179346
1179514
1179684
1179858
1180024
1180196
1180366
1180536
1180706
1180878
1181050
1181222
1181390
1181548
1181716
1181884
1182050
1182212
1182376
1182544
1182704
1182870
1183038
1183208
1183376
1183550
1183726
1183896
1184068
1184242
1184404
1184570
1184724
1184894
1185058
1185222
1185382
1185534
1185692
1185854
1186012
1186162
1186320
1186476
1186636
1186786
1186942
1187100
1187258
1187412
1187580
1187738
1187900
1188064
1188228
1188394
1188560
1188726
1188900
1189058
1189224
1189388
1189544
1189709
1189858
1190010
1190160
1190310
1190460
1190610
1190758
1190912
1191062
1191214
1191360
1191514
1191662
1191812
1191956
1192112
1192262
1192408
1192560
1192712
1192864
1193024
1193184
1193338
1193498
1193662
1193818
1193974
1194132
1194294
1194450
1194616
1194772
1194936
1195088
1195242
1195398
1195554
1195702
1195854
1196012
1196158
1196308
1196462
1196614
1196766
1196920
1197070
1197224
1197386
1197542
1197702
1197864
1198024
1198182
1198334
1198494
1198650
1198810
1198966
1199118
1199278
1199436
1199594
1199742
1199912
1200070
1200238
1200398
1200562
1200730
1200894
1201052
1201218
1201384
1201550
1201714
1201880
1202050
1202210
1202372
1202540
1202700
1202864
1203034
1203192
1203358
1203524
1203694
1203864
1204032
1204202
1204370
1204540
1204718
1204884
1205056
1205224
1205392
1205558
1205720
1205882
1206048
1206202
1206362
1206522
1206682
1206846
1207006
1207162
1207324
1207486
1207646
1207806
1207970
1208136
1208302
1208470
1208638
1208804
1208970
1209136
1209306
1209484
1209652
1209824
1209998
1210176
1210358
1210534
1210708
1210886
1211068
1211240
1211414
1211590
1211770
1211940
1212112
1212284
1212454
1212628
1212798
1212964
1213132
1213298
1213472
1213636
1213802
1213966
1214132
1214298
1214462
1214626
1214794
1214954
1215116
1215282
1215442
1215610
1215770
1215934
1216104
1216280
1216446
1216616
1216792
1216966
1217134
1217304
1217484
1217656
1217786
1217992
1218170
1218348
1218522
1218702
1218878
1219054
1219238
1219412
1219586
1219762
1219944
1220114
1220290
1220468
1220646
1220826
1221012
1221196
1221384
1221560
1221744
1221928
1222116
1222294
1222474
1222652
1222834
1223008
1223186
1223370
1223548
1223722
1223906
1224088
1224274
1224458
1224644
1224836
1225022
1225206
1225382
1225556
1225732
1225906
1226080
1226252
1226424
1226602
1226778
1226954
1227132
1227308
1227482
1227654
1227830
1228006
1228186
1228362
1228540
1228718
1228898
1229074
1229252
1229434
1229618
1229804
1229990
1230172
1230358
1230544
1230730
1230910
1231094
1231276
1231460
1231642
1231824
1232006
1232190
1232370
1232552
1232732
1232914
1233094
1233276
1233464
1233644
1233826
1234014
1234194
1234382
1234566
1234746
1234934
1235120
1235304
1235496
1235686
1235880
1236074
1236264
1236458
1236656
1236840
1237028
1237216
1237400
1237580
1237762
1237944
1238122
1238300
1238476
1238658
1238830
1239004
1239180
1239358
1239534
1239704
1239886
1240060
1240238
1240416
1240606
1240786
1240970
1241158
1241356
1241546
1241742
1241932
1242126
1242324
1242516
1242700
1242896
1243078
1243262
1243454
1243640
1243818
1244002
1244192
1244368
1244548
1244726
1244908
1245090
1245266
1245446
1245632
1245810
1245990
1246172
1246364
1246550
1246738
1246930
1247126
1247310
1247500
1247696
1247886
1248074
1248256
1248440
1248622
1248808
1248988
1249168
1249342
1249516
1249688
1249856
1250018
1250180
1250344
1250514
1250686
1250862
1251036
1251216
1251390
1251560
1251732
1251904
1252080
1252256
1252436
1252614
1252802
1252990
1253178
1253364
1253552
1253734
1253912
1254092
1254272
1254456
1254646
1254844
1255032
1255222
1255408
1255598
1255784
1255970
1256158
1256356
1256540
1256728
1256920
1257110
1257300
1257490
1257686
1257878
1258064
1258256
1258448
1258638
1258832
1259034
1259222
1259422
1259610
1259808
1259992
1260182
1260366
1260552
1260742
1260916
1261098
1261280
1261460
1261638
1261816
1261994
1262176
1262354
1262538
1262724
1262908
1263092
1263274
1263460
1263650
1263836
1264018
1264204
1264394
1264588
1264780
1264968
1265162
1265344
1265534
1265730
1265914
1266104
1266298
1266490
1266684
1266874
1267062
1267252
1267434
1267626
1267816
1268006
1268192
1268380
1268572
1268762
1268946
1269130
1269322
1269510
1269688
1269878
1270056
1270238
1270428
1270610
1270798
1270984
1271174
1271366
1271556
1271742
1271932
1272126
1272310
1272492
1272662
1272834
1273006
1273174
1273344
1273516
1273690
1273870
1274054
1274234
1274418
1274604
1274790
1274978
1275166
1275346
1275530
1275712
1275890
1276080
1276258
1276440
1276626
1276818
1277010
1277192
1277388
1277576
1277768
1277954
1278148
1278338
1278526
1278714
1278910
1279100
1279288
1279478
1279666
1279856
1280050
1280234
1280422
1280612
1280798
1280990
1281178
1281368
1281558
1281750
1281944
1282134
1282330
1282524
1282714
1282908
1283102
1283296
1283488
1283676
1283862
1284046
1284234
1284412
1284580
1284756
1284934
1285110
1285288
1285470
1285652
1285834
1286022
1286214
1286400
1286578
1286758
1286940
1287120
1287294
1287472
1287636
1287806
1287976
1288150
1288328
1288508
1288698
1288894
1289088
1289280
1289482
1289678
1289876
1290074
1290268
1290460
1290656
1290838
1291022
1291210
1291406
1291598
1291784
1291978
1292166
1292346
1292532
1292712
1292898
1293086
1293268
1293450
1293636
1293816
1294006
1294184
1294370
1294556
1294740
1294926
1295114
1295304
1295492
1295680
1295866
1296064
1296250
1296438
1296624
1296814
1297000
1297184
1297360
1297548
1297730
1297904
1298078
1298266
1298446
1298622
1298806
1298994
1299188
1299376
1299560
1299746
1299932
1300124
1300314
1300506
1300704
1300898
1301096
1301292
1301480
1301674
1301864
1302048
1302234
1302420
1302610
1302802
1302990
1303178
1303368
1303560
1303754
1303952
1304140
1304324
1304512
1304700
1304890
1305080
1305266
1305458
1305650
1305838
1306036
1306242
1306438
1306630
1306838
1307042
1307240
1307436
1307624
1307820
1308010
1308192
1308382
1308566
1308758
1308950
1309142
1309332
1309522
1309716
1309910
1310108
1310298
1310492
1310676
1310866
1311056
1311254
1311444
1311636
1311828
1312030
1312224
1312422
1312622
1312816
1313010
1313202
1313398
1313588
1313772
1313966
1314148
1314334
1314522
1314708
1314896
1315088
1315280
1315476
1315668
1315860
1316046
1316238
1316422
1316614
1316812
1316998
1317192
1317384
1317574
1317776
1317966
1318162
1318358
1318558
1318756
1318952
1319148
1319346
1319532
1319720
1319912
1320094
1320278
1320468
1320654
1320842
1321032
1321220
1321410
1321600
1321790
1321972
1322172
1322356
1322548
1322742
1322924
1323110
1323298
1323480
1323666
1323848
1324036
1324222
1324408
1324592
1324778
1324964
1325152
1325338
1325530
1325710
1325896
1326082
1326274
1326456
1326648
1326842
1327028
1327216
1327408
1327598
1327786
1327970
1328158
1328348
1328530
1328714
1328900
1329080
1329262
1329444
1329628
1329818
1330006
1330200
1330384
1330564
1330750
1330926
1331110
1331284
1331464
1331642
1331830
1332022
1332200
1332378
1332560
1332742
1332918
1333092
1333268
1333450
1333618
1333788
1333956
1334128
1334304
1334474
1334638
1334806
1334972
1335142
1335314
1335494
1335664
1335846
1336026
1336200
1336380
1336564
1336742
1336928
1337116
1337306
1337488
1337670
1337840
1338012
1338188
1338360
1338536
1338700
1338868
1339040
1339208
1339376
1339548
1339716
1339888
1340066
1340238
1340406
1340578
1340756
1340924
1341098
1341278
1341460
1341640
1341826
1342008
1342192
1342376
1342552
1342736
1342920
1343106
1343292
1343478
1343662
1343846
1344036
1344226
1344412
1344598
1344788
1344982
1345170
1345360
1345538
1345724
1345902
1346084
1346266
1346444
1346624
1346804
1346984
1347162
1347342
1347516
1347690
1347868
1348046
1348214
1348392
1348558
1348732
1348910
1349080
1349252
1349426
1349602
1349778
1349952
1350130
1350312
1350486
1350664
1350844
1351024
1351204
1351384
1351562
1351740
1351918
1352096
1352270
1352446
1352620
1352792
1352978
1353166
1353358
1353542
1353724
1353906
1354088
1354268
1354438
1354614
1354778
1354946
1355114
1355280
1355444
1355608
1355774
1355940
1356102
1356266
1356432
1356596
1356758
1356924
1357086
1357248
1357410
1357574
1357740
1357904
1358072
1358236
1358404
1358568
1358732
1358904
1359068
1359238
1359404
1359578
1359746
1359916
1360086
1360254
1360422
1360586
1360756
1360914
1361080
1361242
1361404
1361566
1361730
1361890
1362048
1362210
1362374
1362538
1362700
1362866
1363032
1363198
1363366
1363534
1363698
1363866
1364034
1364200
1364376
1364544
1364716
1364886
1365056
1365228
1365398
1365572
1365740
1365912
1366086
1366260
1366432
1366606
1366784
1366952
1367124
1367298
1367472
1367652
1367830
1368002
1368180
1368358
1368536
1368712
1368894
1369074
1369254
1369434
1369616
1369796
1369976
1370158
1370342
1370526
1370710
1370896
1371086
1371274
1371466
1371650
1371848
1372034
1372226
1372414
1372604
1372790
1372968
1373156
1373332
1373512
1373692
1373880
1374058
1374246
1374434
1374624
1374816
1374994
1375178
1375364
1375534
1375710
1375888
1376068
1376252
1376432
1376616
1376798
1376908
1377124
1377306
1377492
1377676
1377868
1378048
1378234
1378420
1378604
1378790
1378978
1379164
1379348
1379536
1379726
1379910
1380100
1380290
1380474
1380660
1380852
1381044
1381238
1381430
1381624
1381816
1382012
1382206
1382400
1382590
1382782
1382980
1383178
1383372
1383566
1383756
1383960
1384150
1384346
1384544
1384732
1384922
1385114
1385304
1385500
1385694
1385890
1386072
1386268
1386452
1386640
1386832
1387018
1387198
1387382
1387566
1387752
1387934
1388120
1388308
1388504
1388688
1388878
1389064
1389262
1389448
1389640
1389838
1390030
1390218
1390408
1390600
1390792
1390974
1391160
1391350
1391546
1391736
1391922
1392118
1392304
1392486
1392670
1392858
1393036
1393218
1393406
1393590
1393774
1393956
1394136
1394322
1394514
1394696
1394886
1395070
1395256
1395448
1395636
1395824
1396004
1396194
1396376
1396556
1396744
1396924
1397106
1397288
1397466
1397654
1397830
1398016
1398210
1398398
1398590
1398784
1398980
1399168
1399360
1399556
1399746
1399930
1400124
1400306
1400492
1400672
1400856
1401042
1401218
1401402
1401586
1401770
1401954
1402142
1402328
1402514
1402698
1402886
1403078
1403262
1403450
1403638
1403826
1404016
1404208
1404386
1404568
1404752
1404938
1405132
1405316
1405506
1405706
1405898
1406090
1406286
1406482
1406682
1406876
1407074
1407266
1407460
1407640
1407824
1408010
1408194
1408372
1408562
1408748
1408932
1409118
1409310
1409496
1409680
1409872
1410066
1410248
1410440
1410630
1410816
1411004
1411198
1411380
1411568
1411760
1411942
1412128
1412312
1412500
1412686
1412864
1413050
1413234
1413418
1413598
1413778
1413956
1414132
1414310
1414490
1414674
1414858
1415050
1415240
1415428
1415618
1415810
1416002
1416194
1416382
1416568
1416752
1416938
1417128
1417316
1417508
1417690
1417878
1418068
1418254
1418442
1418632
1418820
1419010
1419200
1419394
1419588
1419788
1419980
1420174
1420360
1420552
1420740
1420930
1421110
1421292
1421476
1421666
1421842
1422028
1422212
1422396
1422576
1422758
1422942
1423132
1423306
1423490
1423682
1423864
1424050
1424240
1424436
1424622
1424808
1424996
1425184
1425370
1425556
1425740
1425922
1426108
1426286
1426466
1426646
1426826
1427008
1427184
1427356
1427532
1427708
1427890
1428060
1428236
1428414
1428594
1428768
1428950
1429130
1429312
1429498
1429684
1429874
1430064
1430254
1430444
1430634
1430822
1431006
1431194
1431388
1431572
1431756
1431936
1432114
1432290
1432460
1432636
1432810
1432998
1433180
1433364
1433550
1433734
1433918
1434106
1434282
1434464
1434644
1434826
1435010
1435196
1435380
1435564
1435750
1435940
1436120
1436304
1436492
1436678
1436866
1437046
1437230
1437414
1437598
1437782
1437968
1438158
1438346
1438538
1438730
1438924
1439118
1439310
1439502
1439690
1439876
1440062
1440248
1440432
1440618
1440806
1440990
1441168
1441350
1441534
1441724
1441906
1442092
1442278
1442468
1442656
1442844
1443038
1443232
1443422
1443616
1443808
1443996
1444182
1444374
1444572
1444760
1444950
1445140
1445322
1445506
1445688
1445876
1446068
1446258
1446450
1446644
1446834
1447026
1447222
1447418
1447618
1447816
1448014
1448212
1448404
1448598
1448792
1448984
1449178
1449370
1449562
1449748
1449940
1450130
1450324
1450520
1450716
1450912
1451114
1451302
1451490
1451686
1451884
1452072
1452268
1452450
1452648
1452842
1453034
1453226
1453414
1453596
1453770
1453950
1454130
1454310
1454496
1454690
1454880
1455070
1455260
1455448
1455638
1455826
1456014
1456200
1456384
1456564
1456742
1456920
1457100
1457280
1457462
1457646
1457836
1458028
1458218
1458412
1458606
1458804
1459000
1459196
1459398
1459594
1459792
1459992
1460186
1460386
1460582
1460778
1460970
1461166
1461354
1461548
1461738
1461932
1462126
1462320
1462516
1462710
1462908
1463108
1463308
1463510
1463708
1463904
1464102
1464300
1464496
1464694
1464894
1465092
1465292
1465490
1465688
1465890
1466086
1466270
1466460
1466650
1466838
1467020
1467202
1467388
1467576
1467762
1467954
1468150
1468336
1468530
1468724
1468926
1469116
1469314
1469512
1469710
1469908
1470104
1470300
1470500
1470696
1470894
1471086
1471282
1471476
1471674
1471864
1472058
1472250
1472444
1472634
1472826
1473016
1473202
1473386
1473572
1473760
1473948
1474140
1474326
1474514
1474706
1474902
1475092
1475278
1475470
1475662
1475858
1476050
1476250
1476438
1476628
1476822
1477014
1477212
1477408
1477608
1477812
1478004
1478202
1478400
1478594
1478786
1478978
1479172
1479360
1479548
1479736
1479920
1480106
1480294
1480486
1480676
1480866
1481054
1481244
1481436
1481628
1481818
1482008
1482204
1482398
1482594
1482794
1482990
1483182
1483376
1483572
1483766
1483964
1484152
1484344
1484532
1484722
1484916
1485100
1485286
1485472
1485662
1485858
1486054
1486248
1486436
1486636
1486838
1487038
1487240
1487444
1487640
1487832
1488014
1488206
1488400
1488584
1488780
1488974
1489164
1489360
1489556
1489748
1489942
1490138
1490334
1490528
1490722
1490918
1491112
1491308
1491506
1491702
1491904
1492098
1492302
1492500
1492696
1492892
1493086
1493284
1493478
1493672
1493866
1494064
1494258
1494456
1494628
1494852
1495052
1495250
1495448
1495652
1495846
1496048
1496246
1496442
1496636
1496836
1497022
1497216
1497408
1497600
1497792
1497986
1498176
1498376
1498568
1498760
1498954
1499148
1499338
1499534
1499732
1499926
1500118
1500314
1500512
1500710
1500902
1501096
1501284
1501472
1501654
1501840
1502030
1502218
1502408
1502602
1502802
1503004
1503204
1503402
1503598
1503796
1503996
1504196
1504394
1504592
1504786
1504980
1505172
1505362
1505552
1505746
1505942
1506130
1506322
1506526
1506720
1506920
1507118
1507318
1507514
1507710
1507908
1508102
1508294
1508484
1508668
1508850
1509028
1509204
1509384
1509570
1509752
1509942
1510140
1510332
1510526
1510722
1510926
1511122
1511316
1511512
1511706
1511900
1512092
1512288
1512486
1512678
1512872
1513068
1513252
1513440
1513632
1513826
1514018
1514212
1514408
1514606
1514800
1514996
1515190
1515388
1515586
1515782
1515984
1516178
1516370
1516564
1516758
1516948
1517138
1517322
1517510
1517700
1517892
1518080
1518272
1518468
1518658
1518850
1519040
1519230
1519424
1519614
1519808
1519994
1520180
1520370
1520556
1520738
1520916
1521092
1521268
1521444
1521624
1521812
1522002
1522194
1522370
1522558
1522744
1522918
1523092
1523262
1523436
1523614
1523792
1523968
1524146
1524328
1524508
1524684
1524862
1525042
1525222
1525402
1525580
1525756
1525934
1526114
1526294
1526474
1526660
1526832
1527014
1527194
1527374
1527550
1527734
1527912
1528086
1528254
1528432
1528618
1528802
1528984
1529160
1529340
1529530
1529714
1529898
1530080
1530270
1530452
1530634
1530812
1530990
1531170
1531336
1531504
1531682
1531868
1532042
1532226
1532402
1532590
1532770
1532946
1533126
1533310
1533486
1533676
1533858
1534038
1534220
1534400
1534574
1534746
1534910
1535080
1535250
1535418
1535586
1535754
1535922
1536092
1536262
1536432
1536602
1536772
1536942
1537114
1537286
1537460
1537634
1537806
1537978
1538150
1538322
1538498
1538676
1538860
1539030
1539208
1539386
1539570
1539742
1539924
1540108
1540294
1540476
1540662
1540850
1541036
1541224
1541404
1541590
1541784
1541980
1542186
1542378
1542578
1542780
1542986
1543182
1543384
1543574
1543770
1543966
1544166
1544362
1544554
1544744
1544940
1545136
1545330
1545522
1545718
1545916
1546120
1546312
1546508
1546710
1546910
1547102
1547296
1547496
1547696
1547896
1548098
1548298
1548498
1548696
1548900
1549104
1549298
1549496
1549688
1549880
1550074
1550270
1550456
1550648
1550842
1551036
1551226
1551428
1551624
1551812
1552002
1552192
1552388
1552588
1552784
1552984
1553184
1553382
1553586
1553792
1553994
1554190
1554388
1554584
1554774
1554966
1555152
1555336
1555522
1555708
1555898
1556084
1556270
1556460
1556648
1556840
1557026
1557220
1557418
1557606
1557794
1557992
1558180
1558366
1558558
1558742
1558926
1559108
1559290
1559476
1559668
1559864
1560058
1560254
1560454
1560652
1560850
1561046
1561242
1561440
1561644
1561832
1562022
1562216
1562404
1562592
1562782
1562972
1563160
1563348
1563538
1563722
1563910
1564100
1564294
1564488
1564680
1564870
1565060
1565250
1565440
1565628
1565818
1566008
1566200
1566392
1566584
1566772
1566958
1567146
1567336
1567514
1567698
1567882
1568064
1568248
1568434
1568618
1568808
1568992
1569180
1569372
1569562
1569754
1569946
1570136
1570340
1570538
1570730
1570926
1571122
1571318
1571514
1571708
1571896
1572088
1572280
1572478
1572668
1572850
1573040
1573234
1573424
1573610
1573800
1573994
1574178
1574368
1574558
1574756
1574942
1575128
1575314
1575500
1575692
1575878
1576056
1576240
1576432
1576614
1576802
1576992
1577188
1577372
1577562
1577752
1577944
1578136
1578326
1578516
1578708
1578894
1579078
1579262
1579452
1579634
1579820
1580016
1580202
1580392
1580582
1580778
1580966
1581154
1581342
1581532
1581722
1581912
1582106
1582286
1582472
1582664
1582854
1583048
1583248
1583444
1583632
1583820
1584010
1584200
1584386
1584574
1584770
1584954
1585138
1585320
1585496
1585668
1585842
1586016
1586200
1586386
1586570
1586758
1586950
1587142
1587328
1587518
1587706
1587894
1588078
1588262
1588442
1588618
1588794
1588974
1589156
1589344
1589542
1589730
1589922
1590116
1590312
1590514
1590700
1590892
1591086
1591284
1591474
1591670
1591870
1592058
1592258
1592456
1592642
1592840
1593034
1593236
1593424
1593620
1593818
1594012
1594204
1594400
1594594
1594786
1594984
1595182
1595382
1595586
1595778
1595972
1596166
1596358
1596544
1596736
1596928
1597118
1597312
1597502
1597696
1597882
1598078
1598262
1598448
1598630
1598818
1598996
1599178
1599368
1599554
1599740
1599920
1600108
1600288
1600462
1600646
1600834
1601022
1601214
1601400
1601590
1601786
1601974
1602168
1602358
1602540
1602730
1602916
1603100
1603284
1603470
1603650
1603840
1604034
1604222
1604416
1604608
1604798
1604988
1605180
1605374
1605560
1605752
1605942
1606128
1606314
1606500
1606694
1606884
1607068
1607260
1607438
1607620
1607800
1607984
1608156
1608328
1608500
1608686
1608862
1609046
1609220
1609396
1609574
1609750
1609924
1610100
1610276
1610448
1610624
1610802
1610990
1611174
1611362
1611546
1611738
1611922
1612100
1612282
1612464
1612644
1612830
1613008
1613186
1613368
1613548
1613728
1613908
1614086
1614258
1614434
1614610
1614786
1614968
1615152
1615336
1615530
1615710
1615896
1616082
1616274
1616462
1616660
1616864
1617056
1617256
1617454
1617662
1617862
1618070
1618278
1618486
1618696
1618906
1619116
1619328
1619538
1619748
1619954
1620160
1620360
1620554
1620748
1620944
1621138
1621338
1621548
1621744
1621946
1622154
1622348
1622548
1622744
1622938
1623130
1623322
1623520
1623728
1623932
1624142
1624344
1624552
1624760
1624968
1625178
1625380
1625586
1625800
1626004
1626208
1626414
1626620
1626824
1627028
1627234
1627430
1627626
1627828
1628030
1628238
1628448
1628656
1628864
1629076
1629292
1629502
1629706
1629910
1630112
1630318
1630518
1630706
1630910
1631112
1631316
1631518
1631720
1631916
1632104
1632302
1632504
1632700
1632896
1633092
1633284
1633480
1633680
1633878
1634078
1634276
1634472
1634664
1634858
1635064
1635268
1635472
1635676
1635892
1636102
1636308
1636516
1636724
1636924
1637124
1637322
1637522
1637720
1637922
1638110
1638304
1638494
1638682
1638880
1639078
1639274
1639470
1639670
1639872
1640074
1640276
1640480
1640686
1640894
1641094
1641298
1641500
1641706
1641904
1642104
1642308
1642508
1642708
1642906
1643098
1643296
1643496
1643704
1643904
1644110
1644316
1644530
1644730
1644934
1645146
1645346
1645544
1645744
1645942
1646140
1646340
1646536
1646732
1646926
1647122
1647320
1647520
1647722
1647928
1648134
1648340
1648548
1648754
1648960
1649158
1649358
1649556
1649752
1649948
1650140
1650328
1650520
1650714
1650912
1651114
1651320
1651518
1651720
1651924
1652124
1652322
1652526
1652724
1652914
1653106
1653292
1653476
1653656
1653846
1654042
1654242
1654446
1654650
1654860
1655066
1655266
1655466
1655670
1655868
1656062
1656266
1656466
1656668
1656870
1657078
1657284
1657488
1657700
1657902
1658110
1658320
1658524
1658720
1658926
1659128
1659328
1659528
1659734
1659932
1660136
1660334
1660538
1660744
1660950
1661146
1661342
1661536
1661728
1661916
1662104
1662296
1662490
1662690
1662890
1663092
1663290
1663494
1663696
1663898
1664102
1664294
1664480
1664676
1664874
1665074
1665278
1665484
1665690
1665894
1666092
1666292
1666498
1666700
1666904
1667108
1667318
1667526
1667736
1667942
1668148
1668352
1668548
1668744
1668938
1669130
1669320
1669508
1669698
1669882
1670072
1670256
1670444
1670640
1670836
1671036
1671244
1671448
1671646
1671848
1672048
1672250
1672450
1672652
1672852
1673052
1673250
1673450
1673640
1673842
1674040
1674244
1674446
1674656
1674862
1675068
1675270
1675470
1675672
1675874
1676074
1676278
1676474
1676674
1676870
1677066
1677260
1677454
1677650
1677842
1678042
1678242
1678440
1678640
1678838
1679034
1679230
1679426
1679618
1679808
1680000
1680194
1680390
1680580
1680778
1680970
1681166
1681368
1681574
1681768
1681968
1682166
1682370
1682564
1682764
1682958
1683158
1683366
1683566
1683770
1683976
1684182
1684388
1684596
1684800
1685008
1685212
1685424
1685634
1685844
1686052
1686260
1686474
1686672
1686880
1687086
1687298
1687498
1687706
1687916
1688124
1688336
1688554
1688764
1688972
1689182
1689390
1689602
1689810
1690016
1690220
1690420
1690620
1690824
1691026
1691230
1691434
1691638
1691844
1692046
1692248
1692452
1692658
1692864
1693070
1693276
1693480
1693678
1693876
1694080
1694282
1694496
1694704
1694912
1695126
1695338
1695538
1695730
1695916
1696106
1696286
1696464
1696634
1696808
1696986
1697172
1697360
1697550
1697736
1697928
1698114
1698306
1698500
1698690
1698874
1699066
1699258
1699444
1699628
1699818
1700012
1700210
1700408
1700602
1700800
1700998
1701194
1701388
1701584
1701780
1701978
1702172
1702368
1702570
1702758
1702946
1703140
1703336
1703526
1703730
1703932
1704136
1704342
1704544
1704746
1704942
1705140
1705340
1705540
1705738
1705942
1706144
1706346
1706542
1706740
1706934
1707134
1707328
1707528
1707728
1707926
1708124
1708320
1708520
1708720
1708926
1709126
1709322
1709512
1709706
1709888
1710072
1710252
1710438
1710620
1710814
1711000
1711192
1711382
1711568
1711752
1711934
1712116
1712306
1712492
1712682
1712880
1713074
1713270
1713466
1713658
1713844
1714028
1714208
1714380
1714552
1714726
1714906
1715092
1715286
1715472
1715662
1715858
1716054
1716248
1716442
1716634
1716836
1717034
1717228
1717428
1717622
1717810
1717994
1718176
1718362
1718542
1718722
1718902
1719090
1719290
1719482
1719678
1719866
1720054
1720238
1720420
1720606
1720798
1720992
1721186
1721388
1721594
1721796
1721992
1722184
1722382
1722568
1722764
1722958
1723154
1723348
1723540
1723736
1723940
1724148
1724356
1724564
1724782
1725000
1725212
1725414
1725630
1725840
1726046
1726256
1726470
1726682
1726900
1727106
1727304
1727496
1727698
1727892
1728096
1728302
1728508
1728714
1728924
1729132
1729348
1729554
1729766
1729978
1730192
1730396
1730608
1730816
1731026
1731234
1731438
1731640
1731840
1732042
1732246
1732450
1732656
1732860
1733070
1733280
1733492
1733708
1733912
1734126
1734340
1734554
1734772
1734980
1735186
1735396
1735604
1735812
1736020
1736232
1736438
1736646
1736852
1737064
1737268
1737474
1737676
1737882
1738082
1738288
1738498
1738702
1738904
1739102
1739302
1739502
1739706
1739910
1740116
1740324
1740528
1740730
1740938
1741130
1741332
1741536
1741742
1741954
1742166
1742382
1742598
1742812
1743028
1743242
1743458
1743672
1743878
1744090
1744296
1744508
1744716
1744926
1745134
1745346
1745552
1745754
1745964
1746174
1746372
1746574
1746776
1746982
1747188
1747396
1747600
1747808
1748018
1748228
1748438
1748650
1748860
1749070
1749278
1749482
1749692
1749900
1750106
1750310
1750518
1750726
1750932
1751130
1751332
1751538
1751742
1751946
1752154
1752362
1752560
1752762
1752966
1753168
1753372
1753578
1753786
1753996
1754210
1754422
1754634
1754848
1755056
1755270
1755474
1755684
1755890
1756100
1756308
1756522
1756726
1756928
1757140
1757354
1757554
1757762
1757972
1758182
1758382
1758588
1758792
1759002
1759208
1759410
1759614
1759816
1760020
1760222
1760422
1760622
1760820
1761006
1761190
1761374
1761560
1761748
1761938
1762132
1762326
1762524
1762718
1762918
1763114
1763310
1763502
1763696
1763888
1764076
1764260
1764440
1764622
1764802
1764984
1765168
1765352
1765540
1765726
1765914
1766096
1766276
1766456
1766640
1766822
1767006
1767184
1767366
1767552
1767742
1767928
1768116
1768308
1768492
1768676
1768860
1769046
1769228
1769410
1769590
1769772
1769950
1770126
1770308
1770496
1770690
1770880
1771072
1771262
1771458
1771650
1771846
1772042
1772234
1772426
1772620
1772812
1773010
1773204
1773390
1773584
1773774
1773964
1774152
1774346
1774540
1774732
1774924
1775122
1775330
1775536
1775748
1775950
1776154
1776364
1776574
1776780
1776990
1777198
1777406
1777620
1777822
1778026
1778228
1778434
1778636
1778838
1779040
1779246
1779454
1779662
1779866
1780068
1780278
1780486
1780696
1780896
1781100
1781304
1781514
1781722
1781934
1782138
1782344
1782552
1782766
1782974
1783186
1783394
1783610
1783828
1784042
1784256
1784472
1784688
1784900
1785116
1785338
1785552
1785762
1785976
1786178
1786390
1786602
1786802
1787010
1787218
1787430
1787636
1787854
1788076
1788284
1788494
1788712
1788920
1789132
1789342
1789556
1789768
1789982
1790188
1790396
1790602
1790812
1791020
1791224
1791430
1791634
1791836
1792052
1792270
1792486
1792706
1792920
1793136
1793354
1793570
1793776
1793992
1794200
1794408
1794618
1794824
1795036
1795242
1795460
1795670
1795876
1796096
1796298
1796504
1796714
1796918
1797122
1797330
1797534
1797746
1797942
1798144
1798350
1798550
1798754
1798960
1799168
1799378
1799588
1799798
