peaks
32
228
418
612
808
1004
1200
1400
1596
1792
1990
2190
2388
2584
2782
2982
3182
3378
3574
3768
3958
4146
4328
4512
4696
4882
5072
5262
5450
5644
5840
6034
6226
6420
6616
6808
7000
7194
7390
7586
7782
7976
8174
8370
8564
8760
8954
9146
9332
9514
9700
9888
10066
10244
10414
10582
10752
10930
11108
11290
11474
11662
11854
12046
12238
12434
12628
12822
13018
13218
13414
13610
13804
14002
14196
14388
14582
14776
14968
15158
15352
15546
15738
15928
16124
16326
16528
16728
16932
17138
17342
17538
17736
17932
18118
18298
18480
18660
18840
19020
19202
19394
19596
19804
20014
20228
20440
20648
20856
21068
21280
21490
21702
21908
22112
22318
22530
22742
22956
23172
23382
23592
23796
24002
24210
24414
24616
24812
25010
25208
25408
25608
25808
26010
26210
26408
26606
26800
26994
27186
27376
27562
27754
27944
28130
28320
28514
28714
28916
29128
29344
29560
29772
29988
30200
30404
30612
30828
31036
31240
31442
31648
31854
32058
32266
32472
32672
32868
33066
33260
33448
33628
33808
33988
34162
34340
34520
34712
34912
35110
35308
35506
35700
35890
36082
36276
36468
36662
36856
37050
37244
37438
37634
37828
38016
38206
38400
38584
38772
38962
39150
39336
39524
39712
39900
40090
40276
40462
40648
40834
41018
41204
41388
41568
41750
41932
42118
42308
42500
42692
42886
43078
43266
43456
43644
43836
44022
44210
44402
44594
44782
44974
45168
45364
45562
45754
45950
46152
46350
46548
46746
46946
47144
47332
47524
47716
47908
48098
48288
48484
48680
48872
49066
49260
49456
49648
49836
50028
50220
50412
50600
50792
50984
51180
51374
51568
51764
51958
52150
52344
52540
52736
52932
53128
53324
53520
53712
53904
54096
54292
54486
54676
54866
55060
55252
55446
55642
55846
56048
56248
56446
56648
56846
57042
57234
57428
57620
57808
57998
58190
58380
58566
58756
58946
59136
59322
59510
59698
59888
60078
60266
60458
60650
60846
61038
61236
61440
61648
61852
62056
62260
62462
62658
62856
63054
63252
63448
63644
63842
64040
64236
64432
64628
64826
65022
65216
65410
65606
65794
65984
66174
66368
66558
66748
66938
67134
67326
67516
67710
67906
68100
68292
68484
68678
68870
69062
69256
69452
69652
69846
70036
70226
70412
70596
70780
70964
71148
71330
71510
71694
71882
72068
72258
72448
72640
72830
73020
73214
73412
73610
73812
74010
74194
74372
74544
74712
74876
75042
75212
75392
75572
75756
75944
76140
76336
76530
76726
76922
77120
77310
77504
77696
77892
78082
78272
78466
78662
78856
79050
79246
79444
79638
79830
80024
80220
80412
80602
80790
80972
81148
81322
81498
81663
81846
82030
82206
82386
82560
82732
82900
83066
83236
83408
83580
83754
83930
84112
84298
84482
84668
84854
85046
85238
85426
85618
85812
86006
86198
86390
86584
86782
86978
87172
87366
87562
87756
87952
88148
88348
88552
88756
88962
89170
89388
89606
89826
90048
90268
90484
90698
90910
91118
91326
91534
91738
91944
92146
92344
92546
92748
92942
93122
93298
93472
93648
93826
94018
94226
94454
94678
94904
95118
95330
95536
95740
95938
96136
96334
96530
96720
96914
97108
97300
97490
97678
97866
98048
98230
98414
98604
98798
98988
99180
99378
99574
99766
99962
100162
100356
100548
100742
100938
101132
101324
101518
101712
101910
102104
102300
102494
102690
102886
103082
103282
103476
103670
103864
104060
104254
104448
104640
104836
105030
105222
105420
105620
105816
106012
106206
106402
106596
106788
106980
107166
107354
107540
107730
107920
108110
108302
108494
108688
108876
109066
109258
109450
109640
109830
110020
110206
110388
110560
110732
110906
111076
111248
111420
111590
111760
111930
112102
112274
112442
112614
112788
112958
113130
113302
113474
113646
113826
114010
114200
114394
114582
114776
114974
115166
115360
115552
115746
115938
116124
116312
116502
116690
116876
117064
117256
117452
117648
117838
118016
118190
118368
118550
118734
118922
119110
119298
119482
119662
119852
120040
120226
120410
120594
120782
120972
121160
121352
121546
121740
121932
122126
122320
122516
122708
122900
123092
123286
123476
123664
123854
124046
124236
124428
124622
124818
125014
125212
125412
125616
125816
126014
126212
126414
126616
126814
127014
127214
127418
127618
127816
128020
128222
128418
128618
128820
129016
129214
129410
129606
129794
129972
130144
130310
130474
130636
130796
130954
131112
131270
131426
131580
131736
131888
132042
132194
132346
132496
132644
132792
132950
133116
133294
133466
133632
133800
133970
134138
134306
134472
134634
134796
134954
135112
135270
135428
135588
135748
135906
136066
136228
136390
136552
136712
136872
137032
137191
137346
137512
137668
137824
137988
138154
138322
138492
138662
138828
138994
139156
139320
139484
139646
139806
139966
140126
140288
140450
140614
140784
140960
141138
141318
141494
141668
141840
142008
142178
142344
142510
142672
142834
142996
143154
143312
143468
143624
143780
143936
144090
144246
144402
144558
144714
144872
145028
145188
145348
145510
145670
145832
145990
146150
146308
146470
146630
146790
146954
147118
147282
147442
147604
147762
147920
148080
148240
148402
148566
148730
148896
149066
149234
149402
149572
149738
149906
150074
150240
150410
150578
150746
150910
151076
151242
151404
151570
151738
151904
152070
152238
152406
152570
152732
152898
153064
153230
153396
153562
153726
153890
154054
154216
154382
154544
154706
154874
155046
155220
155394
155566
155732
155896
156062
156222
156382
156540
156698
156850
157006
157162
157316
157470
157628
157788
157954
158126
158300
158478
158662
158848
159032
159212
159392
159572
159756
159940
160128
160320
160512
160704
160900
161096
161288
161472
161654
161830
162002
162170
162342
162524
162710
162902
163100
163296
163490
163684
163880
164076
164268
164458
164654
164848
165042
165238
165442
165648
165852
166058
166264
166466
166662
166858
167054
167250
167448
167652
167862
168074
168292
168510
168718
168920
169122
169326
169528
169724
169924
170124
170324
170524
170730
170940
171144
171346
171548
171750
171948
172148
172350
172550
172746
172944
173146
173348
173546
173748
173952
174158
174360
174564
174768
174968
175164
175360
175560
175760
175960
176166
176374
176580
176784
176990
177202
177412
177618
177824
178034
178242
178446
178646
178856
179060
179252
179434
179608
179782
179958
180140
180326
180514
180706
180902
181096
181290
181484
181682
181874
182064
182254
182450
182642
182834
183026
183226
183428
183630
183836
184046
184246
184448
184650
184854
185052
185250
185452
185650
185846
186042
186244
186444
186644
186844
187048
187248
187450
187650
187846
188040
188236
188436
188636
188836
189038
189238
189436
189630
189826
190024
190224
190424
190624
190822
191018
191204
191394
191586
191778
191970
192160
192354
192546
192734
192924
193116
193308
193496
193686
193880
194074
194266
194458
194652
194844
195030
195218
195412
195604
195794
195984
196182
196378
196570
196762
196958
197156
197350
197546
197746
197944
198140
198338
198540
198744
198942
199140
199340
199540
199738
199936
200136
200334
200526
200708
200880
201050
201214
201374
201530
201688
201848
202006
202166
202324
202476
202630
202780
202930
203078
203228
203376
203524
203672
203818
203966
204114
204262
204408
204558
204706
204858
205008
205160
205310
205462
205612
205764
205916
206068
206222
206376
206528
206680
206832
206984
207138
207292
207446
207598
207752
207906
208066
208228
208394
208562
208730
208894
209054
209216
209378
209536
209692
209848
210002
210158
210312
210468
210622
210780
210938
211096
211256
211418
211582
211744
211904
212062
212222
212378
212534
212690
212846
213002
213160
213316
213476
213636
213796
213956
214120
214282
214446
214610
214774
214938
215104
215272
215436
215598
215760
215926
216092
216250
216412
216572
216730
216888
217048
217208
217372
217540
217716
217894
218074
218254
218428
218600
218770
218940
219108
219276
219438
219600
219762
219928
220096
220268
220442
220614
220788
220964
221140
221316
221488
221654
221820
221988
222156
222324
222492
222658
222824
222994
223170
223344
223520
223690
223860
224032
224200
224368
224534
224706
224878
225048
225218
225386
225556
225726
225896
226066
226238
226408
226584
226762
226944
227130
227314
227502
227682
227858
228032
228202
228372
228544
228714
228880
229038
229196
229362
229534
229708
229880
230048
230216
230382
230546
230712
230878
231044
231214
231382
231556
231732
231906
232082
232258
232434
232606
232778
232950
233120
233288
233454
233618
233784
233948
234116
234284
234448
234622
234798
234976
235150
235326
235504
235680
235850
236016
236182
236344
236506
236666
236828
236990
237152
237316
237482
237646
237810
237980
238152
238324
238496
238668
238840
239012
239186
239360
239530
239698
239862
240026
240190
240354
240522
240690
240862
241038
241220
241404
241588
241772
241952
242124
242292
242458
242626
242796
242964
243138
243308
243480
243650
243820
243994
244168
244346
244526
244708
244890
245068
245242
245410
245578
245742
245906
246070
246236
246402
246572
246746
246926
247106
247290
247472
247648
247812
247972
248130
248290
248448
248606
248766
248926
249088
249252
249414
249574
249738
249900
250064
250232
250406
250584
250762
250942
251124
251304
251482
251660
251836
252006
252176
252346
252518
252690
252862
253038
253214
253388
253564
253744
253924
254104
254280
254456
254628
254802
254970
255140
255316
255494
255674
255856
256028
256204
256378
256554
256730
256900
257068
257238
257404
257572
257736
257904
258076
258250
258428
258604
258780
258956
259130
259302
259472
259644
259816
259982
260150
260318
260486
260656
260826
260996
261170
261340
261510
261678
261848
262020
262188
262358
262528
262696
262858
263022
263188
263350
263516
263682
263850
264022
264194
264372
264550
264732
264916
265096
265274
265444
265614
265782
265952
266126
266304
266488
266672
266856
267034
267210
267384
267554
267722
267890
268062
268234
268410
268572
268738
268904
269070
269236
269402
269558
269716
269878
270046
270220
270392
270568
270742
270920
271094
271262
271428
271594
271760
271926
272092
272260
272430
272604
272780
272956
273126
273298
273466
273636
273810
273980
274150
274318
274486
274658
274832
275002
275170
275336
275504
275672
275848
276024
276198
276374
276550
276728
276908
277086
277264
277442
277614
277782
277948
278112
278274
278430
278590
278770
278952
279152
279338
279518
279692
279864
280030
280196
280360
280522
280678
280834
280990
281152
281314
281476
281638
281800
281962
282124
282286
282448
282610
282770
282932
283096
283258
283422
283582
283742
283902
284066
284230
284394
284558
284724
284894
285066
285236
285408
285580
285750
285920
286092
286270
286446
286622
286794
286970
287144
287320
287498
287674
287854
288030
288204
288372
288536
288694
288854
289014
289172
289334
289494
289656
289818
289980
290144
290306
290468
290628
290790
290952
291116
291280
291444
291606
291768
291930
292092
292256
292418
292580
292740
292900
293060
293220
293386
293552
293718
293882
294050
294220
294384
294552
294718
294888
295054
295222
295386
295550
295714
295876
296034
296194
296356
296520
296684
296850
297018
297190
297360
297538
297716
297892
298068
298242
298416
298586
298754
298920
299086
299252
299416
299574
299732
299888
300056
300230
300400
300574
300754
300940
301124
301306
301484
301658
301832
302004
302172
302338
302504
302666
302830
302992
303158
303328
303504
303680
303860
304042
304228
304412
304598
304788
304978
305172
305366
305554
305738
305910
306082
306250
306418
306590
306766
306944
307122
307304
307488
307676
307864
308050
308236
308426
308614
308806
308998
309192
309386
309582
309778
309972
310168
310358
310548
310734
310920
311106
311296
311488
311676
311868
312060
312252
312440
312630
312822
313012
313202
313392
313584
313770
313952
314134
314314
314492
314672
314856
315044
315232
315424
315618
315812
316004
316194
316380
316566
316752
316938
317124
317312
317502
317690
317882
318076
318264
318454
318644
318830
319020
319210
319394
319578
319762
319946
320134
320316
320494
320670
320842
321012
321180
321348
321510
321672
321836
322008
322182
322360
322536
322714
322888
323064
323238
323412
323584
323758
323930
324100
324270
324438
324606
324776
324948
325122
325298
325464
325630
325792
325954
326114
326272
326432
326594
326754
326910
327068
327230
327394
327562
327730
327898
328070
328238
328406
328578
328750
328930
329112
329294
329474
329654
329832
330008
330184
330358
330534
330714
330890
331070
331246
331418
331592
331766
331940
332112
332288
332466
332648
332832
333016
333204
333394
333584
333768
333954
334142
334326
334512
334700
334888
335076
335264
335450
335634
335810
335982
336154
336322
336486
336646
336810
336984
337164
337346
337530
337718
337908
338102
338296
338488
338682
338876
339072
339266
339460
339654
339848
340038
340234
340428
340618
340810
341002
341200
341400
341598
341800
342002
342200
342400
342600
342796
342992
343184
343378
343570
343760
343948
344138
344328
344518
344710
344902
345090
345280
345468
345658
345848
346038
346226
346416
346604
346794
346984
347170
347358
347546
347738
347928
348118
348310
348506
348704
348898
349094
349292
349486
349680
349872
350066
350260
350452
350642
350832
351022
351208
351398
351590
351784
351980
352180
352386
352592
352792
352992
353190
353384
353578
353772
353970
354168
354366
354566
354768
354968
355170
355372
355576
355780
355978
356176
356374
356568
356758
356948
357138
357326
357512
357700
357892
358082
358272
358462
358656
358850
359040
359226
359416
359604
359790
359980
360172
360364
360556
360748
360946
361144
361340
361536
361734
361934
362130
362328
362526
362720
362914
363108
363302
363498
363692
363884
364078
364272
364460
364650
364842
365032
365222
365412
365606
365798
365988
366180
366374
366568
366758
366948
367140
367330
367520
367712
367904
368098
368288
368480
368672
368864
369054
369242
369434
369624
369808
369992
370180
370370
370558
370748
370940
371132
371324
371514
371706
371902
372092
372284
372478
372668
372858
373046
373234
373424
373614
373802
373992
374188
374394
374596
374798
375004
375202
375396
375588
375780
375970
376160
376344
376532
376724
376914
377104
377294
377486
377680
377870
378060
378252
378450
378652
378852
379052
379258
379466
379668
379872
380072
380268
380458
380644
380832
381018
381206
381398
381598
381796
381992
382188
382386
382580
382768
382956
383140
383320
383496
383676
383856
384040
384226
384416
384614
384812
385006
385196
385386
385570
385754
385936
386122
386306
386488
386668
386850
387036
387222
387410
387604
387798
387986
388174
388362
388546
388728
388910
389094
389278
389460
389644
389830
390020
390210
390400
390592
390780
390968
391156
391346
391532
391714
391894
392078
392264
392452
392644
392834
393022
393204
393384
393564
393746
393928
394108
394290
394474
394660
394842
395026
395212
395396
395580
395764
395952
396140
396326
396512
396698
396884
397070
397256
397442
397632
397818
398000
398182
398364
398546
398726
398908
399092
399278
399462
399644
399828
400012
400196
400382
400572
400760
400946
401134
401322
401510
401694
401876
402058
402240
402422
402602
402784
402970
403154
403336
403520
403702
403888
404074
404258
404440
404626
404810
404990
405170
405352
405530
405708
405886
406068
406252
406432
406610
406786
406954
407118
407280
407438
407598
407764
407932
408108
408292
408482
408674
408864
409050
409232
409410
409588
409766
409942
410116
410292
410468
410640
410814
410986
411158
411328
411498
411670
411844
412018
412192
412368
412546
412726
412902
413080
413260
413440
413618
413796
413972
414148
414322
414494
414668
414842
415016
415194
415374
415556
415738
415922
416104
416278
416450
416616
416782
416940
417102
417264
417428
417594
417760
417926
418094
418264
418434
418606
418778
418950
419124
419298
419470
419644
419816
419990
420160
420334
420508
420684
420864
421040
421216
421394
421572
421748
421922
422098
422276
422454
422634
422814
422998
423182
423366
423550
423736
423922
424108
424296
424484
424674
424860
425044
425228
425412
425596
425776
425958
426140
426326
426510
426694
426882
427066
427252
427434
427616
427796
427972
428150
428328
428508
428688
428868
429054
429242
429432
429622
429810
429998
430182
430364
430542
430724
430906
431084
431268
431454
431638
431822
432006
432194
432384
432574
432760
432948
433136
433324
433512
433702
433890
434082
434274
434466
434656
434848
435038
435226
435416
435606
435792
435976
436164
436352
436542
436728
436914
437102
437288
437472
437656
437844
438032
438218
438404
438588
438770
438952
439134
439318
439500
439680
439862
440046
440228
440412
440596
440782
440966
441148
441328
441510
441690
441870
442050
442228
442410
442590
442770
442952
443138
443324
443512
443702
443892
444084
444274
444462
444646
444828
445012
445194
445374
445554
445734
445912
446094
446278
446468
446658
446842
447028
447210
447392
447574
447752
447934
448120
448306
448490
448678
448866
449052
449236
449420
449604
449792
449984
450172
450362
450548
450734
450916
451102
451288
451474
451660
451844
452028
452212
452394
452578
452762
452948
453136
453318
453504
453690
453874
454056
454238
454422
454608
454792
454974
455160
455346
455530
455714
455900
456084
456270
456452
456634
456814
456994
457174
457354
457534
457720
457902
458088
458272
458458
458640
458824
459004
459184
459364
459542
459722
459904
460088
460270
460454
460638
460824
461008
461188
461372
461554
461738
461918
462098
462280
462462
462646
462830
463016
463200
463384
463566
463748
463930
464114
464298
464478
464660
464840
465026
465210
465394
465580
465766
465950
466132
466314
466498
466676
466850
467018
467182
467344
467502
467660
467820
467984
468148
468314
468484
468652
468824
468996
469170
469346
469526
469708
469894
470082
470272
470462
470648
470834
471022
471210
471398
471582
471766
471952
472136
472322
472502
472684
472860
473031
473206
473378
473542
473704
473862
474018
474176
474336
474498
474664
474834
475006
475176
475346
475518
475692
475868
476042
476214
476384
476556
476726
476898
477070
477244
477416
477586
477750
477916
478078
478240
478404
478566
478730
478892
479054
479216
479378
479542
479704
479864
480024
480182
480338
480496
480650
480804
480960
481118
481276
481436
481594
481752
481906
482062
482218
482372
482526
482684
482842
483002
483158
483322
483486
483654
483826
483996
484164
484330
484498
484668
484836
485004
485178
485352
485528
485704
485880
486058
486240
486424
486602
486784
486968
487154
487336
487518
487698
487878
488056
488232
488410
488592
488776
488960
489146
489336
489528
489716
489904
490090
490274
490456
490636
490814
490990
491162
491330
491494
491656
491814
491972
492132
492294
492460
492628
492800
492974
493152
493330
493506
493680
493856
494030
494204
494376
494552
494728
494904
495080
495256
495438
495620
495800
495980
496162
496344
496526
496706
496888
497074
497266
497458
497650
497840
498028
498214
498400
498584
498768
498950
499136
499320
499502
499686
499870
500056
500240
500426
500612
500800
500982
501166
501348
501530
501712
501896
502080
502264
502444
502626
502810
502992
503170
503352
503532
503714
503896
504074
504256
504436
504618
504800
504980
505160
505342
505520
505700
505880
506058
506236
506416
506598
506782
506968
507156
507352
507550
507746
507938
508132
508324
508516
508704
508892
509080
509264
509446
509626
509810
509996
510180
510364
510548
510734
510920
511106
511292
511482
511672
511862
512052
512240
512424
512606
512790
512972
513156
513338
513518
513700
513882
514064
514242
514422
514602
514782
514960
515138
515320
515502
515682
515862
516044
516224
516402
516578
516756
516934
517112
517286
517464
517644
517822
518000
518180
518360
518542
518722
518902
519080
519260
519440
519618
519798
519976
520154
520330
520506
520682
520858
521032
521200
521360
521524
521690
521854
522016
522178
522340
522504
522668
522830
522990
523156
523320
523486
523654
523824
523996
524168
524342
524518
524694
524876
525056
525236
525418
525600
525780
525962
526142
526320
526500
526680
526862
527042
527226
527410
527590
527772
527948
528130
528312
528494
528672
528854
529036
529216
529392
529564
529732
529898
530060
530218
530376
530532
530686
530842
531000
531160
531326
531496
531670
531848
532024
532200
532378
532546
532712
532878
533036
533196
533352
533508
533664
533818
533972
534126
534280
534432
534584
534736
534888
535040
535192
535342
535494
535644
535798
535950
536102
536258
536414
536572
536730
536894
537058
537226
537394
537560
537720
537884
538044
538202
538360
538516
538672
538832
538992
539152
539314
539476
539642
539804
539964
540124
540284
540442
540600
540756
540914
541072
541236
541396
541562
541730
541904
542080
542252
542428
542606
542782
542956
543128
543300
543470
543642
543810
543978
544146
544312
544482
544650
544818
544990
545162
545336
545508
545682
545856
546030
546204
546378
546552
546726
546896
547068
547238
547412
547584
547756
547926
548092
548254
548414
548570
548724
548878
549030
549182
549338
549490
549644
549800
549954
550112
550270
550434
550602
550770
550936
551102
551264
551424
551580
551734
551888
552040
552194
552346
552496
552646
552798
552948
553098
553248
553404
553560
553718
553882
554044
554206
554366
554528
554688
554848
555004
555160
555314
555472
555630
555790
555946
556102
556258
556414
556566
556720
556872
557026
557180
557334
557490
557646
557802
557958
558114
558270
558426
558580
558734
558890
559046
559200
559356
559512
559668
559826
559984
560142
560296
560452
560604
560756
560906
561060
561214
561370
561526
561682
561838
561994
562148
562306
562464
562624
562788
562952
563120
563286
563454
563620
563786
563952
564126
564294
564459
564622
564784
564946
565104
565260
565416
565570
565722
565874
566024
566176
566328
566478
566630
566782
566934
567088
567242
567398
567552
567710
567866
568028
568186
568348
568510
568672
568834
568996
569154
569314
569472
569628
569784
569940
570094
570248
570400
570550
570700
570852
571008
571164
571318
571476
571632
571790
571944
572098
572252
572406
572558
572708
572858
573006
573156
573304
573454
573604
573754
573904
574054
574204
574354
574502
574652
574802
574950
575100
575250
575398
575548
575700
575852
576004
576156
576306
576460
576612
576766
576920
577074
577226
577378
577532
577684
577834
577984
578134
578284
578432
578584
578738
578892
579048
579204
579356
579510
579660
579811
579960
580106
580255
580404
580547
580696
580846
580992
581142
581289
581438
581587
581734
581880
582030
582172
582318
582466
582614
582762
582910
583060
583210
583358
583508
583658
583808
583958
584106
584256
584408
584556
584704
584854
585002
585150
585296
585442
585588
585736
585884
586030
586180
586332
586486
586640
586794
586942
587098
587246
587392
587546
587704
587852
588020
588178
588334
588490
588644
588796
588948
589100
589252
589406
589562
589720
589872
590022
590168
590318
590470
590622
590774
590924
591074
591226
591376
591522
591668
591818
591964
592102
592246
592392
592536
592678
592820
592966
593114
593264
593414
593562
593712
593858
594002
594148
594294
594440
594586
594734
594888
595050
595214
595372
595530
595684
595844
595990
596138
596288
596436
596584
596732
596884
597028
597174
597322
597468
597614
597762
597910
598058
598206
598354
598504
598652
598802
598954
599102
599252
599402
599552
599706
599858
600010
600162
600314
600470
600618
600772
600924
601078
601230
601384
601536
601688
601840
601994
602154
602314
602472
602630
602784
602938
603092
603248
603404
603556
603706
603858
604008
604156
604304
604454
604606
604758
604916
605078
605242
605410
605580
605748
605908
606064
606220
606380
606540
606702
606862
607022
607178
607336
607498
607660
607820
607984
608148
608314
608480
608642
608804
608966
609128
609288
609450
609616
609782
609944
610110
610280
610452
610624
610794
610968
611142
611318
611494
611666
611842
612016
612188
612354
612518
612684
612852
613020
613182
613346
613510
613676
613838
614004
614172
614344
614514
614682
614846
615006
615162
615314
615470
615626
615796
615958
616118
616274
616432
616588
616742
616896
617048
617202
617358
617516
617676
617836
617992
618152
618318
618482
618640
618796
618950
619104
619256
619410
619560
619710
619860
620014
620168
620328
620486
620642
620800
620956
621110
621262
621418
621572
621728
621886
622046
622202
622360
622512
622662
622812
622962
623112
623264
623418
623572
623728
623880
624032
624184
624336
624496
624662
624826
624994
625162
625332
625502
625670
625846
626016
626186
626352
626516
626680
626842
627000
627160
627316
627474
627630
627786
627938
628092
628244
628394
628546
628696
628860
629016
629172
629328
629482
629634
629784
629934
630084
630232
630380
630526
630674
630824
630974
631122
631270
631420
631566
631714
631862
632010
632158
632304
632452
632598
632744
632890
633038
633184
633332
633478
633622
633768
633912
634058
634202
634348
634492
634638
634786
634930
635076
635224
635368
635514
635662
635810
635958
636108
636256
636404
636552
636698
636844
636990
637136
637284
637434
637580
637726
637874
638022
638170
638316
638464
638610
638758
638908
639054
639204
639354
639504
639652
639800
639946
640092
640238
640386
640530
640676
640822
640970
641114
641258
641404
641550
641698
641844
641990
642136
642288
642442
642596
642752
642906
643058
643212
643362
643512
643664
643814
643964
644114
644264
644412
644560
644710
644862
645016
645170
645328
645490
645648
645806
645962
646114
646266
646414
646564
646712
646858
647004
647152
647298
647446
647594
647746
647894
648044
648196
648350
648504
648654
648806
648958
649112
649264
649412
649562
649710
649860
650006
650154
650302
650450
650598
650748
650898
651048
651200
651352
651506
651658
651808
651958
652108
652258
652410
652560
652708
652858
653008
653162
653312
653462
653612
653762
653912
654062
654210
654360
654508
654658
654808
654954
655102
655250
655398
655544
655692
655840
655988
656138
656288
656436
656584
656734
656884
657032
657178
657328
657476
657620
657766
657914
658062
658210
658358
658506
658654
658802
658952
659106
659258
659408
659558
659708
659858
660004
660156
660304
660454
660606
660760
660914
661070
661228
661392
661558
661722
661886
662048
662210
662372
662536
662702
662870
663036
663202
663370
663530
663688
663838
663984
664130
664278
664424
664572
664722
664868
665016
665164
665312
665462
665610
665762
665912
666060
666208
666358
666508
666660
666808
666958
667106
667256
667402
667548
667696
667842
667988
668132
668278
668422
668570
668718
668868
669018
669172
669328
669484
669642
669798
669954
670108
670260
670410
670558
670706
670854
671002
671148
671292
671440
671590
671742
671896
672054
672216
672376
672534
672694
672848
672998
673148
673300
673450
673602
673756
673908
674062
674214
674370
674524
674676
674828
674980
675130
675280
675430
675582
675732
675884
676036
676190
676342
676494
676648
676802
676956
677110
677262
677414
677570
677724
677878
678030
678182
678336
678488
678640
678794
678946
679100
679252
679408
679562
679716
679870
680022
680174
680324
680474
680624
680778
680930
681082
681232
681380
681530
681680
681828
681978
682130
682282
682436
682592
682748
682902
683058
683214
683370
683526
683678
683832
683982
684136
684286
684438
684590
684742
684894
685042
685192
685342
685494
685646
685798
685952
686106
686258
686410
686564
686716
686870
687020
687172
687326
687476
687630
687786
687942
688098
688258
688418
688578
688738
688900
689062
689222
689380
689542
689706
689864
690020
690176
690330
690482
690632
690782
690930
691078
691222
691368
691516
691662
691808
691954
692102
692250
692398
692544
692690
692838
692988
693142
693294
693446
693596
693748
693900
694050
694202
694354
694508
694660
694814
694966
695118
695270
695422
695574
695726
695886
696042
696198
696358
696512
696672
696832
696988
697142
697296
697450
697602
697752
697904
698056
698208
698358
698508
698658
698810
698962
699112
699266
699420
699574
699726
699882
700036
700188
700342
700500
700649
700792
700946
701094
701240
701382
701530
701676
701824
701974
702122
702272
702420
702572
702722
702874
703026
703176
703326
703474
703624
703772
703924
704067
704220
704369
704516
704662
704809
704962
705108
705259
705406
705550
705700
705848
705998
706148
706298
706446
706596
706744
706892
707038
707184
707328
707474
707620
707764
707910
708054
708200
708346
708490
708634
708780
708922
709066
709208
709350
709490
709632
709780
709920
710052
710192
710330
710468
710606
710746
710884
711022
711160
711298
711436
711574
711712
711850
711986
712124
712262
712400
712538
712674
712812
712950
713088
713224
713362
713498
713634
713770
713912
714049
714180
714318
714454
714591
714723
714860
715001
715134
715270
715405
715542
715675
715812
715948
716090
716222
716354
716488
716622
716758
716892
717026
717158
717294
717428
717564
717700
717836
717974
718112
718250
718388
718526
718664
718804
718940
719078
719216
719354
719492
719630
719768
719906
720044
720180
720318
720456
720594
720732
720870
721006
721144
721284
721420
721560
721698
721838
721976
722114
722252
722390
722528
722668
722806
722948
723086
723224
723362
723500
723638
723776
723914
724052
724190
724326
724462
724600
724736
724874
725010
725148
725286
725426
725566
725708
725848
725992
726134
726278
726422
726566
726708
726852
726994
727136
727278
727420
727564
727706
727846
727988
728130
728270
728410
728552
728692
728832
728972
729114
729252
729394
729534
729676
729818
729958
730100
730242
730382
730524
730666
730806
730944
731084
731224
731362
731502
731642
731782
731922
732060
732200
732338
732478
732616
732756
732892
733032
733172
733312
733442
733594
733738
733880
734022
734164
734306
734448
734588
734728
734868
735006
735148
735286
735424
735562
735700
735836
735972
736110
736246
736382
736518
736654
736790
736926
737062
737200
737336
737474
737612
737750
737888
738026
738164
738300
738436
738574
738710
738844
738982
739118
739252
739388
739528
739662
739798
739932
740068
740198
740332
740466
740600
740734
740868
741004
741136
741270
741404
741540
741672
741806
741940
742076
742212
742350
742490
742632
742778
742924
743070
743218
743372
743514
743662
743814
743960
744105
744248
744392
744530
744666
744804
744946
745088
745232
745376
745520
745662
745806
745950
746094
746238
746384
746532
746676
746822
746970
747116
747264
747412
747562
747710
747858
748008
748154
748302
748448
748596
748742
748890
749036
749184
749330
749476
749622
749768
749914
750058
750202
750346
750490
750632
750776
750920
751064
751210
751356
751504
751652
751800
751946
752094
752242
752390
752536
752682
752828
752972
753118
753262
753406
753550
753698
753844
753990
754140
754286
754430
754574
754718
754862
755006
755152
755298
755446
755594
755742
755890
756040
756192
756342
756490
756642
756794
756946
757098
757250
757404
757560
757714
757866
758018
758166
758312
758458
758604
758748
758894
759040
759188
759336
759488
759642
759796
759951
760412
760556
760708
760862
761008
761158
761308
761456
761604
761752
761898
762044
762190
762336
762482
762630
762778
762930
763080
763232
763382
763530
763678
763826
763972
764118
764266
764412
764556
764704
764850
764996
765144
765290
765438
765586
765732
765880
766030
766178
766326
766476
766622
766770
766918
767064
767212
767356
767504
767650
767796
767942
768088
768236
768382
768528
768672
768818
768962
769108
769252
769396
769540
769684
769830
769978
770122
770266
770410
770556
770700
770844
770992
771138
771284
771432
771578
771726
771876
772024
772174
772322
772468
772616
772760
772906
773052
773196
773342
773486
773632
773774
773918
774062
774206
774346
774488
774630
774772
774912
775056
775200
775344
775488
775632
775780
775928
776078
776230
776382
776532
776682
776836
776988
777138
777290
777444
777598
777754
777908
778064
778220
778372
778524
778676
778832
778982
779130
779280
779434
779590
779746
779906
780066
780226
780384
780544
780706
780866
781028
781192
781360
781530
781698
781868
782036
782202
782368
782532
782692
782856
783020
783188
783358
783524
783690
783856
784020
784182
784340
784496
784652
784810
784972
785136
785304
785474
785644
785810
785974
786132
786286
786440
786594
786744
786896
787046
787196
787346
787498
787646
787794
787942
788090
788236
788386
788534
788682
788830
788980
789134
789290
789450
789610
789774
789936
790102
790264
790426
790582
790738
790892
791046
791200
791350
791502
791656
791808
791964
792120
792276
792434
792590
792744
792898
793048
793200
793350
793498
793646
793794
793938
794084
794230
794374
794516
794660
794806
794950
795096
795248
795388
795536
795682
795828
795974
796122
796268
796416
796562
796712
796852
796994
797138
797282
797424
797566
797710
797852
797994
798138
798282
798424
798566
798710
798854
798998
799142
799288
799434
799580
799726
799872
800020
800168
800316
800466
800616
800766
800914
801060
801206
801352
801498
801644
801790
801938
802088
802238
802386
802536
802684
802834
802980
803132
803284
803444
803624
803804
803970
804128
804284
804440
804590
804744
804896
805046
805198
805346
805496
805648
805796
805946
806098
806248
806398
806548
806698
806846
806994
807142
807286
807430
807576
807728
807890
808048
808202
808354
808504
808652
808802
808950
809098
809246
809396
809546
809696
809848
810000
810154
810304
810458
810608
810756
810902
811050
811196
811342
811490
811638
811790
811944
812098
812254
812408
812562
812716
812870
813026
813178
813332
813486
813638
813788
813940
814090
814242
814392
814542
814694
814846
814998
815150
815302
815454
815608
815762
815912
816064
816216
816364
816514
816662
816810
816958
817106
817256
817404
817554
817706
817860
818016
818172
818326
818482
818640
818796
818950
819106
819260
819418
819570
819722
819882
820046
820210
820364
820524
820686
820848
821004
821172
821342
821506
821676
821846
822014
822176
822332
822486
822638
822788
822934
823078
823224
823368
823510
823654
823798
823944
824090
824238
824386
824536
824690
824842
824998
825152
825304
825456
825604
825754
825904
826052
826200
826350
826500
826650
826796
826944
827092
827236
827384
827532
827682
827830
827978
828128
828278
828430
828580
828730
828878
829030
829182
829334
829488
829640
829790
829938
830084
830232
830378
830524
830672
830818
830968
831120
831270
831420
831572
831720
831868
832020
832174
832330
832490
832652
832814
832976
833134
833290
833444
833594
833744
833898
834050
834202
834360
834516
834670
834822
834974
835126
835276
835426
835578
835726
835880
836030
836180
836328
836476
836626
836778
836930
837082
837234
837388
837538
837692
837844
837998
838150
838302
838454
838606
838758
838912
839068
839224
839374
839524
839672
839818
839964
840108
840252
840396
840540
840684
840824
840968
841114
841256
841400
841544
841692
841840
841988
842136
842282
842430
842576
842722
842868
843014
843164
843312
843458
843606
843752
843898
844042
844190
844336
844484
844632
844780
844930
845082
845232
845382
845532
845680
845830
845980
846128
846276
846424
846570
846716
846860
847006
847154
847300
847446
847594
847742
847890
848046
848208
848370
848532
848694
848852
849008
849162
849316
849466
849616
849764
849916
850066
850212
850358
850504
850648
850792
850938
851088
851238
851388
851540
851692
851842
851994
852148
852302
852456
852608
852760
852912
853064
853214
853364
853514
853660
853810
853960
854110
854262
854414
854568
854726
854884
855044
855208
855368
855528
855684
855842
856002
856154
856308
856458
856610
856760
856910
857062
857216
857368
857524
857678
857834
857990
858144
858300
858452
858606
858758
858910
859060
859212
859362
859514
859662
859812
859962
860112
860260
860406
860552
860702
860852
861002
861154
861302
861450
861596
861740
861886
862036
862188
862342
862498
862658
862822
862984
863142
863296
863448
863598
863748
863896
864046
864196
864346
864500
864652
864806
864958
865114
865272
865430
865586
865748
865906
866064
866222
866380
866534
866688
866840
866992
867146
867302
867458
867616
867778
867934
868092
868248
868404
868558
868714
868868
869020
869172
869322
869472
869624
869776
869928
870084
870240
870396
870552
870710
870870
871026
871184
871342
871494
871648
871800
871952
872106
872260
872414
872566
872720
872870
873024
873174
873324
873474
873624
873772
873922
874072
874224
874376
874528
874682
874836
874990
875142
875294
875442
875592
875742
875890
876038
876186
876334
876482
876630
876780
876932
877086
877242
877400
877556
877713
877868
878016
878171
878319
878470
878617
878770
878916
879062
879210
879358
879508
879660
879810
879962
880112
880262
880412
880562
880714
880866
881016
881170
881324
881474
881624
881774
881924
882074
882226
882380
882536
882684
882836
882988
883140
883290
883442
883596
883742
883896
884044
884196
884348
884500
884654
884808
884964
885124
885278
885430
885584
885736
885890
886040
886192
886342
886492
886644
886798
886952
887104
887260
887414
887570
887724
887880
888034
888190
888344
888498
888652
888804
888952
889098
889246
889392
889536
889680
889826
889970
890114
890258
890406
890552
890700
890850
891000
891152
891302
891452
891604
891756
891910
892062
892216
892372
892524
892678
892828
892980
893130
893278
893428
893574
893722
893868
894014
894162
894308
894454
894600
894746
894894
895042
895190
895340
895488
895636
895784
895932
896080
896228
896374
896522
896672
896822
896972
897122
897272
897422
897576
897728
897882
898032
898180
898330
898478
898626
898776
898924
899072
899220
899368
899516
899662
899810
899956
900102
900250
900398
900548
900696
900842
900990
901138
901284
901432
901576
901718
901866
902004
902146
902286
902426
902568
902710
902852
902994
903138
903280
903424
903566
903706
903848
903988
904130
904272
904416
904562
904706
904852
904998
905142
905286
905430
905574
905718
905862
906004
906146
906286
906426
906566
906706
906836
906990
907132
907274
907418
907562
907704
907846
907994
908138
908283
908428
908566
908708
908848
908988
909134
909264
909402
909540
909676
909812
909948
910088
910228
910370
910510
910654
910800
910944
911088
911234
911380
911526
911678
911816
911970
912107
912246
912388
912527
912669
912811
912944
913088
913230
913364
913502
913640
913778
913916
914052
914190
914316
914466
914606
914744
914884
915024
915162
915300
915440
915580
915722
915862
916006
916150
916294
916440
916584
916730
916874
917018
917162
917306
917452
917594
917736
917880
918024
918168
918312
918454
918596
918738
918880
919022
919166
919306
919448
919592
919736
919882
920026
920172
920320
920466
920610
920756
920902
921046
921192
921336
921482
921626
921774
921920
922068
922216
922364
922510
922656
922804
922952
923100
923250
923398
923546
923694
923842
923988
924134
924282
924426
924572
924716
924862
925006
925154
925300
925444
925590
925734
925880
926024
926168
926314
926460
926606
926754
926902
927050
927196
927344
927488
927634
927780
927922
928066
928206
928348
928490
928630
928772
928916
929058
929202
929344
929488
929628
929770
929912
930052
930194
930334
930476
930616
930758
930898
931038
931178
931322
931464
931606
931746
931888
932028
932168
932308
932450
932590
932732
932874
933014
933156
933298
933450
933584
933728
933872
934016
934160
934302
934442
934584
934724
934862
935002
935142
935282
935422
935562
935709
935848
935992
936136
936282
936428
936574
936720
936864
937008
937148
937290
937432
937574
937714
937854
937994
938136
938282
938426
938572
938718
938864
939016
939168
939320
939472
939622
939770
939922
940072
940218
940364
940508
940652
940794
940936
941078
941220
941362
941504
941646
941792
941936
942082
942228
942374
942524
942672
942822
942972
943122
943272
943424
943574
943722
943872
944022
944170
944318
944466
944616
944762
944910
945058
945204
945354
945506
945660
945816
945974
946132
946280
946442
946596
946748
946896
947046
947192
947338
947482
947628
947770
947912
948054
948194
948336
948482
948624
948768
948910
949054
949198
949340
949484
949626
949768
949914
950058
950202
950346
950490
950634
950776
950920
951064
951208
951350
951492
951634
951776
951918
952060
952202
952346
952488
952630
952772
952912
953054
953198
953344
953494
953644
953798
953946
954092
954236
954382
954528
954676
954824
954976
955128
955280
955432
955588
955740
955894
956048
956204
956356
956508
956658
956806
956952
957096
957242
957384
957526
957670
957812
957954
958098
958240
958384
958530
958676
958822
958970
959116
959260
959406
959550
959694
959838
959982
960124
960266
960408
960550
960692
960834
960978
961122
961266
961410
961554
961698
961844
961988
962132
962276
962420
962562
962704
962848
962990
963130
963270
963410
963550
963692
963832
963974
964116
964262
964408
964554
964700
964844
964990
965134
965276
965422
965566
965710
965852
965998
966142
966286
966426
966566
966706
966846
966986
967130
967274
967420
967566
967714
967860
968008
968154
968300
968444
968586
968728
968868
969008
969148
969286
969430
969564
969704
969842
969980
970118
970256
970394
970532
970676
970816
970958
971100
971244
971386
971532
971676
971820
971962
972104
972244
972384
972524
972664
972806
972950
973092
973236
973382
973528
973676
973820
973966
974110
974252
974394
974536
974678
974818
974960
975104
975248
975392
975536
975680
975822
975966
976110
976256
976400
976546
976690
976834
976978
977122
977262
977402
977540
977678
977816
977956
978098
978240
978380
978522
978662
978804
978942
979082
979224
979372
979524
979674
979822
979972
980124
980274
980426
980578
980728
980878
981026
981174
981320
981466
981612
981760
981904
982048
982192
982334
982476
982620
982764
982908
983056
983204
983354
983504
983652
983804
983954
984104
984254
984402
984554
984704
984852
985000
985148
985296
985446
985596
985746
985896
986050
986202
986356
986512
986672
986838
987004
987166
987326
987482
987636
987788
987938
988086
988230
988374
988518
988662
988810
988958
989104
989254
989404
989558
989710
989864
990020
990176
990332
990490
990642
990800
990954
991110
991264
991418
991568
991716
991866
992012
992156
992300
992444
992586
992726
992868
993008
993148
993290
993432
993576
993720
993868
994016
994166
994318
994468
994620
994772
994924
995076
995230
995382
995534
995686
995838
995988
996138
996290
996440
996590
996738
996886
997034
997180
997326
997472
997620
997766
997910
998060
998206
998352
998500
998648
998794
998942
999094
999244
999394
999546
999696
999848
1000000
1000152
1000302
1000454
1000604
1000752
1000902
1001052
1001200
1001350
1001500
1001648
1001796
1001944
1002086
1002226
1002368
1002508
1002648
1002786
1002924
1003060
1003198
1003334
1003472
1003608
1003744
1003880
1004018
1004158
1004296
1004436
1004578
1004720
1004864
1005010
1005156
1005302
1005448
1005596
1005746
1005894
1006044
1006194
1006346
1006496
1006650
1006802
1006952
1007108
1007264
1007422
1007588
1007754
1007920
1008086
1008254
1008422
1008586
1008746
1008904
1009058
1009210
1009364
1009516
1009672
1009828
1009980
1010132
1010282
1010432
1010584
1010738
1010896
1011056
1011216
1011376
1011536
1011694
1011852
1012010
1012166
1012322
1012478
1012632
1012788
1012944
1013102
1013258
1013414
1013570
1013724
1013878
1014032
1014184
1014336
1014488
1014640
1014790
1014942
1015094
1015248
1015398
1015550
1015704
1015860
1016018
1016172
1016326
1016478
1016630
1016782
1016934
1017088
1017240
1017394
1017548
1017700
1017850
1017998
1018146
1018292
1018440
1018588
1018740
1018896
1019052
1019216
1019380
1019552
1019726
1019900
1020072
1020244
1020406
1020566
1020724
1020882
1021040
1021198
1021356
1021516
1021676
1021836
1021994
1022152
1022308
1022464
1022620
1022774
1022930
1023084
1023238
1023394
1023552
1023714
1023874
1024040
1024204
1024370
1024534
1024696
1024860
1025022
1025184
1025346
1025506
1025664
1025824
1025980
1026136
1026294
1026450
1026606
1026760
1026918
1027078
1027238
1027394
1027552
1027710
1027868
1028026
1028182
1028338
1028496
1028652
1028808
1028964
1029116
1029272
1029428
1029584
1029740
1029894
1030046
1030200
1030354
1030508
1030666
1030818
1030966
1031118
1031272
1031416
1031568
1031716
1031868
1032024
1032178
1032334
1032488
1032640
1032790
1032938
1033086
1033236
1033384
1033532
1033678
1033824
1033970
1034114
1034260
1034404
1034538
1034692
1034836
1034980
1035126
1035270
1035414
1035560
1035704
1035848
1035996
1036142
1036292
1036442
1036590
1036738
1036884
1037036
1037178
1037324
1037472
1037620
1037768
1037914
1038062
1038210
1038356
1038504
1038654
1038804
1038954
1039104
1039254
1039402
1039552
1039702
1039848
1039998
1040146
1040294
1040442
1040590
1040738
1040886
1041032
1041180
1041328
1041478
1041628
1041778
1041932
1042086
1042242
1042398
1042554
1042710
1042868
1043026
1043184
1043344
1043504
1043666
1043828
1043990
1044152
1044314
1044474
1044632
1044788
1044948
1045106
1045262
1045420
1045578
1045734
1045892
1046048
1046204
1046360
1046514
1046668
1046820
1046972
1047124
1047274
1047424
1047574
1047724
1047872
1048024
1048172
1048320
1048470
1048622
1048776
1048930
1049086
1049244
1049406
1049566
1049724
1049880
1050038
1050194
1050348
1050502
1050654
1050808
1050958
1051110
1051264
1051420
1051580
1051746
1051906
1052070
1052232
1052392
1052552
1052712
1052870
1053028
1053188
1053344
1053504
1053664
1053822
1053980
1054138
1054296
1054454
1054610
1054768
1054926
1055082
1055238
1055392
1055544
1055696
1055846
1055996
1056152
1056308
1056464
1056622
1056780
1056940
1057102
1057258
1057416
1057574
1057728
1057882
1058036
1058188
1058342
1058498
1058652
1058808
1058964
1059120
1059274
1059426
1059580
1059730
1059882
1060036
1060190
1060344
1060498
1060654
1060808
1060962
1061116
1061268
1061422
1061578
1061732
1061890
1062054
1062220
1062386
1062550
1062710
1062868
1063024
1063182
1063336
1063492
1063646
1063802
1063956
1064112
1064268
1064424
1064588
1064740
1064896
1065051
1065210
1065370
1065529
1065690
1065856
1066012
1066176
1066338
1066502
1066664
1066830
1066990
1067148
1067306
1067462
1067616
1067768
1067920
1068072
1068222
1068374
1068528
1068686
1068846
1069012
1069176
1069342
1069506
1069668
1069830
1069992
1070150
1070308
1070466
1070624
1070780
1070942
1071102
1071260
1071418
1071576
1071732
1071888
1072046
1072202
1072356
1072508
1072662
1072814
1072966
1073118
1073272
1073430
1073586
1073744
1073906
1074070
1074234
1074402
1074570
1074736
1074898
1075060
1075222
1075386
1075546
1075704
1075864
1076024
1076182
1076336
1076490
1076646
1076804
1076960
1077116
1077272
1077428
1077588
1077748
1077908
1078066
1078224
1078380
1078536
1078694
1078850
1079006
1079160
1079316
1079474
1079632
1079792
1079954
1080120
1080286
1080452
1080618
1080786
1080952
1081118
1081284
1081446
1081606
1081766
1081924
1082082
1082240
1082394
1082550
1082706
1082860
1083014
1083166
1083318
1083472
1083630
1083788
1083950
1084114
1084278
1084442
1084606
1084768
1084926
1085082
1085240
1085396
1085550
1085704
1085858
1086014
1086172
1086332
1086492
1086654
1086820
1086984
1087150
1087318
1087484
1087650
1087812
1087974
1088140
1088304
1088466
1088626
1088784
1088940
1089094
1089250
1089402
1089556
1089710
1089864
1090020
1090178
1090342
1090508
1090674
1090840
1091006
1091170
1091332
1091490
1091648
1091806
1091964
1092118
1092272
1092430
1092584
1092736
1092886
1093038
1093190
1093340
1093492
1093646
1093804
1093962
1094124
1094288
1094452
1094616
1094780
1094940
1095098
1095256
1095414
1095574
1095730
1095884
1096038
1096192
1096348
1096504
1096662
1096818
1096976
1097132
1097288
1097444
1097600
1097754
1097908
1098064
1098218
1098374
1098528
1098682
1098836
1098988
1099140
1099292
1099444
1099598
1099750
1099898
1100048
1100200
1100350
1100496
1100642
1100790
1100938
1101088
1101240
1101392
1101544
1101694
1101840
1101988
1102134
1102280
1102430
1102576
1102720
1102864
1103006
1103152
1103296
1103440
1103586
1103730
1103872
1104016
1104162
1104308
1104454
1104602
1104756
1104910
1105070
1105234
1105400
1105572
1105742
1105914
1106084
1106248
1106410
1106572
1106732
1106888
1107042
1107200
1107360
1107522
1107688
1107858
1108026
1108198
1108370
1108544
1108718
1108892
1109068
1109244
1109418
1109594
1109772
1109948
1110122
1110300
1110480
1110658
1110834
1111012
1111190
1111366
1111542
1111716
1111888
1112058
1112230
1112400
1112570
1112740
1112910
1113084
1113256
1113430
1113604
1113780
1113954
1114128
1114300
1114474
1114650
1114824
1114992
1115160
1115328
1115492
1115654
1115814
1115972
1116132
1116292
1116450
1116608
1116772
1116925
1117083
1117253
1117414
1117586
1117759
1117935
1118102
1118294
1118478
1118646
1118824
1118998
1119170
1119344
1119516
1119686
1119858
1120028
1120198
1120370
1120544
1120716
1120888
1121060
1121232
1121404
1121572
1121742
1121910
1122080
1122248
1122416
1122586
1122758
1122928
1123100
1123272
1123442
1123614
1123786
1123958
1124128
1124298
1124466
1124634
1124802
1124972
1125142
1125312
1125484
1125656
1125830
1126008
1126186
1126362
1126538
1126712
1126884
1127056
1127230
1127404
1127580
1127756
1127932
1128108
1128280
1128456
1128634
1128808
1128980
1129154
1129330
1129502
1129672
1129844
1130018
1130188
1130360
1130532
1130704
1130874
1131044
1131214
1131376
1131536
1131698
1131864
1132032
1132202
1132376
1132554
1132730
1132904
1133082
1133258
1133432
1133604
1133776
1133946
1134122
1134294
1134456
1134618
1134784
1134940
1135096
1135250
1135406
1135564
1135726
1135888
1136056
1136224
1136390
1136556
1136726
1136896
1137068
1137238
1137412
1137586
1137760
1137934
1138108
1138282
1138452
1138622
1138794
1138968
1139140
1139308
1139474
1139642
1139808
1139976
1140144
1140308
1140472
1140636
1140798
1140958
1141116
1141272
1141428
1141584
1141740
1141894
1142050
1142202
1142356
1142512
1142676
1142842
1143010
1143180
1143350
1143522
1143692
1143862
1144030
1144198
1144366
1144536
1144702
1144872
1145042
1145216
1145388
1145560
1145732
1145902
1146076
1146250
1146428
1146604
1146780
1146958
1147138
1147314
1147488
1147664
1147844
1148022
1148188
1148370
1148540
1148708
1148874
1149034
1149196
1149352
1149508
1149662
1149820
1149974
1150128
1150284
1150440
1150598
1150756
1150910
1151066
1151224
1151384
1151544
1151706
1151870
1152036
1152202
1152368
1152532
1152694
1152854
1153016
1153176
1153336
1153496
1153656
1153816
1153976
1154138
1154302
1154466
1154634
1154802
1154972
1155142
1155310
1155476
1155640
1155800
1155958
1156116
1156274
1156430
1156590
1156748
1156908
1157064
1157218
1157374
1157526
1157682
1157838
1157996
1158154
1158310
1158464
1158620
1158774
1158928
1159080
1159230
1159384
1159540
1159698
1159856
1160020
1160186
1160356
1160526
1160694
1160866
1161036
1161206
1161376
1161544
1161710
1161878
1162044
1162212
1162380
1162550
1162718
1162892
1163070
1163250
1163428
1163602
1163776
1163950
1164124
1164296
1164470
1164646
1164822
1164998
1165176
1165358
1165540
1165722
1165902
1166080
1166254
1166422
1166586
1166750
1166910
1167070
1167228
1167388
1167548
1167712
1167878
1168044
1168208
1168370
1168528
1168684
1168838
1168992
1169144
1169298
1169452
1169604
1169754
1169908
1170066
1170224
1170380
1170538
1170692
1170844
1170994
1171146
1171294
1171442
1171590
1171736
1171882
1172028
1172174
1172316
1172460
1172602
1172746
1172888
1173032
1173176
1173320
1173464
1173608
1173756
1173904
1174056
1174208
1174364
1174514
1174666
1174816
1174968
1175116
1175264
1175412
1175558
1175706
1175850
1175994
1176142
1176290
1176440
1176590
1176738
1176888
1177038
1177188
1177338
1177490
1177642
1177790
1177940
1178090
1178240
1178394
1178548
1178698
1178850
1179002
1179152
1179304
1179452
1179602
1179754
1179906
1180060
1180214
1180366
1180518
1180662
1180814
1180962
1181106
1181252
1181394
1181536
1181678
1181818
1181962
1182100
1182240
1182380
1182522
1182662
1182800
1182940
1183080
1183220
1183360
1183500
1183640
1183782
1183922
1184066
1184208
1184350
1184492
1184634
1184776
1184918
1185060
1185202
1185344
1185488
1185630
1185772
1185916
1186060
1186204
1186348
1186490
1186630
1186770
1186910
1187048
1187188
1187326
1187468
1187614
1187760
1187906
1188050
1188192
1188334
1188472
1188614
1188752
1188890
1189028
1189166
1189304
1189442
1189580
1189718
1189856
1189994
1190130
1190268
1190404
1190542
1190678
1190816
1190954
1191090
1191226
1191364
1191502
1191636
1191774
1191910
1192046
1192186
1192324
1192464
1192602
1192742
1192880
1193020
1193158
1193300
1193440
1193582
1193724
1193866
1194006
1194146
1194288
1194428
1194568
1194708
1194850
1194990
1195132
1195274
1195416
1195556
1195698
1195836
1195976
1196118
1196258
1196398
1196540
1196684
1196830
1196976
1197124
1197272
1197422
1197574
1197724
1197870
1198018
1198164
1198308
1198454
1198598
1198744
1198890
1199038
1199184
1199330
1199474
1199620
1199768
1199914
1200060
1200206
1200352
1200498
1200642
1200786
1200920
1201072
1201216
1201360
1201504
1201646
1201790
1201932
1202076
1202222
1202366
1202510
1202654
1202800
1202950
1203088
1203232
1203374
1203518
1203660
1203802
1203944
1204086
1204226
1204368
1204512
1204654
1204798
1204942
1205084
1205224
1205368
1205512
1205654
1205796
1205942
1206088
1206232
1206376
1206522
1206666
1206812
1206960
1207106
1207254
1207400
1207546
1207694
1207838
1207984
1208126
1208272
1208414
1208556
1208698
1208840
1208982
1209124
1209268
1209410
1209556
1209704
1209852
1210004
1210156
1210310
1210464
1210620
1210778
1210950
1211124
1211290
1211454
1211620
1211784
1211944
1212104
1212262
1212420
1212570
1212720
1212868
1213014
1213164
1213308
1213454
1213600
1213750
1213900
1214048
1214196
1214344
1214490
1214634
1214780
1214922
1215068
1215212
1215356
1215502
1215646
1215788
1215932
1216076
1216222
1216366
1216508
1216650
1216790
1216936
1217082
1217230
1217378
1217524
1217672
1217816
1217962
1218106
1218250
1218396
1218540
1218682
1218824
1218966
1219108
1219248
1219390
1219530
1219670
1219812
1219954
1220096
1220238
1220388
1220534
1220680
1220824
1220968
1221114
1221256
1221398
1221542
1221684
1221824
1221966
1222108
1222248
1222390
1222530
1222674
1222814
1222958
1223102
1223246
1223390
1223534
1223678
1223824
1223968
1224114
1224262
1224408
1224554
1224700
1224846
1224990
1225136
1225280
1225424
1225566
1225710
1225854
1225996
1226142
1226286
1226430
1226574
1226718
1226862
1227006
1227150
1227292
1227434
1227578
1227718
1227858
1227998
1228140
1228280
1228420
1228562
1228704
1228844
1228986
1229128
1229270
1229410
1229550
1229690
1229830
1229968
1230108
1230246
1230386
1230524
1230662
1230800
1230938
1231076
1231216
1231352
1231468
1231618
1231758
1231898
1232038
1232180
1232318
1232458
1232598
1232736
1232874
1233014
1233152
1233288
1233426
1233564
1233702
1233838
1233974
1234112
1234248
1234386
1234524
1234660
1234798
1234936
1235074
1235212
1235350
1235488
1235624
1235762
1235900
1236036
1236174
1236310
1236448
1236584
1236720
1236856
1236994
1237114
1237266
1237402
1237536
1237672
1237806
1237942
1238076
1238208
1238340
1238472
1238602
1238732
1238864
1238996
1239130
1239262
1239392
1239524
1239656
1239786
1239918
1240050
1240182
1240314
1240444
1240578
1240710
1240844
1240976
1241108
1241242
1241374
1241506
1241636
1241768
1241900
1242032
1242164
1242296
1242428
1242560
1242692
1242824
1242954
1243084
1243214
1243346
1243476
1243606
1243736
1243868
1243998
1244130
1244262
1244394
1244524
1244656
1244788
1244918
1245048
1245178
1245308
1245436
1245566
1245696
1245824
1245954
1246084
1246212
1246342
1246470
1246600
1246728
1246856
1246984
1247116
1247246
1247376
1247506
1247634
1247766
1247894
1248024
1248152
1248282
1248412
1248544
1248672
1248800
1248928
1249056
1249186
1249314
1249444
1249574
1249704
1249834
1249964
1250094
1250226
1250354
1250484
1250614
1250744
1250874
1251004
1251134
1251264
1251396
1251526
1251658
1251788
1251918
1252048
1252180
1252310
1252442
1252572
1252702
1252834
1252964
1253096
1253226
1253358
1253494
1253626
1253752
1253884
1254016
1254146
1254274
1254380
1254530
1254666
1254800
1254934
1255064
1255200
1255334
1255470
1255606
1255740
1255874
1256008
1256142
1256274
1256406
1256536
1256670
1256800
1256932
1257064
1257196
1257328
1257460
1257594
1257728
1257864
1257998
1258130
1258264
1258398
1258530
1258662
1258794
1258932
1259058
1259188
1259318
1259450
1259580
1259712
1259846
1259978
1260110
1260244
1260376
1260508
1260638
1260768
1260898
1261030
1261164
1261296
1261430
1261562
1261694
1261828
1261960
1262092
1262226
1262358
1262488
1262620
1262750
1262884
1263016
1263148
1263282
1263416
1263548
1263682
1263814
1263946
1264078
1264206
1264338
1264470
1264604
1264738
1264870
1265004
1265136
1265270
1265402
1265536
1265668
1265802
1265936
1266070
1266204
1266338
1266474
1266608
1266744
1266880
1267014
1267150
1267286
1267420
1267556
1267690
1267826
1267960
1268096
1268232
1268366
1268502
1268638
1268772
1268908
1269042
1269178
1269314
1269450
1269586
1269724
1269860
1269998
1270134
1270270
1270406
1270542
1270676
1270812
1270946
1271080
1271212
1271344
1271478
1271612
1271746
1271880
1272014
1272150
1272284
1272416
1272552
1272686
1272820
1272954
1273088
1273222
1273356
1273488
1273620
1273752
1273882
1274012
1274144
1274276
1274406
1274538
1274666
1274798
1274928
1275058
1275188
1275318
1275448
1275578
1275710
1275840
1275970
1276100
1276230
1276360
1276490
1276620
1276752
1276882
1277012
1277144
1277276
1277406
1277538
1277668
1277800
1277930
1278062
1278192
1278322
1278452
1278582
1278712
1278842
1278974
1279102
1279232
1279364
1279494
1279624
1279754
1279884
1280014
1280146
1280276
1280408
1280538
1280670
1280800
1280930
1281060
1281192
1281322
1281454
1281584
1281716
1281848
1281978
1282110
1282242
1282372
1282504
1282636
1282768
1282900
1283034
1283168
1283300
1283434
1283566
1283698
1283826
1283960
1284096
1284234
1284370
1284502
1284638
1284774
1284910
1285044
1285176
1285308
1285438
1285566
1285696
1285826
1285956
1286084
1286214
1286346
1286478
1286608
1286740
1286872
1287004
1287136
1287270
1287402
1287536
1287668
1287800
1287932
1288066
1288198
1288330
1288462
1288594
1288726
1288858
1288992
1289122
1289256
1289386
1289518
1289650
1289784
1289916
1290048
1290182
1290314
1290450
1290580
1290712
1290844
1290976
1291106
1291250
1291374
1291514
1291646
1291778
1291902
1292032
1292164
1292296
1292426
1292556
1292686
1292818
1292948
1293078
1293208
1293340
1293470
1293600
1293732
1293862
1293992
1294122
1294254
1294382
1294510
1294640
1294774
1294896
1295026
1295154
1295284
1295410
1295540
1295670
1295798
1295926
1296056
1296186
1296314
1296444
1296574
1296702
1296834
1296964
1297094
1297224
1297354
1297486
1297614
1297744
1297874
1298004
1298134
1298264
1298394
1298524
1298656
1298788
1298918
1299048
1299180
1299312
1299444
1299576
1299710
1299842
1299974
1300106
1300238
1300370
1300502
1300634
1300766
1300904
1301032
1301166
1301300
1301432
1301566
1301698
1301830
1301962
1302100
1302234
1302366
1302492
1302624
1302756
1302886
1303018
1303150
1303282
1303416
1303548
1303684
1303814
1303948
1304082
1304214
1304346
1304476
1304608
1304740
1304870
1305002
1305134
1305264
1305396
1305526
1305660
1305792
1305926
1306060
1306194
1306326
1306458
1306590
1306722
1306852
1306984
1307116
1307246
1307378
1307510
1307640
1307772
1307904
1308036
1308168
1308302
1308436
1308570
1308702
1308836
1308970
1309104
1309238
1309378
1309506
1309640
1309774
1309908
1310042
1310176
1310308
1310442
1310576
1310708
1310842
1310976
1311110
1311242
1311374
1311506
1311640
1311772
1311904
1312036
1312170
1312302
1312436
1312568
1312700
1312834
1312966
1313100
1313234
1313368
1313500
1313634
1313768
1313900
1314034
1314166
1314298
1314430
1314564
1314696
1314830
1314962
1315099
1315228
1315363
1315477
1315619
1315748
1315880
1316012
1316146
1316280
1316414
1316550
1316684
1316818
1316952
1317086
1317218
1317350
1317482
1317610
1317744
1317878
1318012
1318154
1318284
1318418
1318552
1318686
1318818
1318952
1319084
1319216
1319348
1319482
1319614
1319746
1319876
1320010
1320140
1320272
1320402
1320534
1320666
1320798
1320930
1321060
1321192
1321324
1321456
1321588
1321720
1321852
1321988
1322114
1322244
1322374
1322504
1322634
1322764
1322894
1323024
1323152
1323282
1323410
1323538
1323666
1323794
1323922
1324050
1324178
1324306
1324434
1324562
1324694
1324814
1324940
1325068
1325194
1325322
1325450
1325580
1325702
1325828
1325954
1326078
1326204
1326330
1326462
1326582
1326706
1326832
1326958
1327082
1327206
1327332
1327456
1327580
1327706
1327832
1327958
1328084
1328210
1328336
1328460
1328582
1328712
1328838
1328962
1329088
1329214
1329340
1329464
1329590
1329716
1329840
1329966
1330094
1330220
1330346
1330474
1330600
1330728
1330854
1330982
1331108
1331236
1331362
1331490
1331618
1331746
1331874
1332004
1332132
1332262
1332390
1332518
1332644
1332770
1332896
1333028
1333148
1333274
1333402
1333528
1333656
1333782
1333908
1334036
1334162
1334288
1334414
1334542
1334666
1334792
1334918
1335046
1335170
1335296
1335426
1335546
1335670
1335796
1335920
1336044
1336170
1336294
1336418
1336542
1336668
1336792
1336916
1337042
1337166
1337290
1337416
1337540
1337664
1337790
1337916
1338040
1338164
1338290
1338416
1338542
1338668
1338800
1338922
1339048
1339174
1339300
1339426
1339550
1339676
1339806
1339926
1340050
1340182
1340304
1340430
1340564
1340688
1340816
1340946
1341076
1341206
1341336
1341466
1341596
1341724
1341854
1341982
1342110
1342240
1342366
1342494
1342622
1342750
1342878
1343010
1343132
1343260
1343388
1343518
1343646
1343776
1343906
1344042
1344168
1344298
1344430
1344562
1344694
1344826
1344958
1345088
1345220
1345352
1345482
1345610
1345740
1345868
1346002
1346132
1346264
1346396
1346528
1346658
1346790
1346920
1347050
1347180
1347310
1347442
1347574
1347708
1347842
1347976
1348112
1348246
1348380
1348514
1348646
1348778
1348910
1349040
1349172
1349304
1349434
1349566
1349698
1349830
1349962
1350096
1350228
1350360
1350494
1350628
1350766
1350898
1351034
1351168
1351298
1351437
1351582
1351726
1351868
1352014
1352162
1352308
1352454
1352598
1352742
1352882
1353020
1353154
1353290
1353424
1353558
1353690
1353822
1353954
1354086
1354216
1354348
1354480
1354612
1354746
1354878
1355014
1355148
1355286
1355422
1355560
1355696
1355834
1355972
1356108
1356242
1356378
1356514
1356650
1356786
1356920
1357054
1357192
1357328
1357464
1357600
1357736
1357872
1358008
1358146
1358282
1358418
1358560
1358696
1358834
1358970
1359104
1359236
1359370
1359502
1359634
1359768
1359902
1360038
1360176
1360316
1360454
1360596
1360736
1360878
1361020
1361160
1361302
1361440
1361580
1361720
1361858
1362000
1362142
1362284
1362430
1362576
1362726
1362872
1363020
1363166
1363312
1363456
1363600
1363742
1363886
1364030
1364172
1364316
1364458
1364600
1364742
1364884
1365028
1365172
1365318
1365464
1365614
1365762
1365912
1366058
1366204
1366350
1366494
1366640
1366784
1366932
1367076
1367222
1367368
1367512
1367660
1367808
1367958
1368106
1368254
1368402
1368546
1368692
1368836
1368978
1369120
1369256
1369396
1369538
1369684
1369830
1369980
1370130
1370280
1370428
1370576
1370724
1370870
1371012
1371158
1371302
1371446
1371590
1371734
1371882
1372028
1372176
1372322
1372468
1372616
1372766
1372916
1373062
1373208
1373354
1373496
1373638
1373780
1373920
1374058
1374198
1374338
1374476
1374616
1374756
1374894
1375034
1375174
1375316
1375456
1375596
1375734
1375874
1376012
1376152
1376292
1376434
1376574
1376714
1376852
1376994
1377132
1377272
1377414
1377554
1377694
1377834
1377976
1378116
1378258
1378400
1378540
1378682
1378822
1378962
1379100
1379240
1379382
1379520
1379662
1379804
1379946
1380090
1380238
1380382
1380526
1380670
1380822
1380972
1381120
1381266
1381412
1381558
1381702
1381850
1382000
1382154
1382308
1382458
1382610
1382760
1382904
1383048
1383188
1383326
1383464
1383602
1383740
1383878
1384018
1384158
1384296
1384438
1384576
1384714
1384854
1384994
1385134
1385276
1385416
1385558
1385702
1385846
1385990
1386134
1386280
1386424
1386570
1386716
1386862
1387006
1387148
1387290
1387432
1387572
1387710
1387848
1387986
1388124
1388262
1388402
1388542
1388678
1388816
1388956
1389092
1389230
1389366
1389502
1389636
1389772
1389906
1390040
1390174
1390306
1390440
1390572
1390706
1390840
1390974
1391108
1391242
1391376
1391508
1391642
1391772
1391904
1392038
1392172
1392304
1392438
1392570
1392702
1392836
1392972
1393106
1393242
1393376
1393512
1393646
1393782
1393916
1394050
1394184
1394318
1394452
1394588
1394724
1394858
1394994
1395130
1395266
1395402
1395538
1395676
1395812
1395948
1396084
1396220
1396354
1396490
1396624
1396764
1396894
1397030
1397166
1397300
1397434
1397570
1397702
1397836
1397970
1398104
1398236
1398371
1398498
1398630
1398762
1398888
1399024
1399154
1399284
1399414
1399544
1399674
1399804
1399934
1400064
1400192
1400322
1400450
1400580
1400708
1400838
1400968
1401098
1401226
1401356
1401486
1401616
1401746
1401874
1402004
1402134
1402262
1402392
1402520
1402650
1402778
1402908
1403038
1403166
1403296
1403426
1403556
1403686
1403814
1403942
1404072
1404198
1404326
1404456
1404582
1404712
1404838
1404966
1405096
1405224
1405352
1405482
1405612
1405742
1405872
1406004
1406134
1406264
1406394
1406526
1406652
1406784
1406914
1407044
1407172
1407302
1407430
1407560
1407688
1407818
1407944
1408072
1408200
1408326
1408458
1408582
1408710
1408836
1408962
1409088
1409214
1409340
1409466
1409594
1409720
1409846
1409972
1410098
1410224
1410350
1410476
1410602
1410728
1410856
1410982
1411108
1411234
1411360
1411486
1411618
1411740
1411866
1411992
1412120
1412246
1412374
1412500
1412626
1412752
1412878
1413004
1413130
1413258
1413386
1413508
1413632
1413758
1413890
1414009
1414136
1414261
1414382
1414504
1414628
1414758
1414877
1414998
1415122
1415244
1415368
1415494
1415615
1415734
1415856
1415978
1416102
1416224
1416345
1416464
1416600
1416712
1416836
1416958
1417082
1417204
1417326
1417448
1417570
1417692
1417814
1417936
1418058
1418182
1418304
1418426
1418550
1418672
1418796
1418918
1419042
1419166
1419290
1419412
1419536
1419660
1419784
1419906
1420030
1420154
1420278
1420402
1420526
1420650
1420774
1420898
1421022
1421146
1421270
1421392
1421518
1421648
1421772
1421894
1422024
1422144
1422274
1422394
1422518
1422644
1422768
1422892
1423018
1423142
1423268
1423392
1423518
1423642
1423768
1423894
1424022
1424148
1424274
1424402
1424530
1424656
1424784
1424910
1425034
1425158
1425284
1425410
1425534
1425660
1425784
1425910
1426038
1426164
1426290
1426422
1426542
1426668
1426796
1426922
1427050
1427178
1427304
1427434
1427564
1427694
1427826
1427956
1428086
1428216
1428346
1428474
1428604
1428734
1428864
1428994
1429124
1429254
1429382
1429512
1429644
1429776
1429904
1430036
1430166
1430296
1430428
1430558
1430690
1430820
1430952
1431084
1431216
1431348
1431480
1431614
1431750
1431884
1432018
1432152
1432286
1432420
1432554
1432684
1432816
1432948
1433078
1433210
1433340
1433470
1433602
1433732
1433864
1433996
1434126
1434258
1434388
1434520
1434650
1434780
1434910
1435042
1435170
1435300
1435428
1435558
1435686
1435814
1435944
1436070
1436200
1436330
1436458
1436590
1436720
1436850
1436980
1437112
1437244
1437374
1437504
1437636
1437766
1437898
1438030
1438160
1438292
1438424
1438556
1438686
1438818
1438950
1439082
1439214
1439346
1439476
1439608
1439738
1439870
1440002
1440132
1440262
1440392
1440524
1440656
1440788
1440920
1441050
1441182
1441314
1441446
1441578
1441710
1441842
1441972
1442104
1442234
1442366
1442496
1442626
1442756
1442886
1443016
1443148
1443278
1443410
1443542
1443672
1443804
1443936
1444068
1444202
1444334
1444468
1444602
1444734
1444868
1445002
1445138
1445266
1445400
1445530
1445662
1445792
1445922
1446052
1446182
1446314
1446444
1446574
1446706
1446836
1446970
1447100
1447232
1447364
1447494
1447626
1447756
1447888
1448018
1448148
1448278
1448408
1448540
1448670
1448802
1448932
1449064
1449196
1449328
1449460
1449592
1449722
1449854
1449986
1450116
1450248
1450378
1450510
1450642
1450774
1450908
1451040
1451172
1451306
1451438
1451570
1451704
1451838
1451970
1452102
1452234
1452366
1452498
1452630
1452762
1452892
1453024
1453156
1453286
1453418
1453548
1453680
1453810
1453942
1454072
1454204
1454334
1454466
1454598
1454728
1454860
1454990
1455118
1455248
1455376
1455506
1455634
1455762
1455892
1456020
1456150
1456280
1456408
1456536
1456666
1456794
1456922
1457052
1457182
1457312
1457440
1457570
1457700
1457830
1457958
1458088
1458220
1458350
1458480
1458610
1458746
1458872
1459000
1459130
1459260
1459388
1459520
1459642
1459770
1459896
1460022
1460150
1460276
1460402
1460528
1460654
1460780
1460906
1461030
1461156
1461282
1461412
1461532
1461656
1461780
1461910
1462028
1462152
1462274
1462401
1462520
1462644
1462768
1462890
1463014
1463143
1463260
1463386
1463510
1463634
1463758
1463882
1464008
1464130
1464254
1464378
1464506
1464636
1464759
1464876
1465000
1465124
1465246
1465370
1465494
1465616
1465740
1465862
1465986
1466108
1466230
1466354
1466478
1466598
1466722
1466842
1466964
1467086
1467208
1467328
1467452
1467572
1467694
1467816
1467938
1468060
1468180
1468302
1468424
1468540
1468666
1468788
1468908
1469028
1469148
1469270
1469390
1469510
1469632
1469750
1469872
1469992
1470114
1470236
1470356
1470476
1470596
1470716
1470838
1470958
1471076
1471194
1471310
1471434
1471554
1471672
1471790
1471908
1472026
1472144
1472262
1472382
1472498
1472616
1472732
1472852
1472970
1473086
1473202
1473320
1473438
1473556
1473674
1473792
1473914
1474028
1474146
1474260
1474376
1474498
1474616
1474732
1474850
1474966
1475082
1475200
1475316
1475432
1475548
1475669
1475778
1475894
1476010
1476126
1476240
1476356
1476470
1476584
1476700
1476814
1476928
1477042
1477156
1477270
1477384
1477496
1477610
1477724
1477838
1477952
1478066
1478178
1478296
1478404
1478518
1478630
1478744
1478858
1478972
1479086
1479198
1479312
1479426
1479538
1479654
1479768
1479882
1479996
1480110
1480224
1480338
1480454
1480568
1480682
1480796
1480912
1481026
1481142
1481256
1481374
1481488
1481604
1481720
1481836
1481952
1482068
1482186
1482302
1482420
1482536
1482654
1482770
1482888
1483008
1483128
1483248
1483370
1483492
1483614
1483738
1483862
1483984
1484108
1484230
1484354
1484476
1484600
1484724
1484846
1484970
1485092
1485216
1485340
1485464
1485590
1485716
1485842
1485968
1486094
1486222
1486346
1486470
1486596
1486722
1486850
1486978
1487106
1487236
1487370
1487498
1487626
1487756
1487888
1488026
1488142
1488278
1488406
1488536
1488664
1488792
1488918
1489044
1489170
1489296
1489422
1489548
1489674
1489802
1489928
1490058
1490188
1490318
1490448
1490576
1490706
1490834
1490962
1491090
1491218
1491346
1491472
1491600
1491728
1491854
1491982
1492112
1492240
1492368
1492498
1492630
1492762
1492892
1493026
1493158
1493288
1493420
1493548
1493678
1493808
1493936
1494066
1494196
1494326
1494458
1494592
1494724
1494860
1494998
1495134
1495270
1495406
1495540
1495676
1495808
1495942
1496074
1496206
1496338
1496472
1496604
1496738
1496872
1497006
1497140
1497274
1497408
1497542
1497676
1497810
1497944
1498078
1498210
1498342
1498476
1498608
1498740
1498872
1499004
1499138
1499272
1499408
1499544
1499678
1499814
1499946
1500078
1500210
1500340
1500472
1500604
1500738
1500872
1501006
1501140
1501274
1501404
1501536
1501668
1501798
1501928
1502058
1502188
1502318
1502448
1502576
1502708
1502842
1502974
1503108
1503238
1503370
1503500
1503632
1503760
1503890
1504020
1504148
1504276
1504404
1504532
1504662
1504790
1504918
1505046
1505174
1505302
1505430
1505558
1505686
1505812
1505938
1506064
1506188
1506314
1506438
1506564
1506690
1506814
1506942
1507066
1507192
1507318
1507444
1507570
1507698
1507824
1507950
1508076
1508202
1508328
1508454
1508580
1508704
1508830
1508956
1509082
1509210
1509338
1509464
1509592
1509718
1509846
1509972
1510098
1510224
1510350
1510476
1510604
1510730
1510856
1510980
1511106
1511230
1511354
1511478
1511602
1511726
1511850
1511974
1512092
1512222
1512344
1512468
1512592
1512714
1512838
1512960
1513084
1513208
1513332
1513454
1513578
1513702
1513828
1513952
1514076
1514202
1514326
1514452
1514578
1514702
1514830
1514956
1515084
1515210
1515336
1515462
1515588
1515714
1515840
1515968
1516094
1516224
1516352
1516480
1516608
1516736
1516864
1516994
1517122
1517250
1517378
1517506
1517634
1517762
1517892
1518022
1518154
1518286
1518416
1518548
1518680
1518812
1518944
1519076
1519208
1519340
1519468
1519598
1519726
1519854
1519982
1520108
1520236
1520366
1520484
1520624
1520754
1520882
1521012
1521142
1521274
1521404
1521534
1521666
1521798
1521930
1522062
1522194
1522328
1522460
1522594
1522726
1522860
1522992
1523126
1523256
1523388
1523524
1523658
1523796
1523932
1524070
1524208
1524348
1524486
1524624
1524760
1524898
1525038
1525176
1525316
1525458
1525598
1525738
1525880
1526020
1526160
1526298
1526438
1526578
1526718
1526858
1526998
1527136
1527276
1527414
1527554
1527690
1527830
1527968
1528106
1528246
1528386
1528528
1528672
1528816
1528960
1529104
1529248
1529390
1529534
1529678
1529818
1529960
1530102
1530242
1530382
1530522
1530664
1530802
1530942
1531080
1531218
1531358
1531498
1531636
1531776
1531914
1532054
1532194
1532332
1532470
1532608
1532744
1532880
1533016
1533150
1533286
1533422
1533558
1533698
1533840
1533984
1534132
1534284
1534436
1534588
1534736
1534882
1535026
1535170
1535314
1535458
1535602
1535746
1535888
1536030
1536170
1536310
1536452
1536594
1536736
1536878
1537020
1537162
1537306
1537448
1537590
1537730
1537874
1538014
1538154
1538294
1538434
1538572
1538712
1538852
1538992
1539130
1539272
1539410
1539548
1539688
1539828
1539966
1540106
1540246
1540386
1540524
1540662
1540800
1540936
1541074
1541212
1541348
1541486
1541624
1541762
1541900
1542036
1542172
1542308
1542446
1542582
1542718
1542856
1542994
1543134
1543274
1543414
1543554
1543696
1543838
1543980
1544120
1544262
1544402
1544542
1544682
1544822
1544962
1545100
1545238
1545376
1545510
1545646
1545786
1545924
1546062
1546200
1546340
1546478
1546616
1546752
1546892
1547030
1547168
1547308
1547446
1547586
1547726
1547864
1548004
1548142
1548284
1548426
1548570
1548714
1548860
1549004
1549146
1549290
1549434
1549576
1549718
1549860
1550002
1550144
1550284
1550426
1550566
1550706
1550848
1550988
1551126
1551264
1551402
1551540
1551678
1551814
1551952
1552088
1552226
1552362
1552500
1552638
1552774
1552912
1553050
1553186
1553324
1553460
1553596
1553734
1553872
1554010
1554148
1554286
1554426
1554564
1554704
1554846
1554986
1555124
1555264
1555404
1555544
1555684
1555822
1555962
1556102
1556240
1556378
1556516
1556654
1556794
1556928
1557064
1557202
1557338
1557474
1557610
1557746
1557880
1558018
1558154
1558290
1558426
1558564
1558700
1558836
1558970
1559106
1559242
1559376
1559512
1559648
1559786
1559926
1560064
1560202
1560338
1560472
1560608
1560742
1560878
1561014
1561150
1561286
1561422
1561558
1561692
1561824
1561960
1562094
1562228
1562362
1562496
1562632
1562766
1562902
1563038
1563176
1563312
1563452
1563590
1563728
1563864
1564000
1564134
1564270
1564406
1564540
1564676
1564810
1564944
1565078
1565210
1565342
1565476
1565608
1565742
1565878
1566016
1566154
1566292
1566430
1566570
1566708
1566848
1566986
1567126
1567264
1567404
1567542
1567680
1567818
1567956
1568098
1568238
1568380
1568520
1568664
1568808
1568948
1569086
1569224
1569362
1569500
1569640
1569778
1569918
1570058
1570198
1570338
1570478
1570618
1570756
1570896
1571036
1571174
1571316
1571458
1571600
1571744
1571890
1572032
1572174
1572316
1572458
1572600
1572742
1572884
1573028
1573172
1573318
1573464
1573610
1573754
1573896
1574036
1574176
1574316
1574454
1574594
1574730
1574868
1575004
1575144
1575284
1575422
1575562
1575702
1575840
1575978
1576116
1576256
1576394
1576532
1576670
1576808
1576948
1577086
1577224
1577360
1577496
1577634
1577774
1577914
1578054
1578196
1578338
1578482
1578624
1578768
1578912
1579056
1579200
1579342
1579484
1579628
1579772
1579914
1580060
1580204
1580348
1580492
1580636
1580780
1580922
1581066
1581210
1581356
1581502
1581652
1581806
1581964
1582124
1582288
1582448
1582606
1582766
1582922
1583076
1583230
1583382
1583534
1583686
1583836
1583986
1584136
1584288
1584440
1584590
1584742
1584894
1585046
1585196
1585346
1585496
1585644
1585794
1585942
1586092
1586240
1586386
1586532
1586676
1586820
1586962
1587106
1587246
1587388
1587530
1587672
1587814
1587958
1588102
1588244
1588386
1588528
1588668
1588808
1588946
1589082
1589218
1589354
1589490
1589626
1589760
1589894
1590028
1590162
1590296
1590430
1590564
1590696
1590828
1590960
1591098
1591228
1591354
1591486
1591618
1591748
1591878
1592006
1592136
1592266
1592398
1592532
1592666
1592798
1592932
1593066
1593200
1593332
1593468
1593602
1593734
1593868
1594005
1594134
1594266
1594400
1594532
1594664
1594796
1594928
1595058
1595190
1595322
1595454
1595586
1595718
1595852
1595986
1596120
1596254
1596388
1596522
1596656
1596790
1596924
1597058
1597192
1597328
1597464
1597600
1597734
1597872
1598008
1598144
1598280
1598416
1598552
1598686
1598820
1598956
1599090
1599224
1599358
1599492
1599626
1599758
1599890
1600022
1600156
1600288
1600424
1600558
1600694
1600828
1600964
1601100
1601234
1601368
1601504
1601636
1601770
1601904
1602040
1602176
1602314
1602454
1602594
1602734
1602874
1603016
1603158
1603300
1603440
1603582
1603722
1603862
1604002
1604142
1604282
1604424
1604564
1604706
1604850
1604990
1605136
1605274
1605414
1605556
1605696
1605836
1605976
1606118
1606260
1606402
1606546
1606688
1606830
1606972
1607112
1607252
1607392
1607532
1607670
1607806
1607944
1608082
1608218
1608354
1608490
1608624
1608758
1608890
1609022
1609154
1609286
1609418
1609550
1609682
1609812
1609942
1610074
1610204
1610334
1610462
1610592
1610722
1610850
1610980
1611108
1611236
1611366
1611496
1611626
1611756
1611888
1612020
1612152
1612284
1612416
1612548
1612680
1612812
1612946
1613078
1613210
1613344
1613476
1613608
1613740
1613870
1614004
1614138
1614270
1614402
1614534
1614666
1614798
1614930
1615060
1615192
1615322
1615454
1615584
1615716
1615848
1615978
1616110
1616240
1616370
1616500
1616630
1616762
1616892
1617022
1617152
1617284
1617416
1617546
1617678
1617808
1617940
1618072
1618206
1618340
1618474
1618610
1618742
1618878
1619014
1619148
1619282
1619416
1619550
1619684
1619820
1619954
1620088
1620222
1620356
1620490
1620624
1620760
1620894
1621028
1621164
1621298
1621432
1621566
1621698
1621832
1621966
1622098
1622230
1622364
1622496
1622628
1622760
1622892
1623024
1623158
1623290
1623424
1623556
1623692
1623828
1623962
1624098
1624232
1624368
1624504
1624640
1624774
1624910
1625044
1625178
1625310
1625444
1625576
1625706
1625840
1625972
1626106
1626242
1626382
1626520
1626662
1626802
1626942
1627078
1627216
1627356
1627492
1627628
1627766
1627902
1628034
1628170
1628304
1628438
1628572
1628706
1628840
1628974
1629106
1629240
1629374
1629506
1629638
1629770
1629904
1630038
1630172
1630304
1630438
1630572
1630704
1630836
1630970
1631102
1631236
1631370
1631504
1631642
1631780
1631918
1632056
1632192
1632328
1632462
1632596
1632732
1632868
1633004
1633138
1633272
1633408
1633542
1633676
1633810
1633946
1634082
1634216
1634352
1634488
1634624
1634762
1634898
1635034
1635168
1635304
1635440
1635576
1635712
1635850
1635988
1636124
1636260
1636396
1636532
1636668
1636804
1636940
1637076
1637214
1637350
1637488
1637622
1637758
1637894
1638028
1638162
1638298
1638432
1638570
1638706
1638846
1638986
1639124
1639264
1639402
1639540
1639678
1639816
1639952
1640086
1640220
1640354
1640490
1640624
1640760
1640894
1641028
1641162
1641298
1641432
1641568
1641704
1641842
1641978
1642116
1642252
1642386
1642520
1642656
1642792
1642928
1643064
1643202
1643338
1643476
1643612
1643748
1643886
1644020
1644156
1644290
1644426
1644562
1644698
1644834
1644970
1645106
1645240
1645376
1645514
1645652
1645788
1645926
1646064
1646202
1646340
1646476
1646610
1646746
1646880
1647016
1647152
1647288
1647422
1647556
1647688
1647822
1647958
1648096
1648236
1648378
1648522
1648664
1648806
1648948
1649088
1649228
1649366
1649504
1649640
1649778
1649916
1650056
1650194
1650332
1650468
1650606
1650742
1650878
1651014
1651150
1651286
1651422
1651560
1651696
1651834
1651974
1652112
1652252
1652392
1652532
1652674
1652814
1652954
1653094
1653236
1653378
1653518
1653658
1653798
1653938
1654080
1654220
1654360
1654498
1654638
1654778
1654916
1655056
1655194
1655332
1655470
1655610
1655748
1655886
1656024
1656164
1656302
1656440
1656578
1656718
1656860
1657002
1657144
1657288
1657432
1657576
1657722
1657866
1658010
1658154
1658298
1658442
1658586
1658728
1658872
1659012
1659154
1659292
1659432
1659572
1659710
1659848
1659990
1660130
1660274
1660418
1660560
1660706
1660850
1660992
1661134
1661274
1661416
1661554
1661692
1661830
1661970
1662108
1662248
1662386
1662528
1662668
1662810
1662952
1663092
1663232
1663372
1663512
1663652
1663790
1663926
1664062
1664198
1664334
1664468
1664604
1664740
1664876
1665014
1665154
1665294
1665436
1665576
1665714
1665854
1665994
1666132
1666270
1666406
1666542
1666678
1666812
1666948
1667084
1667218
1667352
1667486
1667622
1667756
1667892
1668026
1668164
1668300
1668438
1668576
1668712
1668848
1668982
1669116
1669250
1669384
1669518
1669654
1669790
1669928
1670066
1670206
1670346
1670484
1670624
1670762
1670902
1671040
1671180
1671316
1671452
1671590
1671724
1671860
1671996
1672130
1672266
1672402
1672536
1672670
1672804
1672936
1673070
1673204
1673338
1673472
1673606
1673740
1673876
1674010
1674144
1674278
1674412
1674546
1674678
1674810
1674946
1675076
1675206
1675340
1675474
1675608
1675744
1675880
1676018
1676154
1676292
1676426
1676562
1676696
1676828
1676962
1677098
1677232
1677370
1677506
1677642
1677776
1677912
1678046
1678180
1678318
1678452
1678588
1678722
1678856
1678992
1679128
1679264
1679400
1679536
1679672
1679808
1679942
1680078
1680212
1680346
1680480
1680616
1680750
1680888
1681026
1681164
1681306
1681446
1681588
1681730
1681872
1682012
1682154
1682294
1682434
1682574
1682714
1682852
1682992
1683132
1683274
1683412
1683550
1683690
1683828
1683964
1684102
1684240
1684380
1684520
1684664
1684808
1684954
1685098
1685240
1685380
1685520
1685660
1685800
1685940
1686078
1686218
1686356
1686492
1686630
1686770
1686908
1687048
1687188
1687330
1687472
1687612
1687752
1687892
1688030
1688166
1688304
1688438
1688574
1688710
1688848
1688988
1689128
1689270
1689414
1689556
1689696
1689836
1689978
1690122
1690264
1690408
1690550
1690692
1690834
1690976
1691116
1691258
1691396
1691536
1691676
1691818
1691960
1692100
1692242
1692382
1692524
1692664
1692804
1692942
1693082
1693220
1693360
1693498
1693638
1693774
1693914
1694050
1694188
1694326
1694462
1694598
1694734
1694870
1695006
1695142
1695278
1695416
1695554
1695694
1695834
1695974
1696116
1696256
1696398
1696540
1696680
1696822
1696962
1697102
1697240
1697378
1697516
1697654
1697790
1697926
1698064
1698202
1698338
1698476
1698614
1698750
1698888
1699026
1699164
1699298
1699436
1699570
1699706
1699842
1699980
1700114
1700248
1700384
1700523
1700654
1700788
1700924
1701058
1701194
1701328
1701462
1701596
1701728
1701860
1701992
1702124
1702254
1702386
1702518
1702650
1702780
1702912
1703044
1703176
1703308
1703440
1703574
1703706
1703838
1703968
1704100
1704230
1704360
1704492
1704624
1704756
1704890
1705024
1705158
1705292
1705434
1705564
1705700
1705836
1705970
1706104
1706236
1706368
1706498
1706630
1706760
1706890
1707024
1707154
1707286
1707418
1707550
1707682
1707814
1707948
1708086
1708228
1708366
1708502
1708640
1708778
1708916
1709052
1709188
1709330
1709470
1709606
1709740
1709870
1710002
1710132
1710264
1710394
1710524
1710656
1710786
1710918
1711050
1711182
1711318
1711452
1711586
1711718
1711852
1711984
1712118
1712250
1712380
1712512
1712644
1712776
1712908
1713040
1713172
1713304
1713438
1713570
1713704
1713838
1713970
1714104
1714238
1714374
1714508
1714642
1714778
1714916
1715050
1715186
1715320
1715454
1715590
1715722
1715858
1715992
1716126
1716260
1716396
1716530
1716666
1716802
1716938
1717072
1717208
1717342
1717478
1717610
1717742
1717876
1718010
1718146
1718278
1718412
1718544
1718678
1718810
1718942
1719074
1719208
1719340
1719472
1719602
1719734
1719864
1719994
1720124
1720256
1720386
1720516
1720648
1720778
1720908
1721036
1721164
1721294
1721422
1721554
1721684
1721814
1721946
1722076
1722206
1722338
1722468
1722600
1722732
1722864
1722996
1723130
1723262
1723396
1723528
1723662
1723796
1723930
1724064
1724198
1724334
1724468
1724604
1724740
1724878
1725014
1725150
1725288
1725424
1725562
1725696
1725832
1725968
1726102
1726238
1726374
1726506
1726638
1726770
1726900
1727030
1727160
1727290
1727422
1727556
1727692
1727832
1727972
1728114
1728256
1728396
1728538
1728680
1728820
1728960
1729100
1729238
1729376
1729516
1729654
1729792
1729928
1730066
1730202
1730338
1730476
1730612
1730750
1730886
1731024
1731164
1731304
1731444
1731586
1731724
1731864
1732004
1732144
1732284
1732424
1732564
1732704
1732844
1732982
1733124
1733262
1733400
1733540
1733680
1733824
1733966
1734106
1734244
1734382
1734518
1734654
1734788
1734922
1735056
1735188
1735320
1735454
1735590
1735724
1735858
1735992
1736128
1736262
1736398
1736534
1736670
1736806
1736940
1737074
1737210
1737344
1737476
1737610
1737742
1737876
1738010
1738142
1738274
1738408
1738542
1738676
1738810
1738944
1739078
1739214
1739348
1739484
1739618
1739752
1739884
1740018
1740148
1740282
1740412
1740544
1740676
1740808
1740940
1741070
1741200
1741332
1741462
1741594
1741724
1741854
1741982
1742114
1742244
1742374
1742504
1742634
1742764
1742894
1743022
1743152
1743282
1743412
1743542
1743670
1743798
1743928
1744056
1744186
1744314
1744444
1744572
1744700
1744828
1744958
1745086
1745216
1745344
1745472
1745602
1745732
1745866
1745992
1746120
1746248
1746376
1746504
1746632
1746760
1746888
1747016
1747144
1747270
1747398
1747526
1747654
1747780
1747908
1748036
1748164
1748292
1748420
1748548
1748676
1748806
1748934
1749064
1749192
1749322
1749450
1749578
1749706
1749832
1749960
1750088
1750216
1750344
1750474
1750604
1750732
1750860
1750990
1751118
1751246
1751374
1751502
1751628
1751756
1751884
1752012
1752140
1752268
1752396
1752524
1752654
1752784
1752914
1753042
1753174
1753306
1753428
1753556
1753690
1753810
1753938
1754064
1754192
1754320
1754448
1754576
1754704
1754830
1754958
1755086
1755216
1755348
1755480
1755612
1755742
1755874
1756006
1756136
1756270
1756398
1756530
1756660
1756790
1756922
1757054
1757184
1757314
1757444
1757574
1757702
1757832
1757960
1758088
1758218
1758348
1758476
1758608
1758738
1758870
1759002
1759134
1759266
1759398
1759532
1759664
1759800
1759934
1760070
1760206
1760344
1760478
1760614
1760748
1760886
1761022
1761160
1761298
1761434
1761570
1761708
1761844
1761980
1762116
1762252
1762388
1762524
1762660
1762796
1762932
1763070
1763208
1763346
1763486
1763624
1763764
1763904
1764042
1764180
1764318
1764456
1764592
1764730
1764866
1765002
1765140
1765276
1765414
1765550
1765690
1765832
1765974
1766118
1766264
1766408
1766554
1766696
1766836
1766976
1767116
1767254
1767392
1767530
1767668
1767806
1767942
1768080
1768218
1768356
1768496
1768636
1768776
1768918
1769058
1769200
1769340
1769480
1769620
1769758
1769898
1770034
1770170
1770308
1770446
1770584
1770724
1770866
1771010
1771156
1771300
1771438
1771580
1771720
1771858
1771996
1772134
1772272
1772410
1772548
1772688
1772826
1772966
1773108
1773250
1773390
1773532
1773674
1773818
1773960
1774100
1774242
1774384
1774524
1774664
1774806
1774944
1775084
1775220
1775358
1775496
1775634
1775772
1775908
1776046
1776182
1776320
1776456
1776594
1776730
1776866
1777002
1777140
1777276
1777414
1777550
1777686
1777824
1777964
1778102
1778240
1778380
1778518
1778658
1778798
1778936
1779074
1779212
1779352
1779490
1779630
1779772
1779914
1780060
1780206
1780350
1780496
1780636
1780772
1780906
1781040
1781174
1781310
1781446
1781586
1781726
1781866
1782010
1782150
1782294
1782434
1782576
1782716
1782854
1782992
1783130
1783268
1783406
1783542
1783678
1783814
1783950
1784086
1784224
1784362
1784500
1784640
1784780
1784920
1785062
1785202
1785342
1785482
1785622
1785760
1785900
1786038
1786178
1786314
1786452
1786592
1786730
1786866
1787002
1787136
1787272
1787406
1787542
1787680
1787818
1787958
1788094
1788232
1788370
1788508
1788644
1788780
1788918
1789054
1789192
1789328
1789464
1789600
1789734
1789872
1790006
1790144
1790284
1790420
1790558
1790696
1790832
1790972
1791108
1791244
1791382
1791520
1791656
1791794
1791930
1792064
1792200
1792334
1792470
1792606
1792742
1792878
1793018
1793156
1793296
1793432
1793570
1793706
1793842
1793978
1794112
1794248
1794384
1794518
1794654
1794788
1794924
1795058
1795194
1795328
1795464
1795600
1795734
1795870
1796008
1796144
1796278
1796414
1796548
1796684
1796816
1796950
1797084
1797218
1797354
1797488
1797622
1797758
1797894
1798028
1798164
1798300
1798438
1798574
1798712
1798850
1798988
1799124
1799262
1799398
1799536
1799672
1799810
1799946
