peaks
220
508
788
1058
1344
1624
1890
2138
2374
2606
2830
3054
3278
3512
3756
4066
4380
4676
4988
5288
5578
5852
6134
6418
6710
6996
7290
7572
7856
8140
8420
8702
8976
9260
9548
9828
10106
10378
10660
10944
11214
11476
11768
12058
12342
12614
12896
13178
13444
13722
13998
14264
14530
14820
15110
15390
15682
15980
16276
16582
16898
17206
17516
17836
18134
18430
18726
19012
19306
19590
19870
20168
20474
20782
21100
21416
21730
22026
22324
22622
22896
23182
23466
23734
23988
24256
24522
24768
25012
25256
25488
25716
25938
26154
26362
26498
26776
26980
27186
27408
27652
27880
28138
28450
28728
28986
29262
29536
29808
30064
30328
30578
30830
31072
31328
31584
31850
32102
32352
32612
32866
33098
33328
33550
33766
33978
34186
34404
34636
34888
35192
35496
35778
36040
36288
36518
36746
36970
37196
37430
37692
37978
38254
38512
38778
39046
39296
39540
39798
40060
40320
40574
40832
41092
41346
41610
41882
42152
42414
42688
42962
43232
43496
43754
44016
44278
44514
44748
44976
45198
45412
45622
45828
46044
46284
46528
46856
47180
47494
47792
48096
48408
48716
49008
49262
49522
49786
50062
50342
50614
50882
51158
51432
51698
51968
52240
52496
52750
53022
53292
53552
53820
54094
54364
54632
54904
55178
55440
55692
55956
56216
56468
56718
56974
57236
57492
57744
58016
58284
58550
58836
59130
59418
59710
60000
60280
60572
60854
61126
61404
61666
61918
62192
62458
62722
63010
63304
63584
63858
64150
64438
64718
65008
65302
65580
65864
66146
66416
66686
66974
67258
67528
67808
68074
68328
68574
68834
69094
69348
69594
69862
70130
70394
70658
70932
71196
71458
71702
71938
72184
72440
72694
72966
73250
73512
73786
74056
74310
74574
74848
75118
75386
75668
75946
76210
76490
76764
77024
77302
77568
77828
78100
78366
78626
78900
79176
79438
79706
79970
80226
80498
80758
81014
81276
81520
81768
82018
82262
82508
82758
83006
83246
83490
83738
83998
84248
84504
84754
84998
85246
85494
85732
85976
86216
86452
86690
86934
87182
87434
87692
87950
88204
88464
88726
88980
89234
89484
89732
89976
90222
90474
90726
90978
91248
91504
91760
92030
92288
92540
92790
93038
93278
93520
93762
94004
94242
94484
94730
94976
95218
95458
95706
95948
96190
96436
96674
96908
97144
97378
97608
97838
98070
98300
98524
98738
98944
99144
99344
99544
99748
99958
100188
100426
100650
100886
101124
101382
101612
101856
102112
102368
102626
102866
103106
103344
103588
103832
104064
104294
104526
104762
104994
105220
105438
105658
105882
106110
106330
106548
106766
106990
107218
107446
107670
107896
108134
108370
108608
108846
109092
109324
109556
109790
110032
110276
110510
110744
110986
111252
111494
111760
112018
112274
112530
112812
113126
113400
113670
113924
114172
114418
114686
114950
115208
115474
115738
115988
116236
116488
116740
116988
117238
117492
117744
117988
118236
118468
118694
118914
119130
119334
119534
119734
119934
120136
120338
120544
120756
120998
121236
121472
121748
122052
122334
122600
122850
123112
123368
123630
123886
124162
124440
124716
124982
125240
125504
125772
126038
126296
126544
126786
127038
127290
127548
127794
128026
128256
128480
128710
128958
129224
129496
129794
130088
130366
130642
130916
131176
131434
131694
131946
132194
132456
132714
132960
133222
133480
133732
133996
134258
134510
134756
134994
135224
135446
135662
135878
136086
136292
136500
136724
136984
137296
137574
137862
138142
138410
138686
138958
139218
139492
139770
140040
140324
140606
140884
141158
141426
141704
141974
142242
142508
142782
143048
143302
143558
143808
144052
144294
144530
144762
144986
145210
145436
145650
145854
146056
146260
146468
146688
146908
147140
147462
147764
148052
148352
148652
148948
149242
149522
149808
150098
150372
150654
150946
151246
151524
151796
152078
152346
152604
152850
153116
153412
153730
154016
154288
154560
154832
155098
155360
155668
155990
156286
156568
156852
157130
157392
157666
157954
158256
158552
158828
159098
159380
159668
159946
160214
160502
160636
160816
161042
161298
161572
161846
162104
162360
162628
162900
163170
163428
163674
163944
164216
164480
164736
164992
165256
165530
165792
166074
166358
166644
166928
167228
167536
167830
168126
168434
168728
169014
169330
169646
169948
170248
170548
170840
171110
171392
171678
171946
172190
172320
172684
172906
173130
173354
173576
173792
174024
174354
174644
174930
175244
175556
175846
176156
176466
176766
177060
177368
177678
177974
178270
178578
178888
179190
179482
179788
180092
180390
180680
180978
181280
181576
181876
182178
182464
182760
183054
183332
183598
183872
184140
184388
184648
184904
185152
185392
185660
185940
186200
186478
186758
187026
187278
187556
187832
188114
188372
188640
188916
189192
189468
189756
190050
190334
190620
190906
191174
191436
191702
191970
192230
192494
192768
193038
193292
193542
193806
194066
194338
194626
194924
195216
195514
195810
196100
196396
196690
196962
197250
197546
197838
198124
198418
198704
198992
199264
199534
199824
200142
200448
200730
201018
201298
201560
201820
202066
202310
202548
202778
203010
203226
203446
203654
203858
204054
204258
204460
204662
204860
205058
205256
205454
205652
205850
206050
206258
206472
206688
206904
207140
207380
207610
207860
208126
208372
208606
208860
209130
209406
209652
209908
210166
210428
210656
210876
211098
211334
211620
211908
212194
212472
212756
212888
213062
213288
213556
213828
214098
214368
214644
214908
215176
215454
215732
216002
216286
216562
216836
217110
217398
217670
217928
218180
218438
218692
218942
219206
219496
219786
220062
220358
220650
220930
221200
221486
221768
222040
222314
222592
222870
223142
223424
223706
223972
224220
224464
224696
224926
225162
225412
225662
225928
226224
226512
226788
227080
227372
227652
227944
228240
228532
228826
229128
229432
229732
230032
230324
230604
230886
231170
231450
231720
232006
232304
232592
232888
233192
233490
233780
234078
234384
234684
234988
235264
235530
235806
236080
236346
236618
236872
236996
237362
237590
237810
238028
238238
238450
238672
238926
239250
239546
239844
240154
240466
240774
241092
241406
241716
242036
242358
242682
243002
243314
243630
243944
244256
244552
244840
245112
245382
245642
245902
246178
246458
246736
247012
247288
247566
247842
248108
248378
248664
248958
249234
249512
249802
250090
250366
250632
250904
251172
251434
251708
251976
252260
252564
252868
253160
253464
253772
254064
254352
254652
254930
255196
255456
255710
255952
256196
256436
256670
256910
257154
257400
257674
257980
258286
258580
258888
259176
259466
259766
260066
260366
260662
260970
261272
261572
261876
262182
262482
262766
263054
263336
263620
263908
264190
264468
264758
265050
265340
265628
265912
266208
266504
266792
267064
267344
267634
267920
268200
268490
268786
269080
269384
269700
269998
270294
270596
270898
271194
271502
271818
272128
272436
272748
273048
273352
273662
273962
274260
274550
274832
275094
275360
275612
275876
276136
276400
276716
277030
277324
277630
277930
278240
278544
278844
279148
279470
279782
280106
280422
280724
281040
281360
281668
281976
282280
282564
282852
283148
283444
283730
284008
284292
284576
284854
285126
285396
285674
285960
286248
286536
286834
287124
287408
287688
287984
288276
288562
288854
289154
289448
289734
290028
290326
290624
290920
291228
291536
291828
292124
292422
292710
292988
293274
293562
293838
294106
294386
294670
294944
295232
295520
295802
296070
296356
296646
296932
297210
297504
297798
298096
298384
298682
298986
299280
299576
299870
300160
300448
300736
301030
301322
301608
301902
302190
302468
302744
303036
303330
303618
303908
304198
304476
304764
305076
305388
305690
306004
306302
306598
306890
307166
307446
307712
307960
308216
308460
308696
308938
309188
309432
309680
309972
310264
310544
310844
311142
311432
311708
312004
312298
312592
312870
313164
313460
313758
314046
314344
314642
314938
315236
315532
315822
316100
316386
316666
316942
317212
317482
317760
318042
318342
318646
318946
319240
319546
319860
320160
320466
320778
321074
321352
321650
321952
322228
322514
322800
323084
323360
323626
323880
324122
324372
324632
324890
325158
325466
325770
326060
326364
326670
326972
327282
327596
327900
328202
328502
328796
329094
329382
329660
329944
330228
330510
330788
331062
331344
331636
331936
332232
332528
332812
333100
333394
333692
333988
334274
334572
334862
335144
335438
335736
336032
336316
336608
336898
337166
337436
337684
337918
338158
338406
338646
338884
339138
339398
339646
339902
340196
340476
340736
341020
341302
341582
341852
342146
342438
342732
343018
343312
343612
343912
344204
344490
344780
345070
345360
345646
345930
346214
346484
346748
347020
347292
347548
347802
348054
348304
348548
348782
349014
349242
349464
349686
349908
350130
350362
350600
350880
351158
351426
351710
351988
352258
352538
352818
353094
353354
353620
353892
354164
354432
354706
354988
355266
355550
355834
356118
356398
356678
356962
357238
357510
357788
358064
358342
358604
358856
359114
359372
359626
359882
360132
360372
360606
360846
361084
361316
361548
361784
362016
362252
362502
362770
363036
363338
363660
363976
364288
364588
364900
365212
365524
365824
366112
366398
366678
366958
367234
367522
367806
368078
368350
368632
368914
369184
369442
369694
369978
370266
370558
370844
371128
371426
371724
372010
372292
372598
372916
373230
373536
373840
374140
374430
374718
375024
375320
375622
375918
376202
376490
376790
377090
377382
377678
377978
378266
378570
378880
379182
379488
379794
380084
380374
380678
380978
381262
381548
381824
382078
382332
382570
382804
383048
383290
383524
383774
384034
384294
384552
384854
385150
385432
385738
386046
386330
386634
386948
387252
387554
387872
388188
388502
388808
389122
389430
389740
390034
390326
390608
390890
391176
391464
391748
392020
392308
392598
392884
393160
393428
393698
393980
394272
394560
394836
395128
395432
395716
395984
396264
396542
396818
397096
397386
397674
397948
398228
398518
398810
399092
399366
399652
399938
400212
400496
400770
401030
401282
401526
401762
401992
402220
402446
402664
402876
403076
404054
404266
404458
404659
404851
405047
405261
405440
405637
405830
406030
406240
406462
406686
406920
407188
407464
407748
408038
408318
408610
408908
409206
409482
409766
410050
410342
410638
410918
411204
411500
411798
412080
412348
412630
412914
413194
413458
413738
414018
414302
414572
414838
415126
415424
415722
416002
416296
416598
416900
417190
417470
417774
418082
418390
418682
418970
419268
419568
419856
420136
420440
420752
421062
421364
421642
421928
422206
422486
422756
423032
423322
423618
423894
424156
424432
424714
424996
425266
425526
425818
426130
426440
426734
427030
427336
427640
427922
428220
428514
428804
429078
429374
429660
429934
430212
430500
430786
431054
431320
431604
431890
432164
432440
432738
433048
433348
433630
433908
434194
434478
434748
435008
435282
435558
435818
436086
436384
436690
436994
437290
437596
437902
438200
438476
438768
439062
439338
439588
439826
440052
440274
440494
440722
440954
441178
441404
441628
441852
442072
442296
442530
442860
443146
443452
443760
444068
444364
444672
444982
445286
445578
445876
446178
446484
446772
447050
447338
447624
447906
448176
448444
448724
449018
449308
449582
449868
450156
450438
450702
450974
451242
451518
451794
452062
452322
452602
452886
453174
453450
453718
454004
454294
454564
454830
455106
455390
455666
455950
456252
456556
456842
457120
457412
457704
457984
458256
458536
458818
459092
459376
459674
459976
460270
460566
460864
461158
461440
461726
462008
462286
462550
462822
463108
463400
463688
463982
464278
464560
464832
465114
465394
465656
465910
466174
466440
466696
466952
467238
467528
467810
468088
468394
468698
468994
469276
469552
469830
470104
470364
470622
470894
471170
471448
471728
472006
472270
472550
472830
473104
473370
473646
473920
474178
474444
474704
474954
475210
475490
475778
476070
476356
476640
476928
477210
477482
477764
478038
478298
478562
478834
479102
479362
479622
479912
480198
480466
480726
481010
481292
481564
481842
482132
482414
482684
482954
483222
483486
483754
484036
484304
484566
484838
485122
485374
485632
485890
486020
486396
486632
486862
487106
487346
487588
487836
488132
488410
488678
488934
489212
489488
489744
489998
490280
490570
490854
491134
491422
491710
491986
492260
492534
492802
493064
493328
493600
493864
494114
494362
494626
494886
495138
495390
495654
495916
496174
496428
496688
496976
497264
497554
497834
498106
498386
498666
498940
499208
499480
499746
499998
500246
500510
500772
501018
501262
501500
501730
501954
502174
502390
502594
502796
502992
503186
503378
503566
503754
503940
504124
504310
504494
504680
504866
505056
505254
505456
505658
505864
506086
506328
506554
506820
507086
507340
507610
507924
508230
508530
508662
508840
509074
509360
509640
509914
510202
510490
510768
511032
511310
511582
511838
512096
512280
512596
512862
513120
513362
513592
513828
514064
514298
514574
514868
515148
515456
515594
515782
516016
516322
516626
516912
517210
517504
517786
518072
518350
518632
518908
519186
519468
519742
520004
520270
520538
520810
521072
521320
521584
521852
522108
522358
522638
522908
523168
523430
523706
523974
524234
524488
524764
525040
525308
525576
525848
526120
526382
526646
526904
527184
527458
527726
527984
528258
528528
528804
529074
529336
529590
529856
530120
530378
530648
530916
531172
531420
531694
531956
532208
532474
532738
532986
533246
533508
533756
534004
534264
534528
534788
535036
535302
535566
535830
536084
536356
536626
536892
537152
537424
537696
537954
538216
538478
538734
538984
539232
539504
539776
540050
540318
540570
540808
541054
541300
541546
541788
542032
542298
542546
542782
543010
543232
543446
543656
543866
544082
544296
544512
544736
544970
545200
545432
545676
545926
546164
546426
546672
546908
547140
547382
547622
547856
548086
548314
548544
548778
549006
549250
549506
549770
550022
550252
550466
550680
550892
551104
551314
551528
551748
551972
552212
552514
552790
553066
553348
553628
553898
554182
554462
554736
555008
555284
555562
555836
556118
556396
556668
556938
557208
557474
557732
557998
558260
558516
558764
559028
559290
559552
559806
560058
560324
560588
560838
561080
561340
561594
561842
562094
562364
562628
562884
563126
563374
563618
563850
564086
564338
564592
564834
565102
565364
565614
565868
566146
566414
566674
566940
567208
567460
567726
567982
568226
568486
568762
569024
569278
569550
569820
570080
570350
570618
570882
571142
571404
571676
571948
572212
572480
572752
573026
573296
573566
573842
574118
574390
574676
574964
575102
575272
575510
575800
576094
576382
576678
576958
577240
577512
577768
578028
578290
578542
578796
579080
579340
579594
579838
580086
580326
580568
580806
581044
581272
581500
581724
581942
582158
582372
582578
582782
582982
583184
583386
583588
583794
583996
584196
584394
584594
584800
585014
585224
585436
585658
585886
586096
586306
586516
586732
586950
587172
587408
587626
587838
588052
588272
588502
588720
588932
589140
589344
589542
589738
589942
590142
590332
590528
590724
590924
591128
591334
591538
591744
591946
592146
592346
592544
592744
592950
593158
593368
593582
593804
594018
594232
594448
594670
594902
595120
595338
595558
595782
596002
596220
596440
596664
596892
597114
597342
597578
597824
598056
598296
598540
598784
599018
599258
599498
599728
599948
600166
600394
600646
600890
601128
601366
601594
601820
602050
602278
602504
602734
602968
603202
603434
603670
603908
604142
604374
604616
604854
605088
605334
605584
605830
606092
606354
606610
606882
607150
607408
607676
607936
608192
608452
608724
608996
609258
609514
609788
610060
610322
610584
610850
611110
611350
611582
611816
612046
612274
612510
612744
612970
613192
613414
613632
613844
614052
614268
614496
614722
614940
615156
615370
615586
615798
616020
616246
616476
616698
616928
617160
617402
617640
617896
618152
618396
618646
618892
619134
619366
619610
619864
620104
620348
620608
620874
621120
621366
621616
621858
622102
622356
622610
622856
623108
623364
623606
623840
624078
624318
624560
624800
625056
625314
625566
625832
626100
626362
626632
626906
627176
627464
627748
628024
628300
628570
628830
629098
629366
629628
629884
630152
630422
630692
630944
631188
631428
631660
631888
632118
632348
632578
632808
633040
633278
633514
633748
633984
634220
634448
634676
634906
635134
635358
635576
635796
636010
636220
636426
636634
636844
637052
637256
637456
637654
637848
638042
638220
638426
638616
638802
638986
639170
639354
639536
639718
639898
640080
640262
640448
640636
640830
641028
641234
641454
641674
641890
642116
642354
642496
642830
643050
643276
643498
643732
643972
644232
644492
644738
644986
645240
645488
645728
645972
646212
646460
646700
646954
647222
647490
647746
648016
648290
648558
648818
649090
649360
649620
649874
650148
650418
650678
650942
651220
651494
651758
652030
652310
652588
652854
653134
653412
653676
653936
654210
654482
654746
655024
655308
655584
655854
656140
656424
656696
656966
657250
657538
657814
658114
658404
658676
658960
659250
659536
659804
660086
660372
660644
660778
660942
661178
661452
661738
662010
662294
662584
662876
663154
663436
663724
664008
664280
664560
664838
665122
665384
665644
665912
666182
666438
666690
666974
667268
667548
667814
668090
668366
668642
668906
669162
669430
669696
669954
670230
670506
670774
671032
671300
671576
671844
672096
672342
672600
672866
673138
673394
673656
673924
674196
674464
674724
674988
675252
675524
675778
676030
676300
676576
676846
677104
677370
677648
677926
678190
678320
678488
678712
678974
679224
679468
679730
679994
680244
680488
680742
681000
681252
681496
681746
682002
682262
682516
682764
683028
683292
683558
683812
684058
684310
684582
684844
685100
685350
685624
685898
686176
686436
686710
686994
687276
687540
687806
688082
688358
688622
688878
689160
689444
689728
689998
690274
690552
690828
691090
691362
691638
691906
692158
692406
692660
692920
693178
693426
693670
693922
694182
694440
694686
694944
695204
695466
695714
695956
696208
696462
696716
696970
697216
697478
697746
698010
698264
698524
698788
699054
699310
699556
699804
700060
700318
700570
700814
701070
701326
701586
701836
702088
702348
702612
702862
703106
703358
703616
703874
704118
704364
704612
704862
705112
705354
705592
705844
706106
706370
706622
706868
707126
707394
707660
707914
708178
708450
708722
708992
709240
709492
709754
710020
710278
710532
710806
711088
711368
711630
711898
712166
712436
712696
712948
713210
713474
713740
713992
714242
714496
714750
715006
715248
715496
715746
716000
716252
716494
716746
716996
717250
717494
717736
717986
718242
718486
718726
718970
719218
719458
719690
719934
720188
720450
720702
720952
721220
721496
721760
722014
722284
722558
722828
723084
723340
723600
723864
724126
724374
724626
724878
725140
725390
725632
725884
726132
726388
726632
726870
727120
727374
727626
727870
728128
728398
728670
728928
729188
729450
729712
729958
730202
730456
730712
730970
731220
731468
731726
731984
732244
732494
732742
732998
733254
733500
733742
733992
734252
734504
734746
734992
735238
735486
735728
735964
736208
736460
736716
736964
737206
737456
737712
737966
738212
738452
738702
738956
739214
739460
739702
739956
740216
740472
740720
740962
741216
741480
741740
741988
742234
742488
742742
742986
743224
743470
743726
743984
744230
744472
744722
744980
745240
745490
745732
745982
746234
746484
746724
746960
747206
747458
747710
747950
748202
748458
748716
748964
749214
749466
749718
749962
750200
750448
750704
750962
751212
751464
751724
751988
752244
752490
752746
753004
753260
753508
753762
754022
754288
754540
754786
755038
755296
755556
755800
756048
756296
756542
756786
757020
757256
757502
757756
758008
758248
758498
758750
759006
759252
759492
759740
759992
760242
760480
760728
760978
761230
761470
761708
761950
762198
762442
762676
762918
763166
763418
763662
763906
764158
764414
764668
764910
765156
765404
765654
765898
766134
766380
766626
766870
767108
767342
767582
767832
768088
768336
768586
768846
769104
769350
769586
769832
770082
770336
770580
770822
771068
771318
771568
771816
772062
772314
772580
772832
773080
773332
773608
773932
774232
774502
774778
775066
775382
775694
775990
776256
776508
776752
777000
777242
777484
777752
778028
778308
778576
778860
779146
779418
779674
779920
780176
780434
780680
780922
781182
781452
781718
781972
782230
782360
782532
782750
783002
783246
783494
783746
784000
784250
784494
784732
784978
785238
785496
785746
786004
786276
786554
786824
787076
787332
787588
787844
788106
788388
788668
788926
789186
789450
789716
789968
790212
790466
790726
790976
791220
791476
791732
791990
792238
792490
792748
793014
793266
793524
793784
794044
794294
794536
794788
795046
795304
795552
795792
796050
796310
796570
796816
797052
797298
797552
797820
798078
798330
798590
798856
799114
799360
799604
799850
800094
800336
800572
800802
801040
801280
801512
801738
801964
802184
802404
802626
802840
803056
803282
803510
803730
803944
804162
804380
804598
804808
805026
805240
805452
805662
805882
806104
806328
806544
806772
807010
807236
807458
807686
807944
808182
808410
808632
808858
809088
809322
809548
809766
809988
810218
810444
810666
810884
811110
811344
811576
811802
812022
812252
812486
812730
812956
813184
813414
813656
813892
814118
814340
814568
814806
815048
815276
815496
815720
815950
816180
816402
816616
816838
817072
817308
817536
817756
817990
818224
818452
818676
818892
819110
819340
819576
819834
820060
820286
820508
820730
820948
821160
821374
821594
821814
822034
822252
822544
822810
823058
823294
823536
823780
824030
824272
824518
824774
825038
825294
825540
825788
826040
826294
826538
826786
827026
827262
827508
827760
827894
828252
828480
828708
828958
829200
829440
829680
829946
830210
830478
830732
831004
831274
831538
831790
832058
832318
832576
832820
833074
833324
833572
833810
834056
834312
834576
834834
835082
835346
835604
835860
836106
836374
836638
836894
837144
837404
837666
837930
838178
838428
838690
838948
839202
839450
839722
840000
840272
840528
840782
841042
841306
841568
841818
842078
842338
842600
842852
843094
843344
843598
843852
844096
844346
844612
844868
845114
845358
845614
845888
846158
846414
846662
846924
847192
847452
847700
847944
848194
848444
848688
848942
849196
849456
849724
849970
850228
850488
850750
851000
851250
851512
851772
852024
852268
852522
852778
853036
853284
853528
853786
854040
854288
854526
854772
855022
855274
855520
855768
856024
856280
856530
856776
857034
857302
857558
857804
858048
858296
858546
858792
859032
859288
859554
859810
860062
860326
860596
860866
861120
861376
861640
861906
862160
862404
862652
862902
863154
863396
863636
863888
864138
864396
864648
864894
865150
865412
865668
865916
866052
866416
866660
866896
867128
867368
867618
867868
868096
868328
868576
868816
869042
869266
869506
869760
869998
870232
870512
870768
871016
871246
871472
871710
871966
872218
872450
872686
872950
873198
873434
873664
873906
874158
874406
874638
874868
875106
875384
875678
875926
876182
876436
876688
876930
877174
877422
877676
877926
878168
878424
878682
878934
879174
879418
879666
879920
880166
880410
880666
880928
881192
881442
881708
881974
882232
882474
882712
882962
883220
883480
883728
883986
884256
884530
884794
885044
885308
885576
885842
886092
886340
886606
886872
887136
887384
887632
887892
888156
888410
888654
888910
889172
889438
889690
889932
890194
890452
890700
890940
891190
891444
891702
891946
892198
892460
892724
892986
893230
893474
893726
893982
894236
894476
894716
894962
895216
895464
895706
895954
896208
896470
896716
896954
897208
897466
897730
897976
898222
898482
898750
899016
899264
899510
899762
900018
900262
900500
900752
901010
901278
901530
901776
902040
902298
902542
902782
903034
903288
903532
903768
904018
904278
904524
904766
905014
905268
905524
905766
906020
906278
906536
906780
907026
907286
907546
907802
908044
908296
908546
908798
909038
909272
909522
909774
910024
910262
910504
910752
911006
911256
911494
911734
911984
912238
912486
912728
912990
913256
913522
913768
914010
914264
914518
914770
915010
915248
915496
915752
916008
916250
916490
916746
917006
917262
917506
917754
918008
918260
918500
918736
918984
919236
919484
919720
919962
920208
920466
920712
920950
921200
921452
921708
921954
922198
922452
922720
922986
923234
923474
923728
923986
924246
924492
924736
924986
925242
925490
925732
925980
926242
926514
926776
927024
927284
927538
927790
928030
928262
928504
928756
929014
929260
929516
929780
930040
930288
930522
930760
930996
931236
931466
931702
931946
932196
932462
932718
932976
933246
933514
933760
934000
934250
934508
934758
934998
935250
935512
935772
936014
936252
936500
936748
937000
937236
937472
937716
937964
938212
938450
938682
938930
939184
939438
939676
939918
940168
940420
940658
940890
941132
941380
941632
941870
942102
942346
942594
942842
943080
943314
943562
943824
944086
944332
944574
944828
945090
945346
945584
945816
946052
946292
946536
946770
947000
947238
947464
947700
947926
948152
948392
948642
948896
949126
949352
949582
949818
950052
950280
950500
950736
950980
951230
951454
951676
951906
952136
952374
952600
952820
953046
953280
953516
953738
953956
954186
954432
954664
954886
955102
955328
955566
955808
956030
956246
956468
956696
956920
957142
957362
957600
957846
958078
958300
958532
958762
959086
959348
959590
959832
960074
960322
960560
960806
961070
961344
961606
961854
962126
962392
962646
962890
963148
963404
963654
963892
964144
964398
964656
964898
965132
965272
965616
965846
966064
966278
966486
966698
966916
967128
967254
967562
967778
968000
968220
968434
968644
968868
969108
969338
969564
969828
970066
970316
970540
970766
970998
971240
971464
971682
971914
972156
972422
972648
972876
973124
973378
973608
973834
974064
974312
974560
974788
975008
975242
975486
975728
975950
976172
976404
976640
976874
977094
977308
977528
977754
977990
978232
978454
978690
978988
979280
979534
979780
980034
980290
980538
980778
981020
981266
981514
981756
981992
982242
982490
982738
982974
983208
983454
983704
983960
984206
984444
984692
984948
985196
985432
985674
985920
986176
986424
986662
986908
987158
987412
987654
987890
988136
988380
988622
988856
989084
989322
989568
989820
990058
990296
990544
990792
991034
991270
991514
991770
992026
992270
992508
992756
993010
993260
993502
993740
993988
994240
994484
994722
994964
995216
995474
995720
995962
996216
996472
996730
996974
997210
997458
997704
997946
998178
998406
998632
998858
999088
999310
999526
999760
999988
1000216
1000436
1000654
1000880
1001104
1001334
1001562
1001790
1002054
1002310
1002542
1002766
1003012
1003244
1003478
1003698
1003914
1004136
1004362
1004586
1004804
1005018
1005238
1005462
1005688
1005912
1006128
1006348
1006578
1006898
1007170
1007418
1007674
1007922
1008164
1008398
1008630
1008870
1009114
1009358
1009594
1009826
1010068
1010318
1010564
1010800
1011046
1011292
1011540
1011782
1012018
1012258
1012506
1012754
1012996
1013232
1013478
1013726
1013968
1014200
1014430
1014664
1014906
1015144
1015376
1015612
1015856
1016106
1016358
1016596
1016838
1017086
1017338
1017582
1017816
1018058
1018310
1018566
1018806
1019042
1019290
1019542
1019784
1020020
1020272
1020524
1020776
1021014
1021248
1021488
1021736
1021980
1022216
1022454
1022692
1022928
1023150
1023366
1023584
1023818
1024052
1024274
1024492
1024720
1024958
1025196
1025426
1025648
1025892
1026138
1026428
1026716
1026962
1027206
1027448
1027694
1027956
1028198
1028450
1028710
1028970
1029224
1029470
1029720
1029976
1030234
1030478
1030720
1030972
1031226
1031468
1031706
1031952
1032200
1032444
1032680
1032918
1033164
1033414
1033658
1033888
1034120
1034354
1034602
1034842
1035072
1035296
1035516
1035748
1035978
1036202
1036420
1036640
1036870
1037100
1037316
1037532
1037756
1037984
1038212
1038430
1038660
1038996
1039296
1039562
1039806
1040052
1040290
1040528
1040758
1040984
1041216
1041456
1041696
1041918
1042130
1042350
1042574
1042802
1043020
1043238
1043452
1043674
1043898
1044110
1044320
1044528
1044744
1044966
1045178
1045392
1045610
1045844
1046076
1046296
1046512
1046738
1046968
1047198
1047414
1047632
1047852
1048084
1048322
1048548
1048764
1048980
1049202
1049422
1049642
1049860
1050092
1050350
1050594
1050828
1051052
1051284
1051526
1051762
1051992
1052214
1052436
1052664
1052894
1053120
1053340
1053564
1053806
1054054
1054286
1054508
1054734
1054962
1055200
1055424
1055640
1055862
1056000
1056326
1056548
1056758
1056968
1057192
1057432
1057672
1057896
1058116
1058342
1058580
1058812
1059032
1059258
1059502
1059754
1059990
1060212
1060428
1060654
1060898
1061136
1061364
1061590
1061826
1062064
1062308
1062536
1062756
1062988
1063224
1063458
1063676
1063894
1064120
1064354
1064588
1064812
1065028
1065250
1065476
1065706
1065926
1066138
1066356
1066582
1066818
1067042
1067256
1067474
1067696
1067916
1068130
1068348
1068572
1068798
1069016
1069228
1069444
1069664
1069890
1070114
1070334
1070552
1070780
1071010
1071242
1071482
1071722
1071956
1072194
1072422
1072640
1072860
1073084
1073316
1073542
1073762
1073998
1074242
1074486
1074722
1074946
1075190
1075430
1075670
1075896
1076114
1076330
1076562
1076796
1077018
1077232
1077446
1077668
1077902
1078136
1078356
1078568
1078788
1079016
1079244
1079460
1079674
1079894
1080122
1080356
1080578
1080794
1081016
1081244
1081480
1081704
1081922
1082134
1082358
1082582
1082804
1083018
1083232
1083456
1083690
1083912
1084126
1084342
1084562
1084788
1085016
1085234
1085448
1085670
1085918
1086156
1086382
1086600
1086820
1087042
1087278
1087498
1087710
1087918
1088132
1088354
1088566
1088776
1088990
1089214
1089448
1089668
1089884
1090098
1090320
1090552
1090788
1091004
1091218
1091430
1091650
1091872
1092098
1092312
1092526
1092742
1092964
1093184
1093394
1093604
1093814
1094034
1094258
1094480
1094694
1094906
1095126
1095356
1095582
1095802
1096014
1096236
1096458
1096734
1097012
1097254
1097490
1097730
1097974
1098220
1098458
1098694
1098950
1099204
1099458
1099696
1099934
1100180
1100428
1100672
1100906
1101142
1101382
1101630
1101868
1102102
1102342
1102584
1102824
1103052
1103274
1103496
1103724
1103948
1104156
1104360
1104576
1104792
1105016
1105232
1105444
1105660
1105886
1106114
1106332
1106546
1106762
1106988
1107208
1107428
1107642
1107852
1108064
1108284
1108506
1108722
1108932
1109148
1109364
1109584
1109804
1110016
1110222
1110438
1110656
1110878
1111098
1111324
1111544
1111766
1111982
1112192
1112402
1112620
1112846
1113072
1113290
1113502
1113722
1113944
1114078
1114384
1114590
1114794
1115002
1115210
1115416
1115620
1115824
1116034
1116252
1116478
1116692
1116904
1117118
1117336
1117556
1117772
1117982
1118192
1118412
1118640
1118864
1119078
1119302
1119530
1119754
1119972
1120184
1120400
1120620
1120844
1121064
1121278
1121490
1121712
1121936
1122160
1122376
1122588
1122806
1123032
1123264
1123482
1123696
1123910
1124128
1124348
1124564
1124770
1124980
1125198
1125416
1125630
1125840
1126054
1126270
1126482
1126688
1126894
1127102
1127312
1127524
1127734
1127940
1128150
1128364
1128582
1128800
1129008
1129216
1129424
1129642
1129860
1130076
1130286
1130498
1130716
1130936
1131148
1131356
1131564
1131780
1132002
1132218
1132430
1132644
1132862
1133082
1133296
1133506
1133714
1133922
1134138
1134354
1134566
1134776
1134988
1135204
1135420
1135638
1135850
1136068
1136288
1136506
1136722
1136932
1137150
1137370
1137588
1137804
1138024
1138238
1138460
1138676
1138890
1139100
1139310
1139530
1139754
1139980
1140196
1140412
1140634
1140858
1141084
1141300
1141518
1141744
1141970
1142200
1142418
1142634
1142848
1143070
1143294
1143510
1143726
1143944
1144168
1144394
1144612
1144822
1145030
1145250
1145476
1145698
1145916
1146138
1146368
1146600
1146820
1147034
1147250
1147468
1147688
1147906
1148126
1148340
1148564
1148788
1149004
1149214
1149426
1149644
1149862
1150078
1150290
1150502
1150726
1150946
1151162
1151372
1151586
1151806
1152024
1152236
1152446
1152654
1152870
1153090
1153302
1153514
1153728
1153954
1154178
1154398
1154614
1154840
1155070
1155296
1155512
1155728
1155952
1156174
1156394
1156606
1156820
1157042
1157266
1157482
1157698
1157928
1158168
1158402
1158626
1158848
1159072
1159302
1159534
1159752
1159976
1160206
1160438
1160666
1160886
1161118
1161350
1161586
1161808
1162030
1162254
1162486
1162716
1162934
1163150
1163374
1163598
1163822
1164042
1164256
1164470
1164690
1164912
1165130
1165344
1165558
1165780
1166004
1166224
1166434
1166644
1166862
1167078
1167294
1167502
1167716
1167934
1168154
1168372
1168594
1168810
1169038
1169266
1169488
1169702
1169918
1170140
1170362
1170582
1170798
1171016
1171240
1171462
1171680
1171892
1172112
1172342
1172572
1172800
1173016
1173250
1173482
1173722
1173954
1174174
1174402
1174634
1174860
1175082
1175306
1175550
1175800
1176036
1176266
1176494
1176726
1176962
1177190
1177408
1177630
1177862
1178090
1178316
1178540
1178770
1179010
1179248
1179474
1179700
1179940
1180192
1180424
1180644
1180872
1181102
1181332
1181558
1181774
1181994
1182220
1182446
1182672
1182892
1183112
1183340
1183570
1183792
1184006
1184228
1184462
1184686
1184904
1185118
1185338
1185564
1185790
1186008
1186228
1186454
1186670
1186886
1187100
1187326
1187558
1187782
1187998
1188218
1188444
1188670
1188890
1189106
1189328
1189554
1189786
1190006
1190230
1190456
1190690
1190922
1191144
1191362
1191582
1191812
1192038
1192260
1192472
1192694
1192920
1193140
1193354
1193568
1193794
1194026
1194260
1194484
1194702
1194936
1195172
1195406
1195630
1195850
1196072
1196294
1196512
1196722
1196940
1197160
1197388
1197608
1197828
1198050
1198276
1198502
1198718
1198934
1199166
1199408
1199632
1199852
1200098
1200328
1200556
1200776
1200990
1201204
1201434
1201664
1201886
1202108
1202342
1202584
1202808
1203026
1203250
1203480
1203708
1203924
1204136
1204352
1204580
1204806
1205022
1205236
1205454
1205700
1205930
1206148
1206360
1206576
1206792
1207014
1207228
1207438
1207652
1207874
1208102
1208322
1208534
1208750
1208970
1209186
1209402
1209614
1209828
1210048
1210270
1210482
1210694
1210910
1211128
1211350
1211564
1211774
1211986
1212206
1212428
1212644
1212860
1213082
1213368
1213636
1213880
1214124
1214368
1214610
1214846
1215078
1215318
1215562
1215806
1216040
1216274
1216512
1216754
1216990
1217224
1217470
1217720
1217958
1218192
1218436
1218686
1218938
1219176
1219416
1219662
1219912
1220154
1220410
1220656
1220888
1221112
1221312
1221502
1221690
1221876
1222058
1222242
1222426
1222610
1222792
1222974
1223154
1223334
1223510
1223686
1223862
1224036
1224208
1224378
1224548
1224716
1224884
1225052
1225218
1225382
1225548
1225716
1225886
1226058
1226234
1226412
1226594
1226778
1226966
1227154
1227342
1227530
1227722
1227910
1228092
1228276
1228464
1228656
1228848
1229048
1229250
1229454
1229656
1229856
1230062
1230266
1230474
1230680
1230890
1231104
1231318
1231532
1231748
1231970
1232192
1232412
1232638
1232866
1233084
1233314
1233550
1233778
1234008
1234238
1234470
1234688
1234906
1235130
1235356
1235574
1235790
1236008
1236228
1236446
1236658
1236876
1237100
1237314
1237518
1237714
1237910
1238100
1238292
1238480
1238678
1238878
1239076
1239272
1239464
1239650
1239836
1240022
1240202
1240380
1240558
1240732
1240906
1241080
1241256
1241436
1241616
1241802
1241984
1242172
1242368
1242576
1242802
1243038
1243272
1243504
1243744
1243980
1244222
1244464
1244706
1244954
1245196
1245442
1245692
1245944
1246188
1246434
1246690
1246946
1247200
1247474
1247738
1247992
1248258
1248516
1248766
1249030
1249284
1249526
1249760
1249990
1250210
1250426
1250636
1250834
1251032
1251224
1251416
1251612
1251814
1252020
1252240
1252464
1252680
1252896
1253116
1253332
1253542
1253754
1253970
1254182
1254394
1254608
1254836
1255058
1255278
1255502
1255734
1255958
1256180
1256420
1256646
1256868
1257086
1257214
1257550
1257770
1257994
1258222
1258446
1258684
1258958
1259202
1259474
1259770
1260028
1260300
1260562
1260814
1261082
1261356
1261614
1261878
1262148
1262410
1262660
1262910
1263176
1263436
1263682
1263922
1264170
1264426
1264670
1264814
1265164
1265408
1265638
1265868
1266102
1266338
1266570
1266806
1267052
1267300
1267544
1267802
1268058
1268304
1268562
1268824
1269080
1269326
1269584
1269856
1270114
1270360
1270616
1270890
1271156
1271410
1271676
1271956
1272226
1272494
1272784
1273066
1273334
1273606
1273886
1274160
1274420
1274690
1274968
1275240
1275500
1275768
1276040
1276306
1276560
1276822
1277098
1277370
1277628
1277906
1278182
1278446
1278702
1278986
1279254
1279510
1279768
1280032
1280284
1280530
1280790
1281054
1281300
1281548
1281820
1282078
1282326
1282600
1282866
1283124
1283378
1283642
1283910
1284174
1284428
1284702
1284982
1285248
1285502
1285772
1286042
1286306
1286564
1286850
1287132
1287404
1287674
1287956
1288230
1288492
1288764
1289050
1289330
1289592
1289854
1290130
1290410
1290672
1290932
1291202
1291470
1291728
1291990
1292258
1292522
1292776
1293024
1293290
1293432
1293592
1293806
1294054
1294328
1294598
1294848
1295094
1295366
1295630
1295880
1296122
1296386
1296650
1296898
1297162
1297426
1297686
1297934
1298192
1298466
1298738
1299004
1299276
1299554
1299836
1300094
1300350
1300616
1300882
1301134
1301388
1301658
1301922
1302170
1302438
1302704
1302956
1303202
1303474
1303742
1303998
1304246
1304508
1304766
1305016
1305262
1305524
1305782
1306028
1306268
1306520
1306770
1307002
1307220
1307448
1307674
1307896
1308120
1308398
1308714
1308988
1309266
1309534
1309784
1310028
1310288
1310548
1310790
1311042
1311300
1311550
1311790
1312032
1312288
1312548
1312794
1313040
1313302
1313572
1313828
1314084
1314354
1314630
1314886
1315148
1315432
1315708
1315968
1316226
1316490
1316754
1317004
1317252
1317510
1317768
1318010
1318256
1318510
1318766
1319012
1319256
1319516
1319782
1320040
1320308
1320580
1320838
1321084
1321332
1321596
1321868
1322124
1322388
1322672
1322946
1323202
1323460
1323736
1324006
1324260
1324508
1324780
1325050
1325302
1325550
1325816
1326080
1326326
1326568
1326826
1327088
1327336
1327580
1327838
1328096
1328336
1328578
1328808
1329040
1329264
1329490
1329704
1329910
1330116
1330318
1330518
1330716
1330914
1331118
1331330
1331542
1331762
1332052
1332330
1332588
1332758
1333086
1333368
1333636
1333918
1334206
1334488
1334758
1335032
1335308
1335576
1335844
1336112
1336370
1336500
1336664
1336890
1337158
1337418
1337682
1337946
1338208
1338456
1338704
1338966
1339224
1339474
1339730
1339990
1340252
1340512
1340760
1341010
1341258
1341502
1341750
1342028
1342310
1342580
1342844
1343126
1343404
1343668
1343928
1344198
1344468
1344728
1344988
1345268
1345550
1345824
1346104
1346392
1346668
1346928
1347190
1347472
1347770
1348054
1348354
1348650
1348934
1349206
1349490
1349774
1350046
1350308
1350582
1350852
1351122
1351378
1351636
1351904
1352172
1352428
1352684
1352950
1353212
1353462
1353708
1353964
1354220
1354464
1354704
1354954
1355206
1355450
1355694
1355924
1356150
1356372
1356596
1356856
1357102
1357338
1357566
1357806
1358050
1358284
1358520
1358758
1359008
1359248
1359476
1359704
1359946
1360194
1360422
1360660
1360894
1361136
1361364
1361590
1361822
1362070
1362302
1362534
1362774
1363036
1363268
1363502
1363758
1364090
1364378
1364644
1364916
1365186
1365440
1365686
1365948
1366214
1366474
1366724
1366982
1367238
1367482
1367730
1367992
1368254
1368506
1368764
1369036
1369304
1369558
1369810
1370076
1370340
1370590
1370850
1371116
1371384
1371636
1371888
1372150
1372412
1372658
1372910
1373166
1373420
1373682
1373964
1374218
1374466
1374734
1375006
1375280
1375544
1375818
1376096
1376372
1376636
1376912
1377188
1377458
1377714
1377974
1378236
1378494
1378740
1378982
1379236
1379492
1379740
1380008
1380270
1380516
1380762
1381016
1381270
1381514
1381754
1382004
1382256
1382498
1382740
1382998
1383236
1383458
1383680
1383924
1384158
1384394
1384620
1384844
1385090
1385336
1385580
1385806
1386028
1386252
1386488
1386706
1386928
1387158
1387408
1387636
1387862
1388100
1388340
1388568
1388786
1389010
1389230
1389460
1389682
1389906
1390138
1390362
1390582
1390804
1391040
1391274
1391504
1391726
1391992
1392306
1392594
1392848
1393122
1393402
1393676
1393936
1394212
1394494
1394770
1395026
1395280
1395540
1395802
1396054
1396312
1396588
1396862
1397122
1397378
1397658
1397932
1398206
1398468
1398724
1398994
1399266
1399524
1399780
1400048
1400318
1400572
1400826
1401086
1401348
1401598
1401840
1402100
1402362
1402620
1402866
1403112
1403372
1403638
1403888
1404136
1404406
1404666
1404922
1405164
1405412
1405672
1405934
1406066
1406428
1406670
1406898
1407114
1407326
1407546
1407778
1408034
1408262
1408490
1408734
1408978
1409218
1409446
1409672
1409940
1410258
1410522
1410778
1411040
1411302
1411544
1411790
1412056
1412316
1412560
1412802
1413062
1413316
1413556
1413692
1414048
1414290
1414524
1414764
1415016
1415260
1415494
1415734
1415994
1416272
1416548
1416808
1417086
1417368
1417646
1417904
1418168
1418430
1418678
1418930
1419188
1419446
1419690
1419940
1420200
1420466
1420720
1420972
1421250
1421526
1421784
1422034
1422302
1422572
1422836
1423090
1423362
1423634
1423896
1424148
1424414
1424684
1424952
1425202
1425448
1425700
1425954
1426196
1426440
1426690
1426958
1427218
1427470
1427742
1428006
1428250
1428488
1428750
1428998
1429232
1429466
1429712
1429956
1430190
1430420
1430684
1430952
1431196
1431462
1431722
1431974
1432214
1432480
1432744
1433002
1433246
1433506
1433774
1434042
1434290
1434556
1434824
1435092
1435344
1435598
1435864
1436126
1436378
1436624
1436884
1437140
1437402
1437648
1437906
1438176
1438448
1438710
1438968
1439240
1439508
1439772
1440024
1440278
1440534
1440788
1441034
1441284
1441554
1441822
1442084
1442336
1442596
1442854
1443106
1443348
1443600
1443862
1444120
1444372
1444616
1444868
1445130
1445394
1445640
1445884
1446144
1446414
1446674
1446920
1447156
1447376
1447582
1447772
1447962
1448150
1448334
1448520
1448704
1448892
1449080
1449268
1449456
1449644
1449830
1450020
1450212
1450412
1450626
1450846
1451066
1451290
1451510
1451724
1451940
1452162
1452386
1452620
1452862
1453102
1453324
1453534
1453736
1453936
1454134
1454334
1454548
1454772
1454994
1455214
1455456
1455748
1456026
1456300
1456564
1456822
1457088
1457330
1457556
1457778
1457992
1458204
1458418
1458656
1458910
1459174
1459432
1459690
1459944
1460214
1460492
1460770
1461042
1461318
1461592
1461860
1462110
1462358
1462606
1462850
1463092
1463346
1463612
1463862
1464118
1464382
1464646
1464900
1465174
1465456
1465728
1466010
1466296
1466572
1466860
1467142
1467422
1467702
1467972
1468248
1468528
1468802
1469066
1469334
1469596
1469844
1470086
1470334
1470580
1470822
1471060
1471314
1471572
1471822
1472076
1472348
1472616
1472866
1473126
1473382
1473636
1473876
1474120
1474358
1474584
1474804
1475010
1475210
1475406
1475600
1475794
1475992
1476192
1476388
1476582
1476778
1476980
1477190
1477462
1477748
1478014
1478294
1478576
1478850
1479118
1479382
1479650
1479910
1480166
1480428
1480692
1480948
1481196
1481454
1481714
1481976
1482228
1482476
1482748
1483010
1483262
1483508
1483766
1484008
1484148
1484484
1484702
1484902
1485096
1485290
1485486
1485684
1485886
1486092
1486310
1486608
1486908
1487188
1487488
1487786
1488062
1488348
1488628
1488910
1489192
1489462
1489742
1490024
1490304
1490588
1490876
1491148
1491418
1491696
1491968
1492232
1492494
1492776
1493050
1493314
1493588
1493850
1494112
1494390
1494662
1494922
1495174
1495440
1495706
1495954
1496194
1496428
1496656
1496876
1497090
1497296
1497498
1497702
1497910
1498122
1498342
1498604
1498926
1499216
1499512
1499802
1500074
1500358
1500640
1500908
1501188
1501468
1501734
1502010
1502292
1502566
1502828
1503090
1503362
1503628
1503886
1504154
1504422
1504682
1504936
1505194
1505456
1505706
1505954
1506202
1506478
1506750
1507004
1507256
1507510
1507742
1507970
1508196
1508422
1508632
1508838
1509050
1509260
1509468
1509672
1509874
1510084
1510288
1510490
1510706
1510944
1511264
1511564
1511854
1512136
1512434
1512732
1513012
1513304
1513592
1513866
1514148
1514426
1514700
1514962
1515242
1515528
1515814
1516086
1516364
1516650
1516926
1517188
1517466
1517746
1518022
1518282
1518548
1518822
1519086
1519346
1519622
1519902
1520176
1520436
1520712
1520990
1521264
1521528
1521806
1522090
1522368
1522632
1522908
1523190
1523468
1523736
1524020
1524308
1524588
1524852
1525128
1525412
1525696
1525962
1526240
1526526
1526794
1527052
1527320
1527572
1527818
1528048
1528276
1528506
1528730
1528952
1529230
1529504
1529768
1530056
1530348
1530620
1530902
1531188
1531460
1531744
1532028
1532296
1532576
1532850
1533116
1533388
1533662
1533926
1534196
1534458
1534712
1534976
1535242
1535504
1535762
1536028
1536296
1536566
1536820
1537070
1537336
1537598
1537854
1538114
1538392
1538670
1538934
1539206
1539482
1539758
1540022
1540282
1540564
1540852
1541128
1541422
1541718
1542006
1542288
1542576
1542868
1543164
1543450
1543720
1543988
1544260
1544530
1544790
1545040
1545300
1545560
1545814
1546066
1546318
1546576
1546826
1547084
1547356
1547624
1547888
1548168
1548454
1548732
1549000
1549280
1549558
1549822
1550082
1550350
1550616
1550874
1551138
1551404
1551664
1551924
1552198
1552474
1552752
1553022
1553280
1553544
1553812
1554076
1554334
1554596
1554860
1555124
1555382
1555630
1555886
1556138
1556384
1556646
1556902
1557152
1557400
1557640
1557874
1558104
1558328
1558534
1558738
1558942
1559152
1559380
1559686
1559972
1560254
1560536
1560806
1561066
1561336
1561610
1561872
1562138
1562408
1562678
1562948
1563220
1563490
1563764
1564030
1564294
1564572
1564850
1565126
1565410
1565686
1565944
1566194
1566456
1566712
1566958
1567220
1567470
1567708
1567944
1568172
1568390
1568592
1568792
1568994
1569194
1569398
1569618
1569942
1570234
1570510
1570802
1571088
1571358
1571626
1571878
1572122
1572378
1572644
1572904
1573168
1573426
1573680
1573944
1574216
1574484
1574742
1574998
1575260
1575520
1575768
1576016
1576274
1576524
1576770
1577018
1577272
1577532
1577786
1578052
1578318
1578572
1578822
1579078
1579336
1579586
1579830
1580086
1580342
1580592
1580840
1581100
1581360
1581610
1581858
1582116
1582376
1582622
1582870
1583134
1583398
1583648
1583890
1584136
1584366
1584590
1584804
1585002
1585200
1585394
1585592
1585796
1586002
1586214
1586456
1586748
1587024
1587290
1587536
1587772
1588020
1588278
1588534
1588780
1589036
1589294
1589542
1589778
1590008
1590230
1590450
1590664
1590860
1591054
1591244
1591434
1591622
1591816
1592005
1592193
1592374
1592559
1592740
1592922
1593102
1593284
1593464
1593650
1593828
1594018
1594202
1594388
1594580
1594789
1595026
1595287
1595558
1595838
1596124
1596410
1596686
1596968
1597250
1597530
1597792
1598054
1598322
1598590
1598838
1599084
1599330
1599568
1599800
1600040
1600298
1600560
1600804
1601084
1601362
1601632
1601904
1602180
1602450
1602706
1602966
1603230
1603492
1603754
1604026
1604310
1604590
1604862
1605138
1605414
1605690
1605960
1606240
1606532
1606820
1607106
1607392
1607686
1607968
1608260
1608388
1608573
1608816
1609084
1609368
1609652
1609920
1610194
1610462
1610714
1610968
1611240
1611512
1611780
1612058
1612342
1612618
1612884
1613156
1613424
1613692
1613962
1614244
1614516
1614788
1615068
1615352
1615626
1615906
1616178
1616440
1616700
1616958
1617218
1617466
1617714
1617972
1618234
1618490
1618750
1619024
1619292
1619554
1619812
1620066
1620316
1620568
1620818
1621070
1621330
1621582
1621824
1622080
1622334
1622586
1622828
1623074
1623294
1623520
1623738
1623958
1624182
1624432
1624662
1624894
1625128
1625370
1625596
1625820
1626042
1626266
1626484
1626702
1626926
1627158
1627380
1627612
1627864
1628120
1628364
1628606
1628846
1629090
1629324
1629564
1629800
1630040
1630278
1630518
1630752
1630980
1631204
1631432
1631662
1631884
1632102
1632316
1632540
1632762
1632980
1633204
1633430
1633658
1633882
1634114
1634364
1634600
1634832
1635062
1635292
1635514
1635734
1635956
1636174
1636392
1636612
1636844
1637072
1637294
1637518
1637746
1637978
1638208
1638432
1638654
1638878
1639108
1639332
1639552
1639778
1640006
1640226
1640444
1640664
1640892
1641124
1641354
1641580
1641806
1642032
1642248
1642464
1642684
1642900
1643110
1643306
1643502
1643698
1643890
1644086
1644272
1644458
1644636
1644814
1644994
1645174
1645354
1645532
1645706
1645882
1646054
1646226
1646398
1646572
1646748
1646928
1647118
1647316
1647520
1647796
1648068
1648320
1648582
1648844
1649104
1649354
1649618
1649888
1650152
1650412
1650688
1650966
1651240
1651508
1651800
1652096
1652392
1652674
1652948
1653232
1653516
1653788
1654046
1654316
1654584
1654850
1655104
1655358
1655620
1655892
1656168
1656448
1656722
1656998
1657282
1657566
1657850
1658140
1658420
1658702
1658978
1659248
1659520
1659784
1660058
1660330
1660584
1660830
1661082
1661334
1661570
1661814
1662066
1662316
1662558
1662818
1663090
1663360
1663622
1663898
1664168
1664432
1664684
1664950
1665220
1665482
1665738
1666000
1666264
1666518
1666776
1667032
1667282
1667538
1667792
1668042
1668300
1668560
1668816
1669080
1669330
1669590
1669848
1670100
1670342
1670586
1670720
1671074
1671300
1671516
1671726
1671944
1672154
1672368
1672594
1672842
1673084
1673328
1673574
1673834
1674066
1674298
1674530
1674778
1675008
1675238
1675472
1675706
1675928
1676160
1676404
1676630
1676852
1677078
1677320
1677548
1677772
1677998
1678242
1678462
1678686
1678904
1679140
1679368
1679596
1679820
1680062
1680292
1680524
1680748
1680964
1681174
1681388
1681596
1681802
1682020
1682240
1682454
1682666
1682878
1683106
1683336
1683560
1683780
1684008
1684242
1684466
1684682
1684902
1685132
1685356
1685576
1685792
1686022
1686266
1686504
1686734
1686968
1687224
1687468
1687704
1687936
1688200
1688420
1688634
1688844
1689072
1689310
1689532
1689748
1689966
1690190
1690404
1690612
1690816
1691030
1691242
1691450
1691654
1691854
1692068
1692306
1692526
1692736
1692950
1693186
1693408
1693636
1693852
1694072
1694318
1694558
1694790
1695014
1695232
1695458
1695692
1695910
1696120
1696332
1696564
1696806
1697042
1697270
1697496
1697742
1697982
1698218
1698450
1698686
1698914
1699134
1699344
1699560
1699782
1700008
1700242
1700468
1700688
1700912
1701142
1701378
1701604
1701824
1702044
1702274
1702492
1702712
1702958
1703192
1703412
1703630
1703854
1704088
1704312
1704526
1704736
1704958
1705186
1705406
1705630
1705872
1706114
1706350
1706586
1706918
1707218
1707490
1707760
1708026
1708284
1708534
1708790
1709050
1709312
1709570
1709828
1710078
1710318
1710546
1710772
1711000
1711234
1711482
1711728
1711972
1712218
1712466
1712714
1712952
1713194
1713440
1713690
1713938
1714190
1714450
1714712
1714966
1715224
1715484
1715732
1715978
1716230
1716480
1716720
1716966
1717212
1717458
1717710
1717942
1718178
1718404
1718608
1718808
1719004
1719198
1719388
1719576
1719764
1719958
1720156
1720356
1720558
1720764
1720982
1721206
1721432
1721652
1721872
1722096
1722328
1722556
1722784
1723008
1723236
1723464
1723690
1723918
1724136
1724356
1724576
1724800
1725016
1725228
1725440
1725658
1725876
1726088
1726298
1726504
1726714
1726932
1727146
1727356
1727566
1727786
1728022
1728240
1728458
1728674
1728920
1729176
1729414
1729650
1729890
1730218
1730512
1730784
1731050
1731320
1731588
1731852
1732112
1732380
1732648
1732906
1733168
1733304
1733470
1733696
1733948
1734198
1734462
1734728
1734988
1735238
1735484
1735736
1735992
1736236
1736492
1736756
1737028
1737298
1737572
1737848
1738110
1738374
1738638
1738892
1739140
1739402
1739530
1739894
1740126
1740352
1740564
1740780
1740998
1741240
1741462
1741674
1741888
1742116
1742334
1742544
1742754
1742962
1743166
1743368
1743570
1743784
1744018
1744240
1744496
1744748
1745004
1745232
1745484
1745818
1746124
1746404
1746666
1746930
1747202
1747478
1747748
1748012
1748278
1748542
1748802
1749068
1749332
1749586
1749838
1750094
1750352
1750606
1750860
1751122
1751388
1751642
1751898
1752168
1752444
1752712
1752984
1753256
1753524
1753798
1754080
1754350
1754628
1754920
1755204
1755470
1755754
1756042
1756320
1756598
1756890
1757180
1757456
1757750
1758042
1758318
1758602
1758882
1759154
1759438
1759712
1759976
1760248
1760516
1760772
1761034
1761304
1761572
1761826
1762086
1762342
1762586
1762824
1763056
1763278
1763496
1763710
1763926
1764148
1764368
1764580
1764788
1765004
1765208
1765408
1765602
1765794
1765988
1766178
1766366
1766554
1766738
1766922
1767104
1767286
1767464
1767646
1767824
1768000
1768176
1768350
1768524
1768698
1768872
1769048
1769230
1769416
1769616
1769818
1770028
1770268
1770566
1770832
1771086
1771352
1771618
1771882
1772142
1772408
1772680
1772946
1773204
1773456
1773722
1773984
1774238
1774482
1774720
1774950
1775172
1775394
1775626
1775894
1776164
1776420
1776686
1776956
1777222
1777478
1777740
1778008
1778276
1778550
1778824
1779086
1779358
1779636
1779912
1780172
1780424
1780686
1780942
1781190
1781432
1781670
1781906
1782134
1782356
1782564
1782782
1783022
1783336
1783658
1783930
1784178
1784416
1784648
1784872
1785096
1785326
1785572
1785808
1786122
1786418
1786690
1786938
1787172
1787400
1787630
1787866
1788096
1788334
1788578
1788812
1789070
1789310
1789540
1789754
1789966
1790184
1790406
1790628
1790848
1791064
1791274
1791480
1791688
1791906
1792140
1792370
1792598
1792844
1793086
1793326
1793560
1793794
1794008
1794218
1794420
1794622
1794834
1795062
1795282
1795518
1795776
1796026
1796260
1796492
1796728
1796946
1797156
1797366
1797584
1797816
1798046
1798278
1798548
1798810
1798934
1799260
1799484
1799700
1799920
