peaks
63
238
418
612
777
978
1156
1342
1528
1712
1892
2070
2254
2436
2616
2796
2978
3162
3342
3522
3694
3872
4046
4216
4388
4564
4744
4922
5096
5270
5450
5628
5800
5974
6150
6330
6510
6684
6862
7000
7230
7414
7594
7774
7958
8136
8276
8490
8662
8838
9012
9190
9366
9540
9716
9890
10066
10236
10408
10582
10756
10930
11106
11282
11464
11644
11822
12002
12186
12372
12550
12728
12912
13096
13280
13460
13638
13820
14006
14188
14360
14542
14722
14904
15082
15254
15428
15606
15774
15950
16126
16310
16490
16668
16856
17034
17218
17404
17588
17768
17944
18122
18300
18484
18660
18836
19012
19186
19356
19526
19700
19874
20050
20230
20406
20580
20752
20928
21104
21272
21448
21626
21810
21996
22178
22362
22552
22748
22934
23114
23296
23478
23664
23846
24032
24226
24416
24602
24782
24966
25156
25344
25532
25702
25906
26098
26284
26468
26642
26818
26988
27150
27314
27474
27634
27792
27948
28102
28254
28410
28566
28720
28878
29040
29210
29374
29544
29716
29896
30070
30242
30416
30596
30780
30966
31154
31334
31518
31710
31896
32086
32266
32450
32638
32824
33014
33200
33376
33560
33740
33922
34100
34280
34462
34648
34834
35014
35198
35390
35580
35766
35946
36136
36328
36526
36724
36916
37230
37432
37626
37814
37996
38174
38358
38548
38752
38986
39212
39406
39582
39766
39942
40116
40290
40468
40654
40838
41018
41188
41360
41528
41692
41854
42018
42178
42340
42500
42656
42816
42974
43134
43296
43460
43622
43784
43950
44122
44296
44470
44644
44822
45002
45182
45360
45538
45724
45910
46092
46270
46452
46636
46822
47004
47178
47354
47534
47716
47894
48070
48252
48438
48624
48804
48974
49154
49332
49506
49656
49880
50070
50246
50426
50612
50796
50982
51162
51342
51526
51704
51874
52038
52204
52370
52530
52688
52848
53006
53160
53318
53474
53630
53796
53968
54144
54330
54508
54704
54902
55102
55302
55502
55746
56074
56296
56502
56702
56896
57086
57274
57488
57762
57942
58126
58314
58516
58732
58970
59164
59356
59542
59718
59904
60088
60274
60460
60652
60848
61044
61244
61430
61648
61860
62050
62230
62410
62596
62776
62956
63132
63318
63510
63710
63928
64130
64320
64504
64688
64864
65042
65226
65412
65596
65778
65968
66156
66342
66522
66706
66892
67076
67260
67442
67624
67808
67984
68140
68346
68528
68710
68882
69058
69238
69420
69602
69778
69960
70142
70324
70502
70686
70870
71056
71236
71416
71598
71786
71974
72156
72338
72526
72722
72908
73096
73272
73450
73638
73822
74006
74194
74382
74572
74746
74922
75096
75276
75456
75636
75816
75998
76184
76370
76550
76728
76908
77092
77270
77450
77614
77820
77996
78176
78354
78526
78718
78896
79078
79266
79450
79640
79820
80006
80194
80378
80558
80740
80928
81114
81298
81478
81666
81854
82044
82226
82400
82580
82764
82944
83120
83296
83478
83658
83840
84012
84190
84370
84542
84718
84896
85076
85260
85438
85608
85804
85986
86164
86336
86498
86698
86880
87058
87244
87432
87614
87794
87980
88168
88354
88534
88710
88890
89070
89250
89424
89600
89780
89958
90144
90320
90496
90676
90854
91032
91202
91382
91566
91752
91934
92112
92296
92478
92644
92844
93024
93202
93380
93552
93724
93898
94076
94254
94430
94604
94780
94958
95134
95310
95484
95660
95840
96016
96192
96362
96538
96716
96898
97076
97260
97430
97654
97840
98024
98200
98380
98560
98742
98924
99096
99276
99458
99612
99820
99996
100182
100370
100552
100720
100886
101050
101218
101390
101562
101730
101894
102056
102216
102378
102538
102698
102856
103012
103170
103328
103484
103640
103798
103958
104116
104274
104432
104588
104746
104902
105058
105214
105372
105532
105686
105842
105996
106152
106312
106472
106636
106800
106966
107134
107306
107478
107646
107818
107994
108166
108334
108508
108680
108854
109028
109202
109380
109513
109730
109904
110076
110256
110434
110612
110786
110964
111136
111306
111484
111658
111834
112012
112190
112370
112540
112712
112880
113052
113226
113400
113566
113734
113908
114076
114240
114408
114574
114746
114906
115072
115238
115408
115570
115732
115898
116068
116232
116398
116570
116734
116902
117070
117240
117410
117580
117750
117918
118080
118250
118416
118580
118742
118904
119068
119234
119402
119568
119728
119898
120068
120240
120406
120546
120750
120924
121102
121272
121450
121628
121806
121980
122164
122342
122518
122702
122888
123072
123268
123450
123618
123820
124000
124176
124350
124532
124716
124894
125068
125232
125432
125616
125796
125972
126154
126334
126510
126682
126860
127038
127210
127384
127564
127744
127922
128094
128270
128448
128628
128802
128978
129148
129314
129474
129638
129802
129964
130118
130278
130440
130572
130762
130924
131088
131254
131418
131584
131754
131928
132100
132270
132452
132634
132818
133004
133192
133384
133580
133786
134010
134242
134432
134610
134790
134970
135150
135324
135496
135672
135850
136030
136202
136380
136562
136744
136924
137094
137264
137434
137608
137772
137940
138112
138288
138462
138598
138816
139002
139158
139370
139552
139732
139908
140084
140266
140418
140650
140858
141050
141238
141424
141606
141782
141966
142148
142334
142512
142696
142864
143066
143244
143426
143606
143788
143962
144138
144318
144496
144666
144834
145002
145174
145346
145502
145688
145862
146040
146212
146386
146566
146748
146932
147112
147296
147482
147666
147848
148028
148208
148388
148560
148732
148912
149092
149274
149456
149636
149824
150016
150202
150386
150574
150752
150932
151090
151304
151490
151670
151846
152032
152216
152402
152576
152752
152924
153094
153258
153422
153590
153756
153918
154088
154258
154432
154606
154782
154968
155158
155344
155526
155716
155904
156092
156274
156456
156650
156808
157118
157260
157516
157708
157894
158076
158256
158432
158606
158774
158946
159122
159300
159484
159680
159872
160056
160246
160434
160614
160798
160988
161174
161354
161530
161712
161892
162066
162242
162422
162600
162780
162954
163132
163280
163496
163678
163842
164036
164220
164400
164578
164758
164942
165124
165306
165484
165666
165850
166032
166212
166394
166578
166758
166932
167114
167296
167478
167654
167830
168012
168192
168364
168540
168718
168898
169084
169260
169444
169630
169816
170000
170178
170358
170540
170718
170902
171080
171266
171450
171630
171802
171978
172154
172334
172510
172684
172862
173040
173220
173398
173576
173748
173926
174104
174282
174458
174632
174810
174992
175172
175346
175522
175702
175882
176066
176244
176420
176600
176782
176956
177138
177320
177502
177688
177868
178046
178228
178410
178582
178758
178930
179108
179286
179466
179648
179826
180010
180196
180380
180562
180736
180918
181100
181284
181466
181640
181818
181994
182174
182346
182522
182700
182878
183062
183234
183418
183600
183782
183962
184150
184340
184528
184716
184898
185082
185268
185452
185612
185812
185996
186180
186366
186550
186700
186908
187092
187250
187462
187640
187812
188016
188200
188360
188564
188748
188902
189118
189300
189480
189660
189842
189998
190196
190376
190540
190746
190926
191088
191296
191484
191646
191852
192032
192214
192400
192584
192766
192946
193130
193316
193498
193676
193856
194038
194216
194398
194572
194744
194920
195092
195266
195436
195606
195784
195964
196146
196324
196500
196676
196856
197032
197208
197380
197558
197738
197920
198102
198278
198456
198644
198828
199012
199194
199386
199574
199766
199946
200132
200322
200514
200702
200884
201064
201248
201432
201614
201792
201972
202152
202330
202510
202682
202856
203034
203214
203392
203568
203744
203924
204102
204280
204454
204630
204810
204992
205172
205346
205530
205710
205894
206072
206252
206432
206612
206790
206962
207140
207316
207488
207666
207842
208026
208210
208394
208572
208750
208932
209122
209302
209476
209650
209826
210004
210184
210354
210532
210710
210888
211060
211232
211410
211594
211778
211962
212144
212332
212518
212710
212892
213076
213266
213452
213638
213814
213992
214170
214346
214520
214692
214872
215052
215234
215416
215584
215772
215954
216138
216318
216498
216684
216864
217050
217228
217410
217594
217780
217966
218150
218328
218512
218696
218880
219054
219240
219422
219606
219788
219962
220142
220322
220502
220682
220858
221038
221220
221402
221584
221756
221936
222116
222300
222480
222662
222846
223030
223214
223394
223580
223768
223956
224136
224316
224498
224680
224854
225026
225198
225374
225550
225722
225894
226072
226250
226422
226596
226774
226954
227134
227310
227484
227664
227846
228028
228196
228384
228564
228742
228914
229092
229270
229454
229636
229814
229994
230176
230360
230542
230678
230902
231088
231262
231440
231618
231802
231976
232156
232334
232512
232698
232886
233066
233250
233428
233608
233782
233958
234138
234318
234500
234676
234852
235028
235206
235388
235564
235742
235922
236100
236274
236448
236624
236806
236990
237172
237350
237534
237718
237900
238058
238254
238434
238618
238800
238976
239158
239346
239530
239714
239892
240074
240256
240438
240612
240788
240964
241142
241320
241492
241668
241844
242022
242200
242366
242544
242720
242892
243064
243240
243418
243594
243770
243940
244114
244290
244464
244640
244808
244982
245156
245330
245500
245670
245844
246018
246194
246368
246540
246716
246894
247072
247252
247428
247604
247784
247964
248144
248318
248496
248672
248852
249028
249204
249380
249560
249740
249918
250102
250292
250478
250664
250844
251030
251214
251402
251588
251772
251920
252144
252328
252510
252694
252876
253058
253234
253418
253602
253788
253970
254148
254322
254502
254676
254848
255024
255198
255376
255548
255722
255898
256076
256254
256430
256606
256780
256960
257142
257320
257498
257676
257858
258038
258216
258390
258568
258752
258930
259108
259280
259454
259632
259806
259980
260150
260320
260494
260670
260848
261022
261196
261374
261556
261738
261914
262092
262274
262456
262636
262810
262990
263170
263352
263530
263704
263888
264074
264258
264442
264622
264806
264988
265174
265318
265528
265708
265884
266062
266240
266414
266590
266762
266932
267102
267272
267452
267632
267814
267994
268178
268364
268548
268732
268904
269084
269264
269444
269618
269796
269972
270152
270332
270504
270684
270866
271046
271232
271390
271582
271760
271938
272116
272290
272468
272646
272826
273006
273178
273356
273534
273712
273894
274068
274244
274428
274610
274790
274964
275144
275326
275506
275682
275854
276032
276208
276382
276558
276732
276914
277098
277284
277462
277646
277828
278014
278188
278366
278542
278716
278894
279066
279244
279428
279610
279786
279960
280140
280318
280496
280674
280848
281022
281198
281372
281542
281716
281890
282066
282244
282420
282596
282778
282966
283150
283330
283512
283700
283878
284058
284228
284406
284586
284766
284944
285122
285306
285488
285668
285846
286028
286210
286392
286576
286750
286930
287110
287292
287472
287654
287840
288030
288216
288400
288584
288770
288952
289134
289312
289494
289678
289858
290034
290214
290392
290572
290748
290930
291108
291286
291466
291640
291820
291998
292176
292350
292528
292708
292886
293068
293244
293422
293600
293782
293956
294134
294312
294488
294660
294832
295002
295176
295348
295522
295694
295866
296038
296212
296388
296556
296732
296904
297078
297246
297418
297592
297764
297938
298106
298280
298458
298640
298818
298996
299168
299352
299536
299716
299892
300074
300254
300432
300610
300788
300968
301146
301324
301500
301682
301864
302042
302216
302390
302566
302744
302922
303094
303270
303446
303622
303800
303980
304156
304332
304500
304628
304856
305036
305216
305398
305572
305748
305928
306108
306292
306470
306648
306830
307012
307188
307342
307540
307718
307896
308072
308244
308422
308598
308776
308948
309128
309310
309494
309678
309856
310036
310224
310408
310590
310766
310946
311122
311300
311472
311646
311820
311998
312170
312342
312512
312688
312864
313042
313218
313396
313574
313752
313928
314102
314280
314462
314646
314826
315008
315190
315372
315548
315722
315896
316074
316252
316426
316604
316788
316974
317158
317334
317512
317696
317880
318062
318244
318430
318616
318802
318980
319160
319346
319530
319712
319884
320064
320244
320426
320606
320778
320960
321142
321324
321506
321686
321872
322058
322246
322432
322614
322802
322988
323174
323356
323540
323722
323906
324082
324256
324434
324612
324790
324964
325136
325312
325490
325668
325846
326022
326200
326380
326562
326744
326922
327098
327276
327452
327632
327804
327982
328158
328318
328520
328696
328874
329056
329198
329416
329592
329772
329952
330094
330304
330482
330660
330840
330988
331196
331376
331556
331736
331904
332084
332266
332444
332624
332804
332982
333166
333352
333536
333716
333894
334074
334254
334428
334608
334786
334962
335140
335312
335486
335664
335840
336016
336186
336364
336544
336724
336902
337080
337260
337440
337606
337792
337970
338148
338330
338510
338688
338864
339044
339224
339404
339580
339756
339932
340114
340294
340470
340648
340828
341008
341190
341366
341538
341716
341894
342074
342250
342424
342606
342784
342964
343138
343318
343500
343680
343860
344038
344220
344402
344586
344766
344944
345126
345310
345492
345672
345850
346034
346218
346402
346582
346762
346948
347136
347322
347506
347690
347876
348066
348248
348430
348614
348800
348984
349160
349338
349518
349692
349868
350040
350212
350390
350568
350738
350908
351080
351256
351392
351604
351778
351954
352132
352274
352486
352662
352838
353016
353194
353372
353550
353726
353904
354080
354258
354430
354608
354786
354964
355142
355318
355496
355676
355858
356038
356214
356394
356574
356754
356934
357112
357290
357474
357658
357838
358018
358200
358380
358564
358736
358914
359088
359268
359448
359624
359802
359982
360166
360346
360526
360704
360886
361070
361250
361428
361610
361796
361982
362164
362342
362526
362714
362898
363078
363258
363438
363618
363756
363966
364138
364316
364492
364670
364842
365018
365194
365370
365538
365712
365888
366066
366242
366416
366588
366764
366942
367118
367292
367462
367640
367820
367998
368174
368346
368524
368700
368874
369048
369228
369400
369574
369746
369914
370084
370258
370432
370608
370780
370956
371134
371310
371488
371664
371840
372018
372196
372370
372544
372718
372896
373074
373246
373420
373594
373766
373940
374110
374280
374454
374630
374804
374974
375120
375322
375498
375668
375840
376014
376190
376362
376534
376708
376882
377058
377234
377406
377576
377750
377924
378100
378274
378446
378620
378796
378972
379142
379316
379492
379666
379840
380012
380186
380362
380536
380714
380886
381058
381234
381406
381578
381748
381922
382098
382276
382450
382620
382790
382962
383134
383304
383472
383646
383822
383998
384170
384344
384518
384692
384868
385038
385212
385386
385564
385742
385912
386086
386264
386442
386616
386786
386962
387136
387312
387488
387658
387828
387998
388168
388340
388512
388686
388860
389030
389206
389380
389556
389734
389910
390084
390264
390442
390622
390796
390974
391152
391330
391508
391680
391856
392034
392212
392390
392562
392742
392922
393102
393286
393462
393638
393816
393990
394162
394332
394504
394680
394856
395034
395212
395386
395562
395738
395914
396086
396264
396442
396620
396796
396970
397140
397316
397490
397666
397838
398006
398180
398348
398518
398686
398858
399030
399202
399372
399544
399716
399890
400064
400242
400416
400586
400762
400938
401116
401290
401464
401632
401818
401996
402172
402348
402528
402708
402892
403066
403240
403414
403586
403758
403928
404102
404276
404456
404630
404804
404980
405156
405338
405510
405686
405864
406044
406224
406396
406574
406754
406936
407116
407290
407470
407650
407834
408008
408186
408364
408548
408726
408906
409088
409266
409446
409624
409804
409988
410172
410352
410530
410708
410886
411064
411240
411412
411588
411768
411952
412144
412326
412498
412694
412876
413048
413220
413350
413574
413750
413926
414102
414262
414450
414626
414804
414978
415152
415330
415508
415682
415862
416042
416222
416404
416576
416750
416928
417104
417278
417452
417628
417806
417984
418162
418340
418520
418702
418884
419064
419236
419414
419594
419774
419950
420128
420308
420494
420688
420886
421076
421266
421452
421628
421806
421988
422170
422352
422526
422712
422894
423078
423258
423438
423618
423802
423986
424164
424344
424528
424710
424894
425070
425250
425428
425606
425776
425954
426128
426304
426482
426668
426834
427048
427234
427418
427564
427770
427948
428128
428308
428446
428658
428838
429018
429194
429366
429542
429722
429904
430084
430262
430442
430632
430820
431000
431176
431356
431534
431710
431884
432058
432236
432416
432610
432812
433000
433190
433376
433562
433744
433926
434112
434296
434482
434664
434846
435028
435206
435380
435556
435734
435912
436090
436266
436444
436626
436806
436996
437192
437382
437572
437756
437936
438112
438292
438468
438650
438824
439006
439190
439380
439564
439746
439926
440108
440292
440470
440646
440818
440996
441176
441340
441538
441726
441928
442158
442364
442542
442724
442906
443084
443266
443444
443620
443802
443984
444168
444344
444522
444702
444888
445082
445274
445464
445654
445838
446012
446192
446374
446554
446738
446914
447094
447276
447458
447640
447820
448000
448180
448364
448544
448720
448902
449084
449262
449444
449620
449802
449982
450160
450334
450508
450686
450864
451044
451222
451398
451580
451762
451946
452120
452298
452474
452654
452834
453012
453190
453372
453550
453730
453904
454084
454264
454444
454620
454796
454974
455154
455334
455514
455688
455872
456050
456234
456414
456596
456778
456964
457146
457326
457506
457690
457874
458056
458236
458418
458602
458788
458976
459162
459346
459538
459728
459914
460100
460278
460458
460636
460816
460994
461170
461354
461550
461830
462046
462240
462394
462610
462802
463054
463290
463486
463680
463818
464094
464332
464514
464690
464866
465048
465240
465422
465588
465798
465988
466168
466348
466528
466708
466888
467064
467242
467422
467602
467780
467960
468140
468324
468508
468690
468872
469052
469232
469416
469598
469776
469958
470142
470324
470502
470678
470856
471036
471210
471386
471560
471740
471918
472096
472276
472454
472638
472826
473012
473192
473372
473554
473736
473916
474094
474272
474450
474632
474818
474996
475178
475364
475552
475736
475918
476102
476286
476468
476644
476824
477002
477184
477368
477544
477724
477906
478090
478268
478444
478622
478800
478982
479166
479346
479528
479716
479902
480088
480268
480450
480632
480816
480996
481174
481358
481546
481730
481912
482090
482272
482456
482638
482816
482994
483170
483352
483526
483704
483886
484068
484246
484420
484592
484772
484952
485130
485308
485486
485664
485842
486024
486204
486382
486568
486750
486932
487112
487292
487474
487660
487846
488028
488206
488390
488574
488758
488938
489120
489312
489502
489690
489870
490052
490232
490416
490600
490780
490958
491144
491330
491514
491696
491874
492054
492234
492414
492590
492770
492952
493134
493312
493486
493666
493846
494030
494216
494400
494588
494774
494964
495154
495336
495518
495702
495888
496066
496242
496424
496608
496788
496964
497142
497324
497508
497692
497874
498050
498226
498404
498584
498760
498932
499110
499296
499514
499756
499942
500126
500308
500490
500672
500848
501034
501210
501420
501602
501784
501966
502150
502334
502514
502696
502880
503068
503254
503438
503622
503808
503994
504180
504364
504548
504732
504914
505094
505276
505460
505652
505866
506080
506270
506454
506642
506828
507004
507184
507368
507552
507736
507916
508096
508278
508460
508636
508814
508990
509170
509350
509522
509702
509880
510060
510240
510414
510590
510768
510950
511130
511310
511488
511670
511854
512042
512226
512406
512584
512768
512952
513142
513324
513504
513702
513914
514164
514352
514540
514726
514912
515092
515272
515466
515700
515914
516092
516276
516460
516646
516828
517000
517190
517374
517558
517740
517922
518110
518298
518494
518678
518846
519054
519240
519418
519592
519774
519952
520132
520308
520480
520658
520838
521020
521202
521380
521560
521744
521928
522110
522288
522468
522652
522838
523020
523200
523378
523562
523738
523914
524084
524262
524442
524622
524812
524990
525170
525352
525536
525720
525896
526076
526262
526446
526634
526818
526996
527176
527356
527540
527716
527898
528086
528278
528468
528654
528834
529020
529204
529386
529564
529744
529924
530102
530280
530458
530640
530822
531006
531182
531358
531536
531712
531890
532064
532240
532416
532594
532738
532950
533128
533306
533490
533672
533858
534038
534220
534402
534592
534780
534962
535142
535324
535510
535688
535870
536056
536204
536434
536618
536808
536996
537186
537370
537552
537738
537930
538114
538294
538476
538684
538954
539140
539322
539500
539678
539858
540036
540206
540384
540564
540762
540962
541150
541340
541528
541706
541882
542064
542246
542428
542610
542786
542968
543148
543332
543514
543690
543868
544050
544236
544416
544596
544776
544956
545140
545322
545502
545682
545866
546050
546230
546408
546590
546772
546954
547132
547312
547494
547674
547856
548036
548204
548398
548584
548770
548946
549126
549310
549450
549684
549864
550046
550222
550394
550566
550738
550914
551094
551234
551468
551692
551832
552092
552290
552472
552652
552834
553022
553234
553410
553656
553842
554028
554210
554390
554568
554754
554940
555130
555312
555492
555676
555862
556046
556220
556398
556578
556760
556942
557122
557302
557484
557674
557856
558040
558224
558408
558590
558774
558952
559130
559314
559498
559654
559860
560038
560224
560372
560588
560766
560948
561128
561308
561490
561672
561850
562036
562220
562402
562584
562768
562956
563144
563328
563504
563688
563870
564052
564232
564412
564592
564774
564952
565130
565306
565484
565664
565844
566024
566202
566384
566566
566748
566926
567106
567286
567470
567652
567830
568012
568196
568386
568574
568758
568938
569122
569308
569494
569674
569856
570042
570226
570408
570590
570772
570956
571142
571324
571502
571684
571864
572046
572228
572404
572584
572764
572944
573124
573300
573476
573656
573838
574016
574198
574380
574566
574756
574938
575118
575304
575488
575668
575844
576026
576208
576388
576570
576748
576928
577112
577294
577480
577658
577840
578026
578214
578402
578588
578772
578962
579150
579334
579516
579700
579886
580070
580254
580434
580616
580800
580980
581162
581340
581526
581706
581884
582056
582230
582404
582580
582756
582932
583112
583294
583482
583664
583846
584032
584218
584398
584578
584762
584946
585136
585316
585500
585682
585866
586048
586230
586414
586602
586786
586968
587146
587330
587512
587694
587876
588048
588230
588416
588596
588776
588950
589128
589308
589488
589670
589848
590026
590210
590396
590576
590756
590936
591118
591300
591478
591656
591840
592026
592208
592390
592564
592744
592924
593104
593282
593458
593640
593826
594010
594192
594370
594548
594730
594908
595086
595262
595444
595628
595810
595998
596180
596366
596554
596742
596882
597104
597280
597462
597640
597818
597992
598170
598350
598530
598712
598888
599064
599244
599428
599612
599794
599972
600154
600338
600520
600700
600876
601058
601242
601424
601604
601780
601962
602142
602320
602494
602674
602852
603030
603206
603382
603560
603742
603928
604124
604294
604512
604706
604872
605058
605236
605418
605594
605772
605950
606130
606310
606488
606668
606850
607034
607216
607392
607570
607754
607936
608136
608350
608524
608760
608956
609138
609320
609506
609690
609880
610076
610264
610458
610644
610822
611000
611180
611360
611538
611718
611898
612080
612272
612454
612638
612818
612998
613180
613356
613536
613728
613966
614232
614430
614622
614838
615070
615248
615428
615602
615782
615966
616150
616328
616504
616674
616924
617164
617348
617528
617706
617882
618058
618236
618434
618742
618936
619118
619250
619490
619694
619968
620164
620370
620586
620774
620954
621102
621316
621496
621672
621852
622032
622212
622392
622568
622752
622940
623120
623304
623474
623668
623854
624034
624210
624388
624566
624746
624926
625104
625282
625462
625646
625826
626000
626174
626350
626522
626696
626868
627042
627220
627396
627580
627762
627940
628120
628302
628482
628664
628842
629020
629198
629376
629554
629728
629908
630090
630272
630454
630634
630814
630998
631180
631360
631538
631716
631900
632082
632260
632436
632616
632798
632980
633160
633338
633522
633706
633886
634064
634242
634420
634596
634776
634948
635126
635306
635488
635664
635840
636020
636198
636376
636548
636726
636904
637082
637262
637440
637616
637796
637956
638160
638340
638518
638696
638878
639062
639234
639406
639584
639762
639940
640118
640294
640470
640650
640834
641014
641190
641368
641546
641726
641902
642080
642266
642450
642630
642806
642986
643170
643352
643532
643710
643886
644062
644238
644416
644586
644764
644940
645116
645288
645462
645642
645828
646010
646188
646362
646534
646708
646882
647058
647238
647414
647582
647762
647942
648120
648298
648474
648640
648806
648968
649132
649294
649462
649632
649800
649962
650124
650282
650440
650598
650756
650910
651068
651226
651386
651548
651714
651880
652046
652210
652376
652544
652714
652888
653064
653240
653422
653598
653774
653950
654130
654310
654490
654668
654846
655022
655194
655366
655540
655710
655886
656074
656262
656440
656622
656766
656982
657160
657340
657520
657698
657874
658048
658230
658404
658582
658752
658926
659102
659274
659450
659622
659798
659974
660146
660316
660492
660680
660872
661012
661226
661404
661580
661756
661928
662102
662278
662452
662628
662802
662962
663154
663328
663504
663678
663852
664038
664266
664504
664698
664872
665040
665208
665378
665556
665746
665936
666118
666298
666482
666666
666848
667024
667204
667382
667560
667732
667906
668082
668258
668430
668606
668784
668962
669138
669312
669472
669664
669840
670012
670186
670364
670548
670748
670948
671140
671322
671504
671676
671854
672030
672206
672380
672554
672732
672914
673098
673278
673458
673640
673816
673990
674164
674342
674518
674696
674864
675038
675212
675384
675550
675720
675896
676084
676272
676454
676630
676816
676998
677182
677358
677534
677706
677874
678044
678218
678394
678570
678746
678930
679120
679308
679488
679672
679860
680046
680228
680406
680588
680782
680970
681188
681394
681582
681760
681934
682112
682292
682472
682650
682830
683012
683194
683374
683552
683736
683918
684098
684276
684452
684632
684814
684996
685170
685346
685528
685708
685886
686060
686238
686424
686608
686790
686966
687146
687326
687502
687674
687848
688026
688202
688380
688550
688726
688902
689080
689256
689432
689612
689798
689978
690160
690338
690518
690698
690876
691052
691226
691402
691572
691742
691912
692086
692264
692440
692614
692796
692976
693158
693336
693516
693698
693878
694054
694230
694410
694590
694770
694946
695124
695304
695486
695662
695838
696020
696204
696386
696564
696744
696926
697106
697282
697458
697638
697816
697994
698168
698348
698532
698718
698904
699082
699262
699444
699628
699808
699988
700170
700360
700538
700724
700910
701094
701272
701464
701652
701832
702004
702176
702350
702526
702702
702880
703054
703194
703412
703592
703768
703946
704130
704314
704494
704674
704864
705056
705232
705434
705624
705816
706006
706192
706376
706566
706762
706950
707134
707330
707538
707732
707912
708096
708280
708460
708636
708812
708992
709170
709344
709520
709700
709882
710062
710240
710418
710598
710782
710966
711144
711324
711502
711682
711862
712038
712220
712402
712580
712756
712932
713110
713286
713464
713638
713814
713994
714174
714350
714522
714702
714880
715058
715232
715406
715582
715758
715932
716108
716288
716468
716648
716822
717004
717188
717370
717550
717730
717912
718096
718276
718452
718628
718812
718998
719180
719360
719546
719732
719918
720096
720276
720460
720644
720828
721006
721186
721374
721556
721736
721920
722102
722278
722456
722624
722792
722962
723130
723298
723470
723636
723808
723982
724156
724328
724494
724668
724840
725014
725188
725364
725544
725722
725900
726074
726252
726430
726606
726784
726958
727138
727316
727500
727674
727856
728036
728220
728396
728572
728750
728934
729114
729294
729472
729654
729844
730056
730264
730424
730638
730820
730996
731174
731352
731532
731712
731886
732072
732254
732436
732620
732802
732988
733170
733356
733534
733718
733908
734094
734278
734452
734636
734814
734994
735168
735344
735520
735698
735878
736054
736232
736412
736592
736768
736942
737118
737296
737472
737644
737818
737994
738168
738344
738520
738694
738872
739006
739242
739426
739606
739790
739982
740180
740386
740588
740782
740970
741146
741326
741510
741690
741868
742040
742216
742392
742568
742740
742912
743088
743264
743440
743614
743788
743966
744144
744322
744498
744672
744846
745024
745200
745376
745552
745732
745914
746090
746266
746442
746626
746804
746982
747162
747316
747534
747722
747904
748086
748266
748454
748634
748814
749002
749192
749380
749562
749740
749928
750116
750304
750488
750670
750858
751046
751238
751422
751610
751800
751980
752160
752344
752528
752706
752890
753076
753264
753448
753630
753818
754008
754148
754376
754562
754750
754934
755116
755294
755474
755654
755836
756012
756190
756374
756556
756730
756906
757082
757264
757444
757620
757798
757978
758156
758332
758502
758678
758852
759026
759194
759364
759536
759714
759892
760068
760242
760416
760562
760770
760946
761122
761300
761478
761654
761832
762014
762198
762382
762564
762744
762924
763104
763282
763462
763642
763822
764006
764186
764366
764546
764732
764912
765094
765270
765452
765632
765812
765988
766164
766344
766524
766702
766880
767058
767238
767418
767592
767764
767934
768108
768282
768456
768628
768806
768986
769168
769348
769524
769700
769880
770060
770242
770420
770598
770784
770966
771150
771330
771516
771698
771880
772060
772238
772416
772596
772774
772946
773124
773304
773482
773660
773836
774016
774196
774374
774542
774720
774890
775060
775236
775412
775586
775764
775938
776114
776294
776470
776648
776824
777004
777184
777366
777546
777722
777904
778086
778270
778448
778626
778808
778992
779136
779352
779534
779718
779914
780120
780312
780496
780680
780866
781040
781222
781404
781590
781776
781956
782134
782312
782490
782664
782840
783018
783198
783376
783556
783738
783918
784100
784276
784456
784634
784818
784994
785174
785356
785536
785720
785866
786072
786250
786428
786606
786782
786958
787134
787316
787496
787674
787858
788060
788314
788496
788668
788846
789020
789194
789366
789538
789724
789928
790150
790332
790512
790690
790872
791046
791222
791402
791584
791770
791968
792140
792440
792654
792846
793068
793330
793538
793734
793972
794158
794370
794542
794718
794892
795068
795238
795408
795582
795760
795938
796118
796298
796502
796690
796848
797040
797218
797378
797576
797752
797920
798096
798270
798444
798616
798790
798970
799148
799324
799498
799674
799850
800024
800206
800378
800548
800728
800904
801060
801250
801426
801602
801776
801928
802126
802304
802480
802660
802836
803012
803194
803372
803548
803724
803898
804068
804238
804410
804582
804758
804896
805102
805282
805464
805648
805842
806060
806260
806440
806612
806790
806964
807140
807310
807480
807654
807826
808000
808172
808344
808522
808704
808890
809068
809246
809430
809614
809798
809968
810144
810324
810502
810682
810856
811030
811208
811386
811564
811732
811900
812088
812268
812444
812616
812792
812968
813146
813322
813496
813676
813854
814034
814210
814386
814564
814744
814924
815100
815280
815458
815636
815806
815980
816158
816338
816518
816694
816876
817058
817238
817414
817590
817770
817948
818124
818292
818466
818640
818818
818994
819168
819326
819532
819718
819880
820076
820260
820428
820620
820798
820974
821156
821334
821492
821684
821860
822034
822214
822388
822564
822742
822920
823076
823272
823450
823614
823810
823994
824170
824356
824540
824712
824894
825070
825250
825426
825604
825778
825952
826132
826312
826490
826670
826850
827036
827220
827400
827576
827756
827932
828108
828278
828452
828628
828804
828982
829158
829338
829520
829698
829874
830050
830228
830402
830580
830752
830926
831100
831274
831454
831628
831804
831984
832166
832344
832520
832706
832888
833070
833246
833424
833604
833786
833962
834142
834324
834512
834692
834868
835050
835230
835412
835584
835760
835938
836118
836290
836464
836636
836812
836986
837162
837334
837508
837684
837864
838038
838212
838388
838564
838742
838918
839092
839272
839452
839638
839816
839994
840176
840358
840542
840716
840892
841070
841252
841430
841610
841788
841970
842146
842320
842498
842674
842852
843028
843204
843386
843554
843746
843922
844098
844284
844470
844654
844834
845016
845214
845418
845656
845866
846058
846244
846426
846608
846790
846972
847180
847416
847612
847808
847990
848174
848390
848588
848784
848960
849132
849306
849480
849654
849828
850004
850180
850354
850526
850704
850880
851060
851232
851406
851586
851770
851956
852140
852320
852502
852680
852856
853034
853212
853390
853568
853748
853932
854118
854302
854474
854654
854828
855008
855190
855364
855544
855720
855904
856082
856258
856440
856620
856796
856966
857142
857316
857486
857658
857832
858006
858182
858356
858526
858700
858874
859048
859218
859392
859566
859742
859916
860088
860264
860440
860616
860790
860964
861146
861324
861504
861678
861854
862030
862202
862378
862550
862722
862896
863070
863242
863412
863586
863758
863932
864102
864278
864460
864640
864820
864994
865174
865352
865530
865704
865876
866052
866228
866404
866576
866718
866918
867092
867260
867428
867602
867778
867952
868126
868298
868476
868656
868832
869004
869178
869352
869536
869722
869898
870086
870268
870454
870636
870814
871000
871184
871368
871542
871704
871904
872080
872254
872424
872596
872770
872946
873118
873296
873476
873654
873830
874002
874176
874348
874524
874698
874870
875042
875214
875382
875546
875714
875884
876058
876230
876402
876588
876772
876946
877118
877286
877468
877642
877802
877982
878160
878312
878514
878690
878858
879094
879292
879470
879646
879826
880004
880182
880356
880538
880722
880906
881084
881266
881458
881644
881818
881986
882150
882320
882490
882664
882852
882992
883250
883478
883660
883830
884000
884170
884342
884516
884676
884892
885088
885276
885460
885638
885818
885994
886170
886356
886532
886718
886890
887072
887250
887432
887606
887782
887966
888140
888320
888496
888676
888856
889036
889210
889382
889556
889734
889912
890084
890254
890438
890614
890792
890968
891146
891334
891522
891706
891882
892060
892240
892424
892610
892792
892986
893172
893352
893530
893706
893890
894070
894248
894424
894614
894812
895014
895430
895628
895816
895996
896178
896376
896582
896728
896992
897186
897370
897542
897806
897992
898206
898390
898554
898748
898930
899084
899352
899546
899740
899900
900104
900296
900446
900650
900830
901006
901190
901366
901528
901726
901908
902072
902264
902438
902618
902794
902968
903140
903314
903494
903674
903844
904016
904158
904364
904546
904716
904918
905096
905274
905446
905618
905794
905966
906138
906312
906480
906660
906842
907020
907196
907370
907552
907734
907914
908094
908278
908460
908648
908828
909000
909184
909362
909542
909716
909894
910080
910262
910436
910610
910790
910974
911150
911324
911506
911686
911866
912040
912226
912418
912600
912778
912968
913156
913340
913520
913696
913878
914060
914242
914424
914598
914784
914970
915154
915342
915526
915706
915892
916070
916242
916422
916600
916778
916952
917128
917312
917494
917670
917846
918030
918212
918398
918574
918752
918938
919120
919308
919492
919678
919870
920054
920234
920408
920590
920768
920942
921110
921290
921464
921642
921814
921984
922164
922342
922522
922698
922874
923056
923214
923416
923594
923770
923946
924128
924306
924480
924668
924814
925036
925224
925406
925604
925790
925970
926144
926330
926512
926690
926860
927036
927208
927384
927554
927726
927906
928082
928250
928432
928606
928760
928964
929146
929322
929512
929698
929884
930064
930240
930428
930616
930800
930980
931162
931346
931530
931708
931884
932060
932238
932418
932594
932772
932952
933126
933300
933458
933642
933816
933992
934166
934342
934508
934720
934900
935084
935268
935450
935638
935820
936000
936182
936314
936538
936710
936882
937064
937238
937414
937580
937752
937922
938090
938262
938426
938596
938770
938944
939114
939296
939514
939708
939904
940116
940314
940504
940686
940856
941036
941222
941404
941588
941804
942078
942268
942454
942650
942830
943012
943188
943360
943542
943682
943902
944088
944266
944458
944644
944820
944992
945176
945360
945542
945720
945902
946088
946272
946452
946628
946814
946998
947182
947360
947536
947716
947894
948076
948256
948430
948608
948790
948972
949148
949316
949490
949658
949830
949998
950174
950356
950532
950712
950894
951080
951268
951450
951634
951814
952008
952202
952390
952572
952752
952936
953114
953286
953460
953640
953818
953996
954166
954344
954526
954704
954886
955060
955234
955410
955584
955758
955924
956098
956274
956448
956622
956794
956972
957156
957342
957526
957706
957892
958078
958262
958442
958616
958796
958976
959152
959324
959494
959670
959844
960020
960194
960374
960558
960736
960914
961094
961278
961464
961640
961822
962008
962188
962370
962548
962726
962912
963098
963286
963468
963654
963840
964030
964214
964394
964578
964764
964946
965124
965302
965492
965684
965870
966050
966234
966418
966602
966780
966958
967136
967316
967488
967662
967840
968018
968198
968380
968554
968736
968918
969104
969270
969462
969642
969818
969990
970160
970334
970510
970686
970864
971036
971216
971394
971574
971752
971932
972112
972298
972480
972662
972848
973036
973226
973414
973596
973786
973976
974160
974342
974526
974706
974886
975064
975240
975418
975598
975778
975954
976130
976312
976490
976668
976840
977016
977192
977372
977550
977726
977908
978098
978288
978476
978654
978836
979018
979202
979380
979558
979742
979926
980104
980284
980460
980654
980840
981024
981206
981392
981576
981760
981940
982122
982304
982488
982666
982840
983018
983196
983372
983544
983720
983902
984080
984262
984442
984620
984794
984968
985140
985314
985490
985662
985834
986008
986182
986356
986524
986700
986884
987070
987250
987432
987616
987814
988012
988198
988384
988570
988720
988952
989142
989328
989530
989716
989904
990090
990274
990464
990646
990824
991002
991188
991374
991564
991748
991930
992114
992296
992472
992656
992838
993030
993224
993412
993596
993778
993964
994150
994330
994510
994694
994874
995056
995236
995418
995606
995790
995968
996150
996330
996510
996690
996862
997036
997214
997390
997566
997744
997920
998096
998274
998450
998620
998798
998976
999156
999340
999518
999698
999878
1000058
1000238
1000416
1000596
1000772
1000956
1001136
1001314
1001458
1001674
1001858
1002036
1002216
1002400
1002586
1002768
1002948
1003122
1003302
1003492
1003680
1003858
1004034
1004212
1004394
1004574
1004752
1004928
1005106
1005284
1005460
1005628
1005806
1005988
1006174
1006360
1006540
1006724
1006908
1007088
1007240
1007436
1007616
1007796
1007976
1008154
1008336
1008520
1008708
1008890
1009068
1009204
1009428
1009608
1009786
1009960
1010142
1010326
1010508
1010690
1010870
1011054
1011240
1011428
1011614
1011800
1011994
1012190
1012380
1012562
1012750
1012936
1013126
1013306
1013478
1013668
1013852
1014034
1014214
1014398
1014582
1014766
1014946
1015124
1015308
1015496
1015682
1015860
1016040
1016226
1016408
1016592
1016772
1016950
1017136
1017320
1017504
1017686
1017866
1018050
1018234
1018414
1018592
1018772
1018954
1019136
1019322
1019498
1019680
1019864
1020050
1020228
1020410
1020592
1020774
1020954
1021134
1021318
1021506
1021692
1021874
1022052
1022240
1022430
1022618
1022802
1022992
1023144
1023376
1023564
1023752
1023942
1024128
1024310
1024490
1024670
1024860
1025050
1025234
1025416
1025600
1025784
1025932
1026144
1026324
1026506
1026688
1026866
1027042
1027226
1027426
1027648
1027858
1028050
1028240
1028420
1028598
1028778
1028958
1029134
1029312
1029488
1029662
1029854
1030040
1030224
1030410
1030600
1030784
1030968
1031150
1031334
1031522
1031710
1031894
1032078
1032264
1032452
1032640
1032822
1032992
1033198
1033382
1033566
1033748
1033932
1034116
1034300
1034480
1034670
1034864
1035052
1035238
1035418
1035604
1035786
1035966
1036142
1036322
1036502
1036680
1036860
1037036
1037216
1037402
1037588
1037778
1037962
1038150
1038342
1038532
1038720
1038904
1039090
1039276
1039456
1039636
1039818
1040000
1040190
1040374
1040558
1040748
1040940
1041130
1041320
1041512
1041704
1041888
1042072
1042252
1042436
1042620
1042804
1042982
1043166
1043350
1043536
1043718
1043902
1044090
1044282
1044470
1044658
1044840
1045028
1045214
1045402
1045590
1045776
1045968
1046158
1046348
1046522
1046716
1046904
1047090
1047274
1047454
1047640
1047830
1048014
1048196
1048380
1048566
1048752
1048932
1049114
1049300
1049486
1049674
1049856
1050046
1050236
1050426
1050612
1050794
1050980
1051162
1051344
1051522
1051700
1051882
1052064
1052248
1052430
1052614
1052798
1052984
1053166
1053346
1053528
1053708
1053888
1054070
1054258
1054444
1054630
1054812
1055004
1055190
1055380
1055562
1055744
1055926
1056110
1056294
1056476
1056658
1056842
1057024
1057206
1057386
1057564
1057746
1057926
1058110
1058294
1058474
1058660
1058848
1059034
1059216
1059396
1059580
1059758
1059942
1060122
1060302
1060486
1060672
1060854
1061032
1061216
1061400
1061586
1061770
1061956
1062146
1062336
1062524
1062710
1062896
1063086
1063276
1063468
1063656
1063792
1064036
1064228
1064418
1064602
1064790
1064982
1065174
1065360
1065548
1065742
1065932
1066120
1066308
1066496
1066680
1066860
1067042
1067226
1067410
1067602
1067788
1067972
1068162
1068346
1068532
1068718
1068902
1069092
1069280
1069462
1069646
1069834
1070024
1070216
1070384
1070596
1070736
1070988
1071178
1071364
1071548
1071732
1071908
1072082
1072260
1072438
1072616
1072794
1072972
1073154
1073358
1073606
1073812
1073998
1074186
1074366
1074548
1074724
1074902
1075038
1075260
1075438
1075616
1075802
1075998
1076138
1076432
1076664
1076852
1077038
1077218
1077404
1077650
1077924
1078130
1078352
1078520
1078794
1078984
1079176
1079374
1079562
1079746
1079928
1080118
1080306
1080450
1080672
1080852
1081036
1081218
1081398
1081572
1081750
1081930
1082110
1082288
1082468
1082654
1082840
1083028
1083212
1083392
1083576
1083762
1083946
1084122
1084304
1084490
1084674
1084858
1085040
1085226
1085414
1085600
1085782
1085966
1086154
1086340
1086528
1086712
1086898
1087084
1087268
1087450
1087632
1087818
1088006
1088192
1088376
1088564
1088752
1088936
1089120
1089306
1089494
1089680
1089862
1090042
1090224
1090382
1090598
1090786
1090968
1091154
1091300
1091532
1091718
1091912
1092110
1092292
1092478
1092662
1092848
1093038
1093224
1093410
1093594
1093778
1093966
1094156
1094344
1094528
1094714
1094898
1095082
1095264
1095446
1095628
1095814
1095998
1096178
1096358
1096544
1096730
1096912
1097094
1097278
1097464
1097606
1097828
1098006
1098190
1098376
1098560
1098740
1098922
1099106
1099292
1099476
1099660
1099846
1100028
1100210
1100390
1100572
1100756
1100940
1101124
1101304
1101490
1101680
1101864
1102046
1102224
1102406
1102592
1102776
1102956
1103138
1103324
1103510
1103694
1103880
1104068
1104260
1104446
1104630
1104814
1105002
1105164
1105374
1105554
1105738
1105928
1106118
1106296
1106472
1106652
1106830
1107008
1107188
1107372
1107562
1107750
1107942
1108130
1108324
1108518
1108706
1108892
1109074
1109260
1109450
1109642
1109830
1110016
1110206
1110402
1110594
1110788
1110980
1111174
1111362
1111548
1111734
1111918
1112104
1112292
1112478
1112660
1112844
1113028
1113210
1113392
1113570
1113750
1113932
1114100
1114288
1114466
1114644
1114826
1115006
1115182
1115368
1115554
1115738
1115924
1116104
1116272
1116472
1116656
1116838
1117022
1117212
1117398
1117582
1117766
1117952
1118138
1118324
1118506
1118692
1118880
1119070
1119256
1119438
1119626
1119814
1120004
1120190
1120376
1120564
1120748
1120932
1121112
1121292
1121478
1121662
1121848
1122030
1122214
1122400
1122584
1122768
1122950
1123130
1123316
1123502
1123688
1123868
1124054
1124242
1124430
1124620
1124806
1124994
1125184
1125378
1125570
1125758
1125946
1126138
1126326
1126512
1126694
1126880
1127066
1127248
1127428
1127616
1127810
1128004
1128192
1128380
1128572
1128766
1128962
1129150
1129340
1129532
1129722
1129910
1130096
1130290
1130488
1130680
1130868
1131058
1131250
1131434
1131618
1131804
1132000
1132192
1132376
1132558
1132742
1132928
1133114
1133302
1133480
1133662
1133854
1134036
1134232
1134424
1134602
1134776
1134944
1135118
1135288
1135458
1135628
1135794
1135980
1136162
1136346
1136526
1136716
1136902
1137088
1137274
1137460
1137648
1137824
1138018
1138196
1138378
1138560
1138740
1138918
1139098
1139276
1139450
1139622
1139798
1139980
1140158
1140338
1140508
1140680
1140854
1141026
1141198
1141374
1141552
1141732
1141910
1142088
1142270
1142452
1142632
1142810
1142990
1143174
1143360
1143540
1143724
1143908
1144096
1144280
1144464
1144650
1144834
1145014
1145190
1145368
1145546
1145726
1145900
1146078
1146256
1146434
1146612
1146786
1146964
1147100
1147318
1147494
1147670
1147848
1148028
1148204
1148384
1148566
1148748
1148924
1149102
1149284
1149464
1149642
1149818
1149996
1150172
1150350
1150526
1150702
1150880
1151064
1151246
1151428
1151612
1151802
1151988
1152168
1152350
1152534
1152716
1152894
1153070
1153252
1153436
1153616
1153794
1153972
1154154
1154336
1154512
1154690
1154868
1155052
1155232
1155410
1155592
1155774
1155958
1156148
1156328
1156506
1156684
1156862
1157034
1157208
1157382
1157542
1157730
1157902
1158078
1158256
1158434
1158614
1158792
1158976
1159164
1159352
1159532
1159712
1159896
1160080
1160260
1160438
1160622
1160804
1160988
1161166
1161348
1161532
1161712
1161896
1162074
1162254
1162434
1162618
1162802
1162980
1163160
1163340
1163520
1163696
1163874
1164054
1164232
1164408
1164582
1164760
1164938
1165124
1165302
1165482
1165666
1165848
1166026
1166206
1166388
1166570
1166752
1166932
1167114
1167300
1167484
1167664
1167844
1168026
1168210
1168392
1168570
1168752
1168936
1169116
1169296
1169476
1169658
1169838
1170020
1170198
1170380
1170564
1170746
1170924
1171106
1171288
1171468
1171646
1171824
1172002
1172180
1172358
1172538
1172718
1172900
1173084
1173264
1173442
1173626
1173808
1173990
1174168
1174346
1174528
1174708
1174886
1175062
1175248
1175430
1175610
1175786
1175966
1176150
1176334
1176518
1176702
1176888
1177078
1177264
1177458
1177648
1177832
1178016
1178200
1178384
1178570
1178756
1178938
1179118
1179296
1179478
1179638
1179830
1180006
1180184
1180364
1180552
1180744
1180930
1181116
1181302
1181482
1181658
1181834
1182014
1182196
1182376
1182556
1182738
1182920
1183104
1183288
1183468
1183646
1183824
1184002
1184180
1184356
1184534
1184712
1184890
1185068
1185244
1185422
1185598
1185772
1185948
1186124
1186304
1186480
1186656
1186834
1187014
1187190
1187364
1187538
1187710
1187880
1188052
1188228
1188400
1188570
1188744
1188918
1189090
1189264
1189438
1189614
1189790
1189966
1190140
1190316
1190492
1190670
1190848
1191024
1191202
1191382
1191560
1191740
1191920
1192098
1192280
1192462
1192644
1192828
1193012
1193200
1193380
1193560
1193740
1193920
1194100
1194276
1194452
1194628
1194804
1194980
1195128
1195326
1195502
1195678
1195852
1196026
1196200
1196376
1196554
1196730
1196906
1197084
1197244
1197440
1197618
1197796
1197976
1198156
1198336
1198512
1198694
1198868
1199044
1199224
1199400
1199576
1199756
1199940
1200120
1200300
1200480
1200620
1200838
1201018
1201198
1201376
1201556
1201732
1201908
1202084
1202258
1202434
1202606
1202780
1202958
1203136
1203324
1203508
1203692
1203874
1204054
1204228
1204402
1204576
1204752
1204926
1205100
1205276
1205452
1205630
1205806
1205978
1206150
1206324
1206498
1206672
1206846
1207020
1207194
1207368
1207540
1207712
1207884
1208058
1208232
1208404
1208564
1208746
1208918
1209092
1209264
1209434
1209606
1209778
1209948
1210118
1210288
1210458
1210632
1210804
1210976
1211148
1211320
1211494
1211666
1211836
1212004
1212176
1212346
1212514
1212680
1212850
1213020
1213190
1213364
1213534
1213710
1213886
1214066
1214242
1214418
1214598
1214776
1214954
1215130
1215308
1215488
1215666
1215842
1216014
1216190
1216364
1216538
1216710
1216884
1217060
1217238
1217418
1217596
1217774
1217956
1218140
1218316
1218494
1218672
1218852
1219030
1219206
1219382
1219560
1219738
1219914
1220086
1220262
1220438
1220614
1220786
1220960
1221134
1221308
1221484
1221652
1221824
1221996
1222166
1222336
1222506
1222678
1222850
1223024
1223196
1223368
1223542
1223716
1223888
1224058
1224228
1224402
1224574
1224744
1224914
1225086
1225260
1225436
1225608
1225780
1225956
1226134
1226312
1226482
1226656
1226828
1227002
1227174
1227344
1227516
1227688
1227864
1228036
1228210
1228386
1228562
1228734
1228912
1229088
1229268
1229444
1229620
1229796
1229970
1230144
1230324
1230498
1230676
1230850
1231026
1231204
1231382
1231560
1231736
1231914
1232094
1232270
1232446
1232620
1232794
1232970
1233144
1233318
1233490
1233664
1233840
1234014
1234188
1234364
1234540
1234716
1234890
1235066
1235248
1235424
1235598
1235778
1235956
1236132
1236306
1236444
1236658
1236838
1236996
1237186
1237366
1237518
1237716
1237892
1238050
1238246
1238422
1238598
1238776
1238954
1239126
1239302
1239480
1239636
1239832
1240008
1240164
1240364
1240542
1240688
1240890
1241064
1241218
1241410
1241582
1241736
1241926
1242102
1242256
1242452
1242626
1242790
1242968
1243142
1243302
1243490
1243664
1243826
1244022
1244202
1244368
1244560
1244738
1244920
1245104
1245286
1245454
1245642
1245822
1246000
1246176
1246358
1246536
1246714
1246870
1247066
1247242
1247420
1247596
1247740
1247946
1248124
1248298
1248472
1248646
1248818
1248994
1249168
1249344
1249524
1249704
1249884
1250058
1250236
1250416
1250596
1250772
1250956
1251140
1251318
1251496
1251680
1251860
1252040
1252216
1252394
1252574
1252750
1252926
1253102
1253282
1253458
1253636
1253810
1253986
1254170
1254348
1254530
1254706
1254886
1255066
1255248
1255424
1255602
1255782
1255960
1256138
1256314
1256490
1256670
1256846
1257018
1257194
1257374
1257552
1257724
1257898
1258064
1258250
1258424
1258598
1258776
1258954
1259130
1259302
1259476
1259652
1259832
1260008
1260182
1260358
1260538
1260712
1260888
1261060
1261232
1261406
1261578
1261746
1261916
1262086
1262258
1262430
1262600
1262770
1262942
1263086
1263294
1263472
1263642
1263810
1263978
1264142
1264304
1264468
1264634
1264804
1264976
1265146
1265314
1265478
1265652
1265822
1265996
1266166
1266336
1266510
1266684
1266858
1267030
1267202
1267344
1267552
1267732
1267888
1268080
1268254
1268424
1268604
1268776
1268946
1269120
1269292
1269450
1269644
1269820
1269998
1270178
1270358
1270534
1270710
1270886
1271064
1271238
1271412
1271586
1271762
1271940
1272112
1272286
1272460
1272636
1272776
1272982
1273158
1273328
1273504
1273678
1273856
1274028
1274202
1274386
1274570
1274756
1274938
1275120
1275302
1275482
1275658
1275836
1276016
1276196
1276368
1276540
1276716
1276892
1277064
1277210
1277410
1277590
1277764
1277940
1278110
1278286
1278462
1278642
1278820
1278996
1279146
1279354
1279536
1279712
1279886
1280060
1280240
1280418
1280600
1280772
1280944
1281122
1281298
1281474
1281654
1281830
1282006
1282184
1282364
1282538
1282710
1282888
1283064
1283240
1283414
1283586
1283764
1283944
1284118
1284296
1284470
1284650
1284826
1285000
1285180
1285360
1285536
1285712
1285894
1286072
1286252
1286426
1286600
1286776
1286954
1287132
1287308
1287482
1287658
1287836
1288014
1288190
1288366
1288540
1288720
1288900
1289074
1289248
1289430
1289606
1289778
1289950
1290126
1290298
1290470
1290640
1290818
1290998
1291180
1291360
1291540
1291722
1291904
1292082
1292262
1292444
1292626
1292802
1292976
1293158
1293336
1293516
1293688
1293866
1294044
1294222
1294400
1294574
1294756
1294934
1295120
1295294
1295470
1295618
1295832
1296014
1296174
1296362
1296540
1296704
1296892
1297064
1297226
1297416
1297596
1297758
1297950
1298124
1298300
1298486
1298666
1298816
1299018
1299204
1299384
1299572
1299756
1299938
1300122
1300306
1300484
1300664
1300846
1301028
1301206
1301382
1301568
1301752
1301938
1302120
1302308
1302494
1302682
1302864
1303046
1303236
1303422
1303602
1303782
1303964
1304152
1304334
1304514
1304694
1304876
1305058
1305230
1305404
1305582
1305756
1305930
1306104
1306276
1306450
1306626
1306802
1306974
1307142
1307314
1307486
1307658
1307828
1307996
1308170
1308344
1308522
1308698
1308870
1309050
1309236
1309418
1309608
1309788
1309970
1310156
1310342
1310520
1310698
1310878
1311060
1311236
1311420
1311596
1311774
1311948
1312124
1312302
1312482
1312654
1312826
1313002
1313176
1313348
1313518
1313692
1313868
1314042
1314220
1314392
1314568
1314748
1314926
1315100
1315274
1315456
1315634
1315812
1315988
1316160
1316340
1316520
1316694
1316868
1317046
1317222
1317402
1317580
1317758
1317946
1318132
1318308
1318482
1318662
1318844
1319022
1319196
1319376
1319558
1319732
1319904
1320086
1320252
1320440
1320614
1320788
1320964
1321142
1321320
1321494
1321670
1321848
1322024
1322164
1322374
1322550
1322720
1322908
1323088
1323246
1323440
1323628
1323774
1324024
1324228
1324428
1324642
1324828
1325014
1325194
1325374
1325554
1325734
1325916
1326102
1326290
1326474
1326660
1326846
1327026
1327206
1327390
1327574
1327760
1327940
1328114
1328296
1328474
1328656
1328834
1329004
1329176
1329320
1329522
1329696
1329864
1330044
1330218
1330378
1330566
1330736
1330914
1331094
1331270
1331422
1331608
1331776
1331936
1332112
1332278
1332432
1332602
1332768
1332922
1333104
1333272
1333428
1333612
1333784
1333942
1334122
1334286
1334452
1334616
1334774
1334930
1335092
1335252
1335414
1335576
1335738
1335904
1336072
1336240
1336412
1336568
1336752
1336926
1337092
1337266
1337420
1337610
1337782
1337946
1338118
1338288
1338460
1338624
1338798
1338958
1339146
1339320
1339488
1339668
1339844
1340014
1340198
1340368
1340542
1340716
1340876
1341060
1341238
1341416
1341600
1341778
1341950
1342126
1342298
1342474
1342648
1342820
1342996
1343172
1343348
1343520
1343696
1343868
1344036
1344204
1344374
1344544
1344718
1344890
1345064
1345242
1345426
1345604
1345784
1345960
1346132
1346310
1346480
1346646
1346820
1346988
1347152
1347314
1347478
1347642
1347810
1347978
1348144
1348318
1348492
1348666
1348836
1349000
1349168
1349334
1349498
1349662
1349820
1349986
1350148
1350314
1350478
1350646
1350820
1350998
1351178
1351358
1351532
1351710
1351884
1352052
1352210
1352376
1352542
1352712
1352884
1353054
1353226
1353404
1353582
1353762
1353936
1354114
1354292
1354472
1354646
1354822
1355000
1355178
1355358
1355534
1355710
1355890
1356070
1356250
1356424
1356594
1356770
1356940
1357110
1357278
1357444
1357612
1357778
1357946
1358112
1358280
1358420
1358606
1358770
1358930
1359096
1359262
1359426
1359596
1359764
1359938
1360110
1360286
1360456
1360624
1360796
1360966
1361136
1361304
1361458
1361640
1361812
1361976
1362156
1362326
1362502
1362674
1362840
1363002
1363164
1363332
1363498
1363660
1363822
1363986
1364148
1364316
1364480
1364646
1364816
1364984
1365150
1365314
1365474
1365636
1365794
1365956
1366114
1366276
1366436
1366596
1366758
1366912
1367088
1367262
1367432
1367600
1367766
1367944
1368122
1368300
1368480
1368658
1368846
1369032
1369214
1369386
1369570
1369758
1369944
1370136
1370330
1370512
1370700
1370872
1371036
1371202
1371370
1371544
1371720
1371892
1372066
1372244
1372416
1372584
1372752
1372926
1373092
1373268
1373442
1373610
1373798
1373988
1374170
1374342
1374518
1374696
1374866
1375036
1375204
1375368
1375540
1375708
1375880
1376048
1376218
1376396
1376574
1376746
1376916
1377092
1377264
1377438
1377604
1377772
1377948
1378120
1378302
1378484
1378662
1378842
1379018
1379192
1379364
1379542
1379716
1379894
1380078
1380262
1380416
1380620
1380810
1380964
1381168
1381344
1381508
1381690
1381876
1382058
1382230
1382406
1382566
1382784
1382976
1383154
1383326
1383470
1383692
1383888
1384080
1384294
1384492
1384688
1384884
1385036
1385318
1385520
1385720
1385908
1386094
1386278
1386468
1386698
1386914
1387116
1387320
1387522
1387706
1387882
1388052
1388216
1388390
1388560
1388732
1388904
1389074
1389258
1389420
1389606
1389780
1389950
1390126
1390294
1390458
1390620
1390788
1390954
1391124
1391296
1391468
1391644
1391820
1391990
1392156
1392324
1392492
1392660
1392826
1392964
1393162
1393334
1393502
1393652
1393838
1394014
1394186
1394354
1394520
1394684
1394850
1395018
1395184
1395348
1395508
1395672
1395836
1396000
1396164
1396336
1396508
1396680
1396848
1397012
1397178
1397340
1397502
1397662
1397816
1397974
1398124
1398278
1398428
1398576
1398728
1398876
1399024
1399172
1399320
1399456
1399610
1399758
1399904
1400050
1400196
1400342
1400486
1400632
1400778
1400920
1401062
1401206
1401346
1401490
1401632
1401776
1401916
1402056
1402198
1402342
1402482
1402624
1402768
1402912
1403056
1403200
1403344
1403490
1403636
1403782
1403928
1404072
1404220
1404366
1404510
1404660
1404808
1404956
1405104
1405252
1405396
1405542
1405690
1405836
1405980
1406130
1406278
1406428
1406578
1406726
1406876
1407028
1407182
1407334
1407488
1407648
1407814
1407982
1408148
1408310
1408476
1408646
1408812
1408982
1409142
1409312
1409482
1409642
1409802
1409964
1410124
1410288
1410448
1410602
1410758
1410918
1411076
1411236
1411400
1411558
1411718
1411876
1412032
1412196
1412354
1412510
1412666
1412816
1412974
1413132
1413290
1413446
1413606
1413772
1413934
1414090
1414246
1414404
1414562
1414712
1414868
1415018
1415166
1415318
1415468
1415618
1415772
1415930
1416090
1416248
1416416
1416570
1416746
1416908
1417070
1417238
1417398
1417558
1417714
1417880
1418042
1418204
1418364
1418534
1418700
1418858
1419010
1419166
1419326
1419460
1419636
1419796
1419954
1420118
1420278
1420436
1420596
1420758
1420916
1421072
1421230
1421388
1421546
1421702
1421860
1422016
1422170
1422324
1422476
1422628
1422782
1422930
1423084
1423238
1423390
1423538
1423692
1423846
1423998
1424150
1424300
1424452
1424604
1424750
1424902
1425052
1425202
1425348
1425498
1425644
1425790
1425938
1426084
1426230
1426378
1426524
1426668
1426814
1426960
1427106
1427252
1427398
1427546
1427694
1427842
1427992
1428142
1428292
1428444
1428594
1428744
1428898
1429050
1429198
1429352
1429504
1429658
1429810
1429960
1430112
1430262
1430412
1430560
1430706
1430856
1431002
1431150
1431298
1431442
1431592
1431740
1431892
1432042
1432198
1432352
1432514
1432668
1432828
1432984
1433138
1433294
1433448
1433604
1433758
1433902
1434066
1434220
1434376
1434532
1434684
1434836
1434990
1435144
1435296
1435446
1435596
1435744
1435892
1436044
1436192
1436340
1436492
1436642
1436788
1436936
1437086
1437234
1437382
1437534
1437688
1437836
1437982
1438132
1438282
1438432
1438578
1438728
1438878
1439028
1439174
1439324
1439474
1439624
1439772
1439922
1440070
1440208
1440362
1440512
1440662
1440814
1440964
1441114
1441262
1441412
1441562
1441714
1441868
1442020
1442172
1442330
1442490
1442646
1442802
1442970
1443136
1443294
1443450
1443616
1443774
1443932
1444088
1444242
1444394
1444544
1444686
1444850
1445002
1445156
1445314
1445466
1445638
1445798
1445962
1446122
1446284
1446442
1446608
1446768
1446928
1447088
1447248
1447410
1447568
1447724
1447920
1448090
1448256
1448420
1448582
1448742
1448904
1449052
1449202
1449352
1449500
1449646
1449798
1449950
1450102
1450252
1450408
1450566
1450726
1450882
1451040
1451200
1451362
1451522
1451676
1451830
1451986
1452138
1452296
1452460
1452630
1452790
1452964
1453142
1453314
1453464
1453650
1453818
1453980
1454140
1454294
1454452
1454612
1454774
1454928
1455084
1455240
1455396
1455548
1455704
1455860
1456018
1456174
1456328
1456488
1456642
1456792
1456946
1457100
1457252
1457402
1457554
1457708
1457860
1458012
1458160
1458310
1458456
1458606
1458756
1458908
1459058
1459210
1459366
1459524
1459676
1459838
1459996
1460156
1460314
1460482
1460640
1460794
1460952
1461110
1461266
1461422
1461574
1461726
1461878
1462026
1462180
1462334
1462488
1462640
1462800
1462958
1463116
1463270
1463434
1463598
1463760
1463918
1464090
1464252
1464416
1464580
1464742
1464908
1465072
1465238
1465402
1465564
1465730
1465896
1466068
1466230
1466382
1466554
1466718
1466880
1467040
1467200
1467360
1467522
1467682
1467842
1468004
1468166
1468326
1468498
1468664
1468828
1468990
1469156
1469320
1469486
1469652
1469820
1469986
1470152
1470318
1470482
1470648
1470814
1470982
1471148
1471318
1471504
1471670
1471830
1471998
1472182
1472356
1472530
1472698
1472866
1473032
1473188
1473344
1473498
1473652
1473804
1473956
1474110
1474266
1474420
1474570
1474724
1474880
1475036
1475190
1475344
1475498
1475658
1475816
1475974
1476132
1476292
1476448
1476602
1476760
1476916
1477074
1477230
1477394
1477554
1477710
1477862
1478012
1478164
1478314
1478464
1478614
1478766
1478914
1479066
1479218
1479368
1479516
1479666
1479816
1479966
1480112
1480262
1480414
1480568
1480722
1480876
1481036
1481192
1481348
1481504
1481660
1481816
1481970
1482122
1482272
1482422
1482572
1482720
1482870
1483020
1483168
1483320
1483470
1483620
1483770
1483922
1484078
1484230
1484378
1484528
1484678
1484826
1484976
1485122
1485268
1485420
1485570
1485722
1485868
1486022
1486174
1486324
1486470
1486620
1486768
1486918
1487068
1487216
1487366
1487516
1487670
1487818
1487976
1488130
1488288
1488446
1488602
1488760
1488922
1489078
1489234
1489392
1489552
1489712
1489872
1490040
1490204
1490368
1490530
1490708
1490880
1491052
1491226
1491400
1491574
1491748
1491926
1492114
1492306
1492492
1492676
1492856
1493034
1493206
1493378
1493544
1493710
1493868
1494024
1494176
1494324
1494476
1494626
1494772
1494920
1495064
1495212
1495360
1495512
1495666
1495820
1495976
1496136
1496300
1496458
1496616
1496778
1496938
1497094
1497250
1497404
1497558
1497716
1497894
1498066
1498230
1498392
1498558
1498722
1498886
1499052
1499218
1499384
1499552
1499716
1499880
1500046
1500212
1500376
1500538
1500700
1500864
1501028
1501190
1501352
1501514
1501674
1501830
1501980
1502134
1502288
1502444
1502602
1502758
1502918
1503078
1503234
1503392
1503554
1503716
1503878
1504034
1504194
1504364
1504530
1504706
1504872
1505050
1505220
1505392
1505562
1505726
1505906
1506076
1506240
1506410
1506582
1506750
1506914
1507082
1507254
1507424
1507588
1507764
1507940
1508120
1508304
1508498
1508674
1508848
1509016
1509176
1509336
1509490
1509644
1509802
1509962
1510118
1510274
1510436
1510600
1510762
1510924
1511088
1511256
1511420
1511580
1511742
1511906
1512068
1512224
1512386
1512552
1512716
1512884
1513044
1513206
1513366
1513512
1513674
1513830
1513986
1514136
1514288
1514438
1514586
1514732
1514882
1515030
1515176
1515326
1515480
1515636
1515792
1515946
1516110
1516272
1516436
1516596
1516758
1516928
1517088
1517264
1517430
1517594
1517772
1517940
1518102
1518266
1518428
1518590
1518760
1518920
1519086
1519250
1519416
1519578
1519744
1519912
1520074
1520244
1520404
1520574
1520738
1520874
1521066
1521228
1521392
1521566
1521728
1521894
1522062
1522228
1522400
1522568
1522730
1522908
1523084
1523254
1523424
1523562
1523768
1523946
1524120
1524296
1524474
1524652
1524830
1525006
1525178
1525356
1525540
1525714
1525884
1526062
1526242
1526418
1526592
1526758
1526934
1527108
1527276
1527440
1527612
1527748
1527954
1528126
1528288
1528464
1528638
1528806
1528970
1529140
1529316
1529488
1529658
1529828
1530006
1530180
1530348
1530512
1530678
1530842
1531008
1531172
1531336
1531508
1531662
1531866
1532038
1532208
1532382
1532550
1532714
1532880
1533048
1533208
1533364
1533524
1533684
1533840
1533994
1534150
1534308
1534472
1534632
1534788
1534950
1535116
1535278
1535434
1535594
1535758
1535922
1536080
1536242
1536402
1536564
1536722
1536882
1537048
1537214
1537376
1537540
1537704
1537870
1538030
1538200
1538372
1538544
1538712
1538884
1539060
1539242
1539414
1539578
1539746
1539914
1540082
1540250
1540426
1540600
1540786
1540962
1541132
1541316
1541496
1541670
1541840
1542020
1542194
1542378
1542542
1542728
1542898
1543070
1543236
1543396
1543564
1543734
1543906
1544078
1544246
1544416
1544588
1544762
1544936
1545116
1545288
1545454
1545616
1545780
1545948
1546114
1546280
1546454
1546634
1546812
1546982
1547168
1547350
1547518
1547692
1547870
1548044
1548216
1548382
1548556
1548736
1548922
1549104
1549278
1549458
1549634
1549814
1549990
1550160
1550330
1550502
1550676
1550846
1551024
1551204
1551392
1551572
1551748
1551922
1552104
1552280
1552462
1552638
1552812
1552992
1553174
1553352
1553526
1553696
1553872
1554052
1554236
1554414
1554602
1554786
1554960
1555122
1555288
1555452
1555618
1555780
1555940
1556098
1556262
1556426
1556592
1556756
1556926
1557098
1557274
1557450
1557626
1557796
1557970
1558138
1558312
1558488
1558668
1558848
1559026
1559200
1559380
1559554
1559732
1559908
1560082
1560262
1560436
1560618
1560800
1560972
1561144
1561324
1561514
1561698
1561876
1562060
1562248
1562426
1562606
1562790
1562974
1563160
1563336
1563508
1563684
1563872
1564096
1564370
1564622
1564828
1565074
1565316
1565528
1565728
1565944
1566168
1566342
1566524
1566704
1566898
1567092
1567272
1567476
1567690
1567874
1568068
1568308
1568578
1568786
1568992
1569324
1569534
1569720
1569884
1570052
1570220
1570392
1570590
1570852
1571056
1571270
1571478
1571680
1571886
1572124
1572428
1572640
1572900
1573156
1573354
1573550
1573728
1573892
1574062
1574224
1574392
1574562
1574740
1574916
1575084
1575248
1575408
1575566
1575718
1575870
1576022
1576174
1576324
1576476
1576624
1576774
1576924
1577074
1577226
1577372
1577522
1577672
1577818
1577968
1578114
1578260
1578406
1578556
1578702
1578850
1578996
1579144
1579292
1579440
1579586
1579734
1579882
1580028
1580176
1580322
1580468
1580616
1580762
1580910
1581058
1581208
1581354
1581500
1581648
1581792
1581938
1582060
1582228
1582374
1582522
1582670
1582818
1582946
1583112
1583262
1583414
1583564
1583714
1583850
1584012
1584160
1584306
1584450
1584594
1584738
1584880
1585024
1585168
1585316
1585462
1585610
1585760
1585912
1586066
1586220
1586372
1586524
1586674
1586824
1586974
1587126
1587274
1587424
1587572
1587718
1587868
1588016
1588164
1588314
1588464
1588614
1588762
1588896
1589056
1589206
1589356
1589506
1589662
1589816
1589972
1590126
1590284
1590440
1590600
1590758
1590916
1591074
1591232
1591394
1591552
1591714
1591874
1592036
1592198
1592358
1592518
1592678
1592840
1593002
1593164
1593326
1593488
1593652
1593814
1593974
1594138
1594300
1594464
1594626
1594790
1594954
1595120
1595282
1595444
1595606
1595768
1595930
1596088
1596252
1596412
1596576
1596732
1596888
1597044
1597202
1597356
1597514
1597670
1597828
1597988
1598144
1598302
1598454
1598610
1598764
1598916
1599070
1599222
1599372
1599524
1599678
1599834
1599992
1600146
1600304
1600462
1600622
1600780
1600936
1601092
1601252
1601410
1601572
1601732
1601890
1602050
1602208
1602368
1602528
1602688
1602850
1603012
1603176
1603336
1603498
1603662
1603826
1603990
1604156
1604320
1604484
1604650
1604812
1604974
1605098
1605292
1605452
1605612
1605740
1605930
1606092
1606250
1606410
1606572
1606734
1606898
1607062
1607228
1607396
1607562
1607730
1607894
1608060
1608228
1608392
1608558
1608716
1608878
1609036
1609198
1609366
1609532
1609694
1609854
1610012
1610172
1610326
1610482
1610638
1610792
1610946
1611102
1611254
1611406
1611562
1611718
1611878
1612036
1612198
1612352
1612510
1612658
1612816
1612968
1613122
1613272
1613422
1613572
1613720
1613866
1614014
1614158
1614306
1614452
1614598
1614744
1614892
1615038
1615184
1615328
1615476
1615620
1615750
1615910
1616062
1616212
1616360
1616506
1616656
1616802
1616948
1617094
1617238
1617384
1617534
1617682
1617832
1617982
1618136
1618294
1618450
1618606
1618762
1618922
1619084
1619248
1619410
1619570
1619738
1619906
1620076
1620240
1620412
1620586
1620762
1620944
1621132
1621326
1621532
1621772
1622050
1622310
1622530
1622728
1622906
1623086
1623264
1623436
1623598
1623780
1623958
1624138
1624312
1624498
1624680
1624880
1625098
1625340
1625534
1625728
1625930
1626172
1626376
1626566
1626772
1627008
1627208
1627400
1627612
1627844
1628028
1628204
1628378
1628558
1628740
1628934
1629144
1629360
1629550
1629724
1629904
1630082
1630262
1630436
1630614
1630792
1630972
1631150
1631322
1631504
1631682
1631862
1632038
1632214
1632392
1632568
1632738
1632904
1633080
1633254
1633432
1633610
1633778
1633952
1634128
1634308
1634488
1634664
1634844
1635024
1635202
1635370
1635550
1635732
1635912
1636088
1636254
1636438
1636616
1636788
1636968
1637140
1637320
1637498
1637678
1637818
1638032
1638214
1638394
1638574
1638744
1638918
1639098
1639280
1639460
1639596
1639808
1639986
1640166
1640346
1640520
1640704
1640888
1641070
1641246
1641420
1641604
1641786
1641972
1642152
1642334
1642528
1642720
1642896
1643064
1643240
1643420
1643602
1643782
1643972
1644160
1644346
1644526
1644702
1644886
1645076
1645262
1645444
1645626
1645818
1646008
1646184
1646356
1646534
1646710
1646892
1647070
1647236
1647406
1647580
1647758
1647936
1648108
1648290
1648478
1648660
1648836
1649016
1649198
1649378
1649528
1649728
1649908
1650086
1650266
1650436
1650608
1650788
1650970
1651144
1651312
1651484
1651656
1651830
1652000
1652168
1652338
1652514
1652694
1652864
1653036
1653208
1653344
1653558
1653728
1653894
1654068
1654242
1654414
1654584
1654752
1654922
1655098
1655276
1655456
1655632
1655812
1655986
1656164
1656334
1656504
1656680
1656858
1657040
1657216
1657392
1657572
1657750
1657926
1658096
1658270
1658444
1658620
1658800
1658972
1659140
1659312
1659486
1659656
1659828
1659998
1660170
1660346
1660524
1660694
1660866
1661040
1661218
1661400
1661576
1661754
1661928
1662114
1662300
1662486
1662662
1662834
1663018
1663200
1663382
1663560
1663734
1663914
1664098
1664286
1664466
1664640
1664818
1665002
1665186
1665366
1665538
1665714
1665890
1666062
1666234
1666398
1666564
1666728
1666894
1667064
1667236
1667406
1667578
1667752
1667924
1668096
1668264
1668428
1668598
1668766
1668932
1669094
1669252
1669410
1669566
1669720
1669874
1670028
1670184
1670344
1670508
1670672
1670840
1671014
1671190
1671362
1671536
1671712
1671890
1672068
1672244
1672422
1672604
1672788
1672950
1673142
1673324
1673502
1673688
1673866
1674042
1674212
1674384
1674552
1674718
1674894
1675068
1675246
1675426
1675610
1675802
1675992
1676170
1676348
1676530
1676710
1676888
1677062
1677240
1677422
1677604
1677786
1677960
1678136
1678314
1678492
1678674
1678848
1679030
1679218
1679398
1679580
1679754
1679930
1680110
1680294
1680470
1680640
1680816
1680994
1681172
1681346
1681518
1681688
1681858
1682034
1682204
1682378
1682562
1682748
1682932
1683112
1683290
1683474
1683668
1683852
1684032
1684218
1684406
1684592
1684770
1684946
1685128
1685312
1685496
1685680
1685864
1686058
1686254
1686440
1686620
1686798
1686970
1687144
1687318
1687490
1687662
1687834
1688010
1688190
1688346
1688546
1688722
1688904
1689090
1689270
1689448
1689628
1689814
1689994
1690172
1690346
1690526
1690706
1690884
1691058
1691212
1691400
1691574
1691752
1691920
1692088
1692254
1692426
1692598
1692772
1692940
1693110
1693282
1693450
1693620
1693784
1693950
1694118
1694290
1694462
1694632
1694804
1694978
1695156
1695330
1695502
1695674
1695852
1696028
1696204
1696374
1696546
1696722
1696898
1697078
1697250
1697424
1697598
1697776
1697948
1698118
1698290
1698460
1698634
1698810
1698978
1699150
1699322
1699498
1699676
1699852
1700024
1700196
1700364
1700534
1700700
1700866
1701040
1701210
1701382
1701550
1701716
1701882
1702054
1702224
1702400
1702568
1702738
1702910
1703084
1703256
1703424
1703592
1703766
1703942
1704114
1704282
1704454
1704628
1704802
1704972
1705146
1705324
1705500
1705674
1705840
1706008
1706182
1706360
1706536
1706716
1706920
1707154
1707366
1707680
1707882
1708092
1708280
1708446
1708614
1708786
1708960
1709136
1709306
1709478
1709654
1709832
1710010
1710184
1710358
1710536
1710718
1710900
1711080
1711252
1711430
1711610
1711796
1711980
1712164
1712342
1712536
1712730
1712922
1713108
1713296
1713490
1713676
1713864
1714040
1714220
1714408
1714596
1714784
1714964
1715144
1715338
1715532
1715710
1715878
1716040
1716202
1716362
1716524
1716682
1716840
1717002
1717168
1717334
1717500
1717676
1717854
1718034
1718210
1718382
1718558
1718736
1718918
1719094
1719266
1719446
1719636
1719820
1719998
1720168
1720342
1720522
1720702
1720878
1721052
1721228
1721408
1721586
1721764
1721940
1722122
1722308
1722494
1722676
1722860
1723042
1723226
1723406
1723584
1723770
1723950
1724134
1724314
1724490
1724674
1724854
1725038
1725212
1725388
1725566
1725738
1725910
1726082
1726254
1726434
1726612
1726788
1726962
1727136
1727314
1727490
1727670
1727842
1727992
1728190
1728368
1728546
1728726
1728866
1729088
1729270
1729458
1729640
1729822
1730014
1730198
1730382
1730556
1730730
1730906
1731078
1731246
1731412
1731576
1731748
1731918
1732092
1732258
1732432
1732612
1732836
1733112
1733310
1733514
1733754
1734004
1734202
1734424
1734632
1734816
1734992
1735172
1735354
1735538
1735726
1735914
1736098
1736282
1736470
1736612
1736846
1737030
1737222
1737406
1737584
1737766
1737944
1738128
1738306
1738474
1738652
1738824
1739000
1739170
1739336
1739498
1739660
1739826
1739994
1740156
1740316
1740476
1740634
1740790
1740946
1741106
1741264
1741428
1741594
1741764
1741936
1742114
1742288
1742468
1742648
1742824
1743002
1743176
1743358
1743538
1743720
1743896
1744074
1744258
1744442
1744624
1744802
1744980
1745162
1745342
1745518
1745696
1745878
1746062
1746246
1746418
1746594
1746772
1746948
1747122
1747292
1747470
1747644
1747790
1748002
1748174
1748352
1748530
1748702
1748876
1749052
1749232
1749410
1749588
1749766
1749952
1750132
1750312
1750488
1750666
1750852
1751034
1751178
1751388
1751566
1751742
1751924
1752096
1752268
1752442
1752618
1752792
1752964
1753136
1753310
1753488
1753662
1753836
1754012
1754186
1754362
1754532
1754704
1754878
1755056
1755236
1755410
1755586
1755760
1755936
1756112
1756286
1756458
1756632
1756810
1756990
1757166
1757340
1757518
1757698
1757872
1758044
1758218
1758394
1758574
1758752
1758928
1759098
1759272
1759446
1759616
1759788
1759956
1760132
1760310
1760482
1760654
1760826
1761002
1761178
1761348
1761522
1761698
1761876
1762054
1762228
1762402
1762576
1762748
1762918
1763090
1763264
1763436
1763614
1763786
1763958
1764134
1764310
1764480
1764650
1764822
1764998
1765180
1765354
1765524
1765700
1765878
1766060
1766240
1766414
1766592
1766766
1766938
1767110
1767280
1767452
1767624
1767802
1767974
1768148
1768322
1768498
1768666
1768834
1769008
1769184
1769364
1769538
1769714
1769900
1770090
1770276
1770456
1770636
1770824
1771006
1771188
1771368
1771550
1771738
1771926
1772114
1772292
1772476
1772660
1772848
1773026
1773200
1773380
1773558
1773736
1773904
1774070
1774242
1774414
1774588
1774758
1774930
1775104
1775280
1775456
1775624
1775790
1775962
1776134
1776308
1776480
1776654
1776830
1777004
1777180
1777352
1777528
1777706
1777882
1778054
1778228
1778406
1778580
1778758
1778932
1779104
1779278
1779454
1779630
1779796
1779964
1780134
1780300
1780468
1780632
1780798
1780968
1781140
1781314
1781484
1781654
1781826
1781996
1782176
1782346
1782518
1782692
1782866
1783040
1783218
1783392
1783570
1783748
1783928
1784108
1784286
1784458
1784638
1784814
1784990
1785160
1785304
1785504
1785678
1785854
1786022
1786192
1786362
1786532
1786706
1786870
1787038
1787210
1787382
1787556
1787720
1787892
1788066
1788244
1788424
1788602
1788782
1788972
1789160
1789346
1789532
1789720
1789918
1790110
1790294
1790476
1790662
1790848
1791028
1791206
1791384
1791572
1791760
1791946
1792126
1792306
1792484
1792672
1792854
1793028
1793206
1793382
1793562
1793740
1793918
1794094
1794274
1794454
1794638
1794816
1794990
1795172
1795352
1795536
1795712
1795886
1796066
1796246
1796422
1796594
1796766
1796940
1797118
1797286
1797456
1797630
1797804
1797978
1798150
1798322
1798498
1798674
1798852
1799028
1799202
1799384
1799564
1799744
1799920
