peaks
22
146
270
392
516
640
766
890
1014
1136
1260
1384
1508
1630
1754
1876
2000
2122
2246
2368
2490
2614
2736
2858
2982
3104
3226
3350
3472
3596
3718
3842
3966
4090
4214
4336
4460
4582
4706
4830
4954
5076
5200
5324
5448
5572
5696
5818
5942
6066
6190
6312
6436
6558
6682
6806
6928
7052
7174
7298
7422
7546
7670
7794
7918
8044
8168
8292
8416
8542
8666
8790
8916
9040
9164
9288
9412
9536
9660
9786
9908
10032
10156
10280
10404
10528
10652
10776
10900
11022
11146
11268
11392
11516
11638
11762
11884
12008
12130
12254
12376
12498
12622
12744
12868
12990
13114
13236
13360
13482
13606
13728
13852
13974
14098
14222
14348
14472
14598
14722
14846
14972
15096
15220
15346
15470
15596
15720
15846
15970
16096
16222
16348
16472
16598
16724
16850
16976
17102
17228
17354
17480
17604
17728
17854
17980
18102
18228
18352
18476
18600
18724
18850
18974
19098
19224
19348
19474
19598
19724
19850
19974
20100
20226
20350
20476
20602
20726
20852
20976
21102
21228
21352
21476
21602
21728
21852
21978
22102
22228
22354
22480
22606
22730
22856
22982
23108
23232
23358
23486
23612
23738
23864
23990
24116
24242
24368
24494
24620
24746
24872
24998
25124
25250
25376
25502
25628
25754
25880
26006
26132
26260
26386
26512
26638
26764
26890
27016
27142
27270
27394
27520
27646
27770
27896
28020
28144
28268
28392
28516
28640
28764
28890
29014
29138
29262
29386
29510
29634
29758
29884
30006
30130
30254
30378
30502
30624
30748
30872
30996
31120
31244
31368
31492
31618
31740
31866
31990
32114
32238
32362
32488
32612
32736
32860
32986
33110
33234
33356
33480
33604
33728
33850
33974
34098
34220
34342
34466
34588
34712
34834
34958
35080
35204
35328
35450
35574
35698
35822
35944
36068
36192
36316
36440
36564
36688
36812
36938
37062
37186
37312
37436
37560
37686
37810
37934
38058
38184
38308
38432
38558
38682
38806
38930
39056
39180
39304
39428
39552
39678
39802
39926
40050
40174
40300
40424
40548
40672
40796
40922
41046
41170
41294
41420
41544
41668
41792
41916
42042
42166
42288
42414
42538
42662
42786
42912
43036
43158
43282
43406
43530
43654
43778
43900
44024
44148
44270
44394
44518
44642
44766
44888
45012
45136
45260
45384
45508
45632
45756
45880
46004
46128
46252
46378
46502
46628
46752
46876
47000
47126
47250
47374
47498
47622
47746
47870
47994
48118
48244
48366
48490
48614
48740
48864
48988
49112
49236
49362
49486
49610
49734
49860
49984
50108
50234
50358
50484
50608
50734
50860
50984
51110
51236
51360
51486
51612
51736
51862
51986
52112
52236
52362
52488
52612
52738
52864
52988
53114
53238
53364
53490
53616
53740
53866
53992
54118
54242
54368
54492
54618
54742
54866
54990
55114
55238
55364
55488
55612
55736
55860
55984
56110
56234
56360
56484
56608
56732
56854
56978
57102
57226
57350
57474
57596
57720
57844
57970
58094
58216
58342
58466
58590
58714
58840
58964
59088
59212
59336
59462
59586
59714
59832
59956
60080
60204
60328
60452
60576
60700
60824
60948
61072
61196
61320
61442
61566
61690
61814
61938
62062
62186
62310
62436
62560
62684
62808
62934
63058
63182
63308
63432
63556
63682
63806
63930
64054
64178
64304
64428
64552
64674
64800
64924
65048
65172
65296
65418
65540
65662
65784
65906
66028
66150
66272
66396
66518
66642
66766
66890
67014
67138
67262
67386
67512
67638
67764
67890
68016
68142
68268
68394
68518
68644
68768
68894
69020
69144
69270
69396
69520
69646
69770
69896
70022
70146
70272
70398
70522
70648
70776
70902
71028
71152
71280
71406
71532
71656
71782
71908
72036
72162
72288
72414
72542
72670
72798
72926
73054
73184
73312
73440
73568
73696
73824
73952
74080
74208
74336
74464
74592
74722
74848
74976
75106
75234
75362
75490
75618
75746
75874
76002
76130
76258
76388
76516
76644
76772
76902
77030
77160
77290
77418
77546
77672
77800
77928
78052
78178
78304
78428
78554
78678
78802
78930
79050
79174
79298
79422
79546
79670
79794
79918
80044
80170
80294
80420
80546
80672
80798
80924
81050
81176
81302
81428
81552
81678
81802
81928
82054
82178
82302
82426
82552
82676
82798
82922
83048
83174
83296
83420
83544
83666
83790
83914
84038
84162
84286
84410
84534
84658
84782
84906
85030
85154
85278
85402
85526
85650
85776
85900
86026
86150
86274
86400
86526
86650
86774
86898
87024
87148
87274
87398
87522
87646
87770
87894
88018
88142
88266
88388
88512
88636
88760
88884
89006
89130
89254
89378
89502
89624
89748
89870
89994
90118
90240
90364
90486
90608
90730
90852
90974
91096
91220
91342
91464
91586
91710
91834
91956
92078
92200
92322
92446
92568
92688
92810
92930
93052
93174
93294
93416
93538
93662
93786
93910
94034
94158
94282
94404
94526
94648
94770
94894
95016
95138
95260
95380
95502
95624
95744
95866
95986
96104
96222
96340
96458
96576
96694
96810
96926
97044
97160
97276
97392
97510
97626
97742
97858
97976
98094
98210
98326
98444
98560
98678
98796
98912
99030
99148
99264
99382
99498
99616
99732
99850
99968
100086
100204
100322
100440
100560
100678
100798
100916
101036
101154
101274
101392
101510
101628
101746
101864
101980
102098
102216
102334
102450
102568
102684
102802
102920
103036
103154
103272
103388
103506
103624
103740
103856
103974
104090
104206
104322
104440
104556
104672
104790
104906
105022
105140
105258
105374
105492
105610
105726
105844
105962
106080
106196
106314
106432
106550
106666
106782
106900
107016
107134
107250
107366
107484
107600
107718
107834
107952
108068
108186
108302
108418
108536
108652
108770
108886
109002
109120
109236
109354
109472
109588
109706
109824
109942
110058
110176
110294
110412
110528
110646
110764
110882
111000
111118
111236
111354
111472
111590
111708
111826
111944
112062
112180
112296
112414
112530
112648
112764
112882
112998
113114
113230
113346
113462
113578
113692
113808
113924
114040
114156
114270
114384
114500
114614
114728
114842
114956
115070
115184
115298
115412
115524
115638
115750
115866
115980
116094
116206
116320
116432
116546
116658
116764
116882
116996
117110
117222
117336
117448
117562
117674
117786
117900
118010
118122
118236
118346
118458
118572
118684
118794
118908
119022
119132
119244
119356
119470
119582
119694
119806
119918
120030
120142
120254
120366
120478
120590
120702
120814
120926
121038
121150
121262
121374
121486
121598
121710
121822
121934
122046
122158
122268
122380
122492
122606
122720
122830
122942
123052
123166
123272
123390
123502
123614
123726
123838
123950
124064
124176
124288
124402
124516
124628
124740
124854
124968
125082
125196
125308
125420
125534
125648
125762
125874
125988
126102
126214
126328
126442
126554
126668
126782
126896
127010
127124
127238
127352
127464
127578
127694
127806
127918
128032
128146
128260
128372
128486
128600
128712
128826
128940
129054
129166
129280
129392
129506
129620
129734
129848
129960
130074
130188
130302
130416
130530
130644
130758
130870
130984
131098
131212
131324
131438
131552
131666
131780
131896
132008
132124
132236
132350
132464
132578
132694
132806
132920
133034
133150
133266
133380
133494
133608
133722
133838
133952
134068
134182
134298
134414
134528
134644
134760
134876
134990
135106
135220
135336
135452
135568
135682
135798
135912
136028
136144
136260
136374
136490
136604
136720
136834
136948
137064
137178
137294
137408
137524
137638
137754
137870
137984
138098
138214
138328
138444
138558
138674
138788
138904
139018
139134
139248
139364
139480
139594
139710
139824
139940
140056
140170
140286
140400
140516
140630
140746
140860
140976
141090
141206
141320
141434
141548
141664
141778
141892
142008
142124
142238
142354
142468
142582
142698
142814
142928
143042
143156
143270
143384
143500
143614
143728
143842
143956
144072
144186
144300
144416
144532
144646
144762
144876
144992
145106
145222
145336
145452
145566
145680
145796
145910
146024
146140
146256
146370
146486
146602
146718
146832
146948
147064
147178
147294
147410
147524
147638
147754
147868
147984
148098
148214
148328
148444
148558
148672
148788
148902
149016
149130
149244
149360
149474
149588
149702
149818
149932
150048
150162
150276
150392
150506
150620
150734
150850
150964
151080
151194
151310
151424
151540
151654
151770
151886
152000
152116
152232
152348
152464
152578
152694
152810
152924
153040
153154
153270
153384
153498
153612
153728
153842
153956
154068
154182
154296
154410
154522
154636
154748
154862
154974
155088
155200
155314
155426
155538
155652
155764
155876
155990
156102
156214
156328
156440
156554
156666
156780
156894
157008
157122
157234
157348
157462
157574
157688
157800
157914
158028
158140
158254
158366
158480
158592
158704
158818
158930
159044
159156
159270
159384
159496
159610
159724
159836
159950
160062
160176
160290
160404
160518
160632
160744
160858
160972
161086
161200
161314
161428
161540
161654
161768
161882
161994
162108
162220
162334
162448
162562
162674
162788
162902
163014
163128
163242
163356
163470
163584
163698
163812
163926
164042
164154
164268
164382
164496
164610
164724
164838
164952
165066
165178
165292
165406
165520
165634
165748
165862
165978
166092
166206
166320
166436
166550
166664
166778
166892
167006
167120
167234
167348
167462
167576
167690
167804
167918
168032
168148
168262
168380
168494
168610
168724
168840
168954
169068
169184
169298
169412
169528
169642
169754
169872
169986
170100
170214
170330
170444
170558
170672
170788
170902
171016
171130
171244
171360
171474
171588
171702
171814
171928
172040
172154
172266
172378
172490
172602
172716
172828
172942
173054
173168
173282
173394
173508
173622
173734
173848
173962
174074
174188
174302
174414
174528
174640
174754
174866
174978
175092
175204
175318
175430
175544
175656
175768
175882
175994
176108
176220
176334
176448
176560
176674
176788
176902
177016
177132
177244
177358
177474
177588
177700
177814
177928
178042
178156
178270
178384
178498
178612
178716
178824
178948
179064
179172
179282
179398
179510
179622
179736
179850
179956
180080
180194
180310
180426
180540
180658
180778
180886
180998
181112
181226
181340
181452
181566
181680
181792
181906
182018
182132
182244
182356
182468
182580
182692
182804
182914
183026
183138
183248
183360
183470
183582
183692
183802
183914
184024
184136
184246
184356
184466
184578
184688
184798
184908
185016
185126
185236
185346
185456
185564
185674
185782
185892
186002
186112
186220
186328
186438
186546
186656
186764
186872
186980
187090
187198
187308
187416
187524
187632
187742
187850
187960
188068
188178
188288
188398
188506
188614
188724
188834
188944
189056
189160
189270
189380
189488
189598
189708
189816
189926
190036
190144
190252
190362
190472
190580
190690
190800
190910
191020
191130
191242
191354
191464
191576
191690
191802
191914
192026
192140
192254
192368
192482
192596
192710
192824
192938
193052
193166
193280
193394
193508
193620
193736
193848
193962
194076
194192
194306
194420
194534
194648
194762
194876
194990
195104
195218
195330
195444
195558
195672
195786
195902
196016
196132
196246
196362
196478
196594
196708
196824
196940
197056
197172
197288
197404
197518
197634
197750
197864
197978
198094
198210
198324
198440
198556
198670
198784
198898
199014
199128
199242
199358
199472
199586
199702
199816
199932
200046
200160
200274
200388
200504
200618
200732
200846
200960
201074
201188
201302
201416
201530
201644
201760
201874
201990
202104
202220
202334
202450
202566
202682
202798
202914
203028
203144
203260
203374
203490
203606
203720
203836
203952
204068
204182
204298
204414
204530
204644
204762
204876
204992
205102
205222
205338
205454
205568
205684
205798
205912
206028
206144
206258
206374
206488
206602
206718
206832
206948
207062
207178
207292
207408
207522
207638
207754
207868
207984
208098
208214
208330
208444
208558
208674
208788
208902
209018
209132
209246
209360
209476
209590
209704
209818
209932
210048
210162
210276
210390
210506
210620
210736
210848
210962
211076
211190
211304
211418
211532
211646
211758
211870
211984
212096
212210
212324
212436
212550
212662
212776
212890
213002
213116
213228
213342
213456
213568
213680
213794
213906
214018
214130
214242
214356
214468
214580
214690
214802
214914
215024
215136
215248
215358
215470
215582
215692
215804
215914
216026
216136
216248
216358
216470
216580
216690
216802
216912
217024
217134
217244
217354
217464
217574
217684
217794
217904
218014
218124
218234
218342
218452
218562
218670
218780
218888
218998
219108
219216
219324
219434
219542
219650
219760
219866
219974
220082
220190
220298
220406
220512
220620
220728
220836
220944
221050
221158
221264
221372
221478
221586
221692
221798
221906
222014
222120
222226
222332
222440
222546
222652
222758
222866
222972
223078
223184
223292
223398
223504
223612
223718
223824
223932
224038
224144
224252
224358
224464
224572
224678
224784
224890
224996
225102
225210
225316
225422
225528
225634
225740
225846
225952
226058
226164
226272
226378
226486
226592
226698
226806
226912
227020
227126
227234
227340
227448
227554
227662
227770
227876
227984
228092
228200
228308
228414
228522
228630
228738
228846
228952
229060
229168
229276
229382
229490
229596
229704
229810
229918
230024
230132
230238
230346
230454
230562
230670
230778
230888
230996
231104
231214
231324
231434
231542
231652
231760
231868
231978
232086
232194
232304
232412
232520
232630
232738
232846
232956
233064
233174
233282
233390
233500
233608
233716
233826
233934
234042
234152
234260
234370
234480
234590
234700
234808
234918
235028
235138
235246
235356
235466
235576
235684
235794
235902
236012
236120
236228
236338
236446
236556
236664
236774
236882
236992
237100
237210
237318
237428
237538
237646
237756
237864
237974
238082
238192
238302
238410
238520
238628
238738
238846
238956
239064
239172
239280
239390
239498
239608
239716
239826
239934
240042
240150
240260
240368
240476
240584
240694
240802
240910
241018
241126
241234
241344
241452
241560
241666
241778
241886
241994
242104
242214
242322
242432
242542
242652
242762
242872
242982
243092
243202
243312
243422
243532
243642
243752
243864
243974
244084
244196
244306
244418
244528
244640
244750
244862
244972
245082
245194
245304
245414
245526
245636
245746
245856
245966
246076
246186
246296
246406
246518
246628
246738
246850
246960
247072
247182
247292
247404
247514
247626
247736
247848
247958
248068
248180
248290
248402
248512
248622
248732
248842
248952
249064
249174
249284
249396
249506
249616
249724
249834
249944
250054
250164
250274
250384
250496
250606
250716
250824
250934
251044
251154
251266
251374
251482
251592
251700
251810
251920
252028
252138
252246
252356
252464
252572
252682
252792
252900
253010
253120
253228
253338
253446
253559
253664
253774
253882
253990
254098
254206
254316
254426
254534
254644
254752
254860
254970
255078
255186
255294
255404
255512
255620
255728
255838
255948
256058
256168
256276
256384
256494
256604
256714
256822
256932
257040
257148
257256
257364
257472
257580
257688
257798
257906
258014
258122
258232
258340
258450
258560
258670
258780
258890
259000
259110
259222
259332
259444
259554
259664
259774
259884
259994
260106
260216
260326
260436
260546
260656
260768
260878
260988
261100
261210
261320
261430
261540
261652
261762
261872
261982
262094
262204
262316
262424
262536
262646
262756
262868
262978
263090
263200
263310
263422
263532
263644
263754
263866
263976
264086
264196
264308
264418
264528
264640
264750
264862
264968
265084
265196
265308
265418
265530
265642
265754
265866
265978
266090
266202
266314
266426
266538
266650
266762
266874
266986
267098
267210
267322
267434
267546
267658
267770
267884
267996
268110
268224
268338
268452
268566
268682
268794
268910
269008
269138
269252
269368
269482
269598
269712
269826
269942
270056
270172
270286
270402
270516
270630
270744
270858
270972
271068
271196
271310
271422
271536
271650
271762
271876
271990
272102
272216
272328
272446
272552
272664
272774
272888
273000
273112
273226
273340
273452
273564
273678
273792
273904
274018
274132
274246
274360
274474
274588
274702
274816
274930
275046
275160
275274
275388
275500
275616
275730
275842
275956
276070
276186
276300
276414
276528
276642
276756
276870
276984
277098
277210
277324
277438
277552
277666
277778
277892
278006
278120
278236
278350
278462
278576
278690
278804
278918
279032
279146
279260
279376
279490
279602
279718
279832
279946
280058
280172
280286
280398
280512
280626
280736
280848
280962
281074
281188
281302
281416
281530
281646
281760
281874
281990
282104
282218
282332
282446
282562
282676
282788
282902
283016
283132
283242
283358
283472
283586
283700
283814
283930
284044
284156
284270
284382
284496
284610
284724
284836
284950
285062
285178
285292
285404
285520
285634
285748
285864
285978
286092
286206
286322
286436
286550
286664
286780
286894
287008
287122
287236
287350
287464
287578
287692
287806
287920
288036
288150
288264
288380
288494
288610
288724
288838
288954
289068
289184
289298
289412
289528
289642
289756
289872
289986
290100
290214
290328
290444
290560
290674
290788
290902
291018
291132
291246
291362
291476
291590
291704
291818
291934
292048
292162
292278
292392
292506
292620
292736
292850
292966
293080
293194
293308
293422
293536
293650
293764
293878
293992
294108
294222
294336
294450
294566
294678
294794
294910
295024
295140
295256
295372
295488
295604
295720
295836
295952
296068
296186
296302
296416
296532
296646
296760
296874
296988
297102
297216
297332
297446
297562
297678
297792
297908
298024
298140
298256
298372
298488
298604
298718
298834
298950
299066
299182
299298
299414
299530
299646
299762
299878
299994
300112
300228
300346
300462
300578
300696
300812
300928
301044
301160
301274
301390
301504
301620
301736
301852
301968
302086
302204
302320
302438
302556
302674
302794
302912
303032
303150
303268
303386
303506
303622
303740
303858
303974
304090
304208
304324
304440
304556
304672
304790
304906
305022
305138
305254
305370
305488
305604
305720
305838
305954
306068
306184
306300
306416
306532
306648
306764
306880
306998
307114
307232
307348
307466
307582
307700
307816
307932
308048
308164
308280
308394
308510
308626
308740
308854
308972
309086
309202
309318
309434
309548
309664
309778
309894
310010
310126
310242
310354
310470
310584
310700
310814
310930
311044
311160
311274
311390
311504
311618
311734
311848
311964
312078
312192
312308
312420
312536
312650
312764
312878
312992
313106
313220
313334
313448
313562
313676
313790
313904
314016
314130
314244
314356
314470
314584
314698
314812
314926
315042
315156
315270
315384
315498
315610
315724
315838
315952
316064
316178
316292
316404
316518
316632
316746
316858
316972
317086
317202
317316
317432
317546
317662
317774
317890
318004
318120
318236
318350
318466
318582
318698
318814
318928
319044
319160
319272
319386
319500
319614
319728
319842
319958
320072
320188
320304
320420
320538
320656
320774
320892
321008
321128
321246
321364
321482
321600
321718
321836
321954
322074
322192
322310
322428
322546
322664
322782
322898
323016
323134
323252
323370
323486
323606
323724
323842
323962
324078
324196
324312
324430
324548
324666
324782
324900
325018
325138
325258
325378
325496
325616
325736
325856
325978
326098
326218
326338
326460
326582
326702
326822
326942
327064
327184
327302
327422
327540
327658
327778
327898
328016
328136
328254
328376
328496
328614
328734
328854
328974
329094
329212
329332
329450
329570
329688
329806
329926
330044
330164
330284
330402
330522
330644
330766
330884
331004
331124
331246
331366
331484
331604
331724
331844
331964
332082
332200
332320
332440
332560
332678
332798
332918
333036
333156
333274
333392
333512
333632
333752
333870
333990
334102
334230
334348
334468
334588
334708
334828
334948
335068
335190
335312
335432
335552
335672
335794
335916
336038
336156
336276
336396
336518
336638
336756
336876
336996
337116
337234
337352
337470
337590
337710
337828
337946
338064
338182
338300
338418
338536
338654
338774
338892
339010
339130
339248
339366
339484
339604
339724
339840
339958
340078
340198
340316
340436
340552
340670
340788
340906
341024
341142
341260
341378
341496
341614
341732
341848
341966
342084
342200
342316
342434
342552
342668
342784
342900
343016
343132
343248
343362
343478
343594
343710
343824
343940
344056
344172
344286
344402
344518
344636
344750
344866
344984
345102
345218
345334
345452
345568
345684
345802
345918
346034
346150
346268
346384
346500
346618
346736
346854
346972
347090
347208
347328
347446
347564
347684
347802
347918
348038
348156
348276
348394
348514
348634
348752
348872
348992
349112
349230
349350
349470
349588
349708
349826
349944
350062
350182
350302
350420
350540
350658
350776
350894
351012
351130
351250
351368
351488
351608
351728
351848
351968
352088
352210
352330
352450
352572
352692
352814
352936
353054
353174
353294
353414
353534
353654
353772
353892
354012
354130
354248
354366
354486
354606
354724
354840
354960
355078
355196
355314
355430
355548
355666
355784
355900
356016
356134
356254
356370
356486
356604
356720
356838
356954
357070
357186
357304
357420
357536
357652
357770
357888
358006
358122
358238
358356
358474
358592
358710
358828
358948
359066
359186
359306
359424
359544
359662
359784
359904
360024
360144
360266
360386
360504
360626
360746
360866
360988
361108
361230
361352
361472
361594
361714
361834
361954
362076
362196
362314
362434
362554
362672
362790
362908
363028
363146
363266
363384
363502
363622
363740
363860
363978
364096
364214
364334
364452
364570
364688
364806
364924
365042
365160
365278
365394
365508
365624
365742
365858
365966
366094
366212
366328
366444
366562
366680
366798
366916
367034
367154
367272
367390
367510
367628
367748
367866
367984
368102
368222
368340
368460
368578
368698
368816
368936
369054
369172
369290
369410
369528
369648
369766
369886
370004
370122
370242
370360
370480
370598
370718
370836
370956
371074
371190
371308
371426
371546
371664
371784
371902
372022
372140
372260
372380
372498
372618
372738
372858
372976
373096
373214
373334
373454
373572
373690
373810
373930
374048
374168
374286
374406
374526
374646
374764
374884
375004
375124
375242
375362
375480
375600
375720
375838
375958
376078
376198
376316
376436
376556
376676
376796
376916
377038
377158
377278
377400
377520
377642
377762
377884
378004
378124
378246
378368
378488
378608
378730
378850
378970
379092
379210
379330
379452
379572
379690
379810
379930
380050
380170
380290
380410
380530
380648
380768
380886
381006
381124
381242
381360
381480
381598
381716
381834
381954
382072
382192
382310
382428
382546
382664
382782
382900
383020
383140
383258
383376
383496
383616
383734
383852
383972
384090
384208
384328
384446
384564
384682
384800
384918
385036
385154
385272
385390
385508
385626
385746
385864
385984
386102
386222
386340
386460
386580
386702
386822
386942
387062
387184
387304
387424
387546
387666
387786
387906
388026
388146
388268
388386
388508
388628
388748
388866
388988
389108
389228
389348
389470
389590
389710
389832
389952
390074
390194
390316
390438
390558
390680
390802
390924
391044
391166
391286
391408
391528
391650
391772
391892
392014
392136
392256
392378
392500
392622
392744
392864
392986
393106
393228
393348
393470
393582
393712
393832
393952
394072
394192
394312
394434
394552
394672
394790
394910
395030
395150
395268
395388
395506
395626
395744
395864
395982
396102
396222
396342
396462
396582
396702
396822
396942
397062
397182
397302
397424
397544
397664
397784
397904
398024
398144
398264
398386
398506
398626
398746
398868
398988
399108
399230
399350
399472
399592
399714
399834
399956
400076
400196
400318
400438
400560
400680
400802
400922
401044
401164
401286
401408
401528
401650
401772
401894
402016
402138
402260
402382
402502
402624
402748
402870
402992
403114
403236
403360
403484
403606
403728
403852
403974
404098
404220
404342
404466
404590
404712
404834
404956
405080
405202
405324
405446
405570
405692
405816
405938
406060
406184
406308
406430
406552
406676
406794
406920
407042
407164
407288
407410
407532
407654
407776
407898
408020
408142
408264
408386
408508
408630
408750
408872
408994
409116
409238
409360
409482
409604
409726
409848
409970
410092
410212
410334
410456
410578
410700
410822
410944
411066
411188
411312
411434
411558
411668
411804
411926
412050
412172
412296
412418
412540
412664
412786
412908
413030
413148
413276
413398
413520
413644
413766
413888
414010
414132
414254
414376
414498
414618
414740
414862
414984
415108
415228
415350
415472
415594
415716
415838
415960
416084
416204
416326
416448
416570
416692
416812
416934
417056
417178
417300
417422
417544
417666
417788
417910
418032
418154
418276
418398
418518
418640
418762
418884
419006
419128
419250
419372
419494
419616
419738
419860
419984
420106
420228
420352
420474
420598
420720
420842
420964
421086
421208
421330
421452
421574
421696
421818
421940
422062
422182
422304
422426
422546
422668
422790
422910
423032
423152
423272
423392
423512
423632
423752
423872
423992
424112
424232
424350
424470
424590
424708
424828
424948
425068
425188
425308
425428
425548
425668
425788
425908
426028
426148
426268
426388
426510
426630
426750
426870
426990
427110
427230
427350
427470
427590
427710
427830
427950
428070
428190
428310
428428
428546
428666
428786
428904
429024
429142
429262
429382
429500
429620
429738
429858
429978
430096
430216
430336
430456
430574
430692
430812
430932
431052
431172
431294
431414
431534
431656
431774
431892
432012
432132
432250
432370
432490
432610
432730
432850
432972
433092
433214
433334
433456
433576
433698
433820
433940
434060
434182
434302
434424
434544
434664
434784
434904
435024
435144
435264
435384
435504
435622
435742
435860
435980
436098
436218
436338
436456
436576
436696
436818
436938
437058
437176
437296
437416
437536
437654
437774
437894
438014
438134
438252
438372
438494
438614
438734
438856
438976
439098
439218
439338
439460
439580
439700
439820
439942
440062
440182
440302
440422
440542
440662
440782
440902
441022
441142
441262
441382
441502
441624
441744
441864
441984
442104
442224
442344
442462
442582
442702
442824
442944
443064
443182
443304
443422
443540
443660
443780
443900
444020
444140
444258
444380
444500
444620
444740
444860
444980
445102
445222
445344
445464
445586
445708
445828
445948
446070
446192
446312
446434
446556
446678
446800
446920
447042
447164
447286
447408
447530
447650
447772
447894
448016
448136
448258
448378
448500
448622
448742
448864
448984
449106
449228
449348
449470
449592
449712
449834
449956
450078
450198
450320
450440
450560
450680
450800
450922
451040
451162
451282
451402
451524
451644
451764
451886
452006
452126
452248
452370
452490
452610
452730
452850
452970
453090
453212
453332
453450
453570
453690
453810
453928
454048
454168
454286
454404
454522
454640
454756
454876
454994
455114
455236
455358
455482
455604
455726
455848
455970
456092
456214
456336
456458
456578
456700
456822
456942
457064
457184
457304
457424
457546
457666
457786
457906
458026
458146
458266
458386
458506
458626
458746
458866
458986
459106
459226
459346
459466
459586
459706
459826
459946
460066
460186
460306
460424
460544
460664
460784
460904
461024
461144
461264
461384
461504
461624
461744
461866
461986
462108
462226
462346
462466
462584
462704
462826
462946
463068
463190
463312
463436
463558
463682
463806
463930
464054
464180
464304
464428
464554
464678
464802
464926
465050
465176
465300
465424
465548
465672
465794
465918
466042
466164
466288
466410
466534
466656
466778
466900
467022
467146
467266
467388
467510
467630
467752
467872
467992
468114
468236
468356
468478
468598
468720
468842
468962
469084
469206
469326
469448
469570
469692
469812
469934
470056
470168
470300
470422
470544
470666
470788
470910
471032
471156
471278
471400
471522
471644
471766
471888
472010
472132
472254
472376
472498
472620
472742
472864
472986
473108
473230
473352
473474
473596
473716
473838
473960
474082
474202
474324
474446
474566
474688
474810
474930
475052
475172
475294
475414
475536
475656
475778
475900
476022
476142
476264
476386
476506
476628
476750
476872
476994
477116
477238
477360
477484
477606
477730
477820
477974
478096
478218
478338
478458
478580
478702
478824
478946
479070
479194
479320
479444
479570
479694
479820
479946
480072
480198
480326
480452
480578
480702
480830
480956
481082
481208
481334
481462
481588
481714
481840
481966
482092
482218
482344
482462
482594
482720
482844
482970
483096
483220
483346
483470
483596
483720
483846
483970
484096
484222
484348
484472
484600
484726
484852
484980
485106
485234
485362
485488
485616
485744
485872
486000
486128
486256
486384
486510
486638
486766
486892
487018
487144
487268
487394
487520
487644
487770
487894
488020
488144
488270
488394
488518
488642
488766
488888
489012
489134
489258
489380
489502
489624
489746
489868
489990
490112
490234
490356
490476
490598
490720
490840
490962
491084
491206
491326
491448
491570
491692
491814
491938
492060
492184
492308
492430
492554
492678
492802
492924
493048
493170
493294
493418
493540
493664
493788
493910
494034
494158
494280
494404
494526
494650
494774
494898
495022
495146
495270
495396
495520
495644
495770
495894
496020
496144
496270
496396
496520
496646
496772
496896
497022
497148
497274
497398
497524
497650
497774
497900
498024
498150
498276
498402
498530
498656
498784
498886
499036
499164
499292
499420
499548
499676
499804
499932
500060
500188
500316
500444
500572
500700
500828
500958
501086
501214
501342
501470
501598
501724
501850
501976
502102
502228
502340
502478
502604
502730
502858
502986
503114
503242
503370
503498
503626
503756
503882
504010
504138
504264
504392
504518
504646
504772
504900
505028
505154
505282
505412
505538
505666
505794
505922
506050
506178
506304
506432
506560
506686
506814
506940
507068
507194
507320
507446
507572
507698
507824
507950
508076
508202
508328
508454
508580
508704
508830
508956
509080
509206
509332
509456
509582
509708
509834
509960
510084
510210
510336
510462
510588
510714
510842
510968
511096
511222
511350
511476
511604
511732
511860
511988
512116
512242
512370
512498
512626
512754
512880
513008
513134
513262
513388
513516
513644
513770
513898
514026
514152
514280
514408
514536
514662
514790
514918
515046
515174
515300
515428
515556
515686
515814
515942
516070
516198
516324
516452
516580
516708
516834
516960
517086
517212
517338
517464
517588
517712
517838
517962
518088
518214
518338
518464
518590
518718
518846
518974
519104
519232
519360
519488
519616
519744
519872
520000
520126
520252
520380
520506
520634
520762
520888
521016
521142
521270
521396
521522
521646
521772
521898
522024
522152
522278
522404
522532
522660
522786
522914
523042
523170
523296
523422
523548
523676
523802
523930
524056
524182
524310
524438
524564
524692
524820
524948
525076
525204
525332
525462
525590
525720
525848
525978
526106
526236
526364
526494
526622
526746
526878
527004
527128
527254
527378
527504
527628
527754
527880
528004
528130
528256
528382
528508
528634
528760
528884
529008
529134
529258
529380
529502
529626
529748
529872
529992
530114
530234
530356
530476
530596
530716
530836
530956
531076
531196
531316
531436
531554
531674
531792
531914
532034
532150
532270
532390
532508
532628
532746
532866
532986
533106
533226
533346
533466
533586
533708
533828
533950
534072
534194
534316
534438
534560
534682
534806
534928
535050
535170
535292
535414
535536
535658
535780
535900
536022
536144
536266
536388
536512
536634
536756
536878
537002
537126
537248
537372
537494
537618
537742
537864
537988
538110
538234
538356
538478
538602
538724
538846
538970
539094
539218
539342
539466
539590
539714
539838
539962
540086
540212
540336
540460
540586
540712
540836
540962
541088
541214
541338
541464
541590
541716
541842
541968
542096
542222
542348
542474
542600
542724
542850
542974
543100
543224
543350
543476
543602
543726
543852
543976
544100
544224
544348
544472
544598
544720
544846
544970
545094
545218
545344
545470
545594
545720
545844
545970
546094
546220
546344
546470
546596
546722
546848
546974
547100
547226
547352
547478
547604
547730
547856
547982
548108
548234
548360
548486
548612
548738
548864
548992
549118
549246
549372
549498
549626
549752
549880
550008
550134
550260
550386
550514
550640
550768
550896
551022
551150
551278
551406
551536
551664
551792
551922
552050
552178
552308
552436
552564
552692
552820
552950
553076
553204
553332
553460
553588
553716
553844
553974
554102
554232
554360
554490
554620
554750
554878
555008
555136
555266
555394
555522
555652
555778
555906
556034
556164
556290
556418
556546
556676
556804
556930
557058
557186
557314
557440
557568
557694
557822
557948
558076
558200
558326
558452
558576
558702
558828
558956
559084
559212
559340
559468
559598
559726
559854
559982
560110
560238
560366
560494
560622
560750
560878
561006
561134
561262
561390
561518
561646
561774
561902
562030
562156
562284
562412
562538
562666
562792
562920
563048
563176
563304
563430
563558
563688
563818
563948
564078
564208
564340
564470
564602
564732
564864
564996
565126
565256
565388
565518
565648
565778
565910
566040
566170
566300
566430
566560
566690
566820
566950
567078
567208
567336
567466
567594
567724
567850
567978
568106
568234
568360
568488
568614
568742
568868
568994
569120
569246
569372
569498
569624
569750
569876
570000
570126
570252
570378
570502
570628
570754
570878
571004
571130
571256
571380
571506
571632
571758
571886
572012
572140
572266
572394
572522
572650
572778
572906
573034
573160
573288
573418
573544
573672
573800
573928
574056
574184
574312
574440
574566
574694
574820
574948
575076
575202
575328
575454
575582
575708
575836
575962
576090
576216
576344
576472
576598
576726
576854
576980
577108
577234
577360
577488
577614
577740
577866
577992
578120
578246
578372
578500
578626
578752
578880
579006
579126
579260
579386
579514
579640
579766
579892
580020
580146
580274
580400
580528
580654
580780
580908
581034
581162
581288
581414
581542
581670
581798
581926
582054
582180
582308
582436
582564
582690
582818
582946
583074
583202
583330
583460
583590
583720
583850
583980
584110
584240
584368
584498
584626
584756
584884
585012
585140
585270
585398
585526
585652
585780
585910
586036
586164
586292
586420
586548
586676
586802
586930
587056
587184
587310
587436
587564
587692
587820
587948
588076
588204
588332
588460
588588
588716
588844
588972
589100
589226
589354
589482
589610
589738
589866
589996
590124
590252
590382
590510
590638
590768
590896
591026
591154
591282
591412
591540
591670
591798
591928
592058
592188
592318
592448
592576
592706
592834
592964
593094
593224
593352
593482
593614
593742
593872
594002
594134
594262
594394
594524
594654
594786
594918
595048
595180
595312
595442
595574
595704
595834
595966
596096
596226
596356
596488
596618
596746
596876
597004
597134
597262
597392
597520
597648
597778
597906
598036
598164
598292
598422
598550
598680
598808
598938
599068
599198
599326
599456
599584
599714
599842
599970
600098
600228
600356
600486
600616
600744
600876
601006
601136
601266
601394
601524
601656
601786
601914
602044
602174
602306
602436
602568
602700
602832
602962
603094
603226
603356
603488
603620
603752
603882
604014
604146
604278
604410
604542
604674
604808
604940
605072
605204
605336
605468
605602
605732
605864
605998
606130
606262
606394
606526
606658
606792
606924
607054
607186
607318
607448
607580
607712
607842
607974
608108
608240
608372
608504
608638
608768
608898
609028
609158
609288
609416
609546
609674
609802
609930
610058
610184
610310
610436
610562
610686
610812
610938
611064
611190
611318
611444
611572
611700
611828
611956
612084
612210
612338
612464
612592
612718
612844
612970
613094
613220
613344
613470
613594
613718
613842
613968
614092
614216
614340
614466
614590
614714
614838
614962
615088
615212
615336
615462
615586
615712
615838
615962
616088
616212
616338
616462
616588
616714
616840
616966
617094
617220
617348
617474
617602
617730
617856
617984
618112
618240
618368
618496
618624
618752
618880
619008
619136
619264
619392
619520
619648
619774
619902
620030
620156
620284
620412
620540
620668
620796
620922
621050
621178
621306
621434
621562
621690
621816
621944
622070
622196
622316
622448
622574
622702
622830
622960
623092
623222
623352
623482
623612
623742
623870
623998
624126
624254
624380
624506
624632
624760
624886
625012
625138
625266
625392
625520
625648
625776
625902
626030
626156
626282
626408
626534
626660
626786
626912
627038
627164
627288
627414
627538
627664
627788
627912
628038
628164
628288
628414
628540
628666
628792
628918
629044
629170
629296
629422
629550
629676
629804
629930
630058
630186
630312
630440
630568
630694
630822
630950
631078
631208
631336
631466
631594
631724
631852
631982
632110
632240
632370
632498
632628
632758
632888
633016
633146
633274
633404
633534
633664
633792
633922
634052
634182
634312
634442
634570
634700
634830
634958
635088
635216
635346
635474
635602
635732
635860
635990
636118
636248
636376
636504
636632
636762
636890
637018
637144
637272
637400
637528
637652
637778
637904
638028
638154
638278
638404
638528
638654
638780
638904
639030
639154
639278
639402
639526
639648
639772
639894
640018
640140
640262
640386
640508
640630
640754
640878
641002
641126
641250
641376
641500
641626
641750
641876
642000
642124
642250
642374
642498
642622
642746
642870
642994
643118
643240
643364
643488
643612
643736
643862
643986
644112
644238
644364
644492
644618
644746
644874
645002
645128
645256
645382
645510
645636
645764
645892
646018
646148
646274
646404
646532
646660
646790
646920
647050
647180
647310
647442
647572
647702
647832
647960
648088
648218
648346
648476
648604
648732
648860
648988
649118
649246
649374
649504
649632
649760
649890
650018
650148
650276
650404
650534
650662
650790
650918
651044
651172
651298
651426
651552
651678
651804
651930
652056
652182
652308
652434
652560
652684
652810
652934
653058
653182
653306
653432
653558
653682
653808
653934
654060
654186
654312
654438
654564
654688
654812
654936
655060
655184
655306
655430
655552
655672
655794
655914
656038
656160
656284
656410
656534
656658
656784
656908
657032
657156
657280
657402
657524
657646
657770
657894
658016
658140
658262
658388
658508
658630
658752
658876
658998
659122
659244
659370
659494
659618
659742
659866
659990
660114
660236
660360
660482
660606
660728
660852
660978
661102
661228
661354
661480
661608
661736
661864
661990
662118
662244
662370
662498
662624
662750
662874
662998
663124
663250
663374
663502
663628
663756
663882
664008
664136
664262
664388
664514
664638
664764
664890
665016
665142
665266
665392
665516
665640
665762
665884
666008
666130
666252
666374
666496
666616
666738
666862
666986
667108
667232
667356
667480
667604
667728
667852
667974
668098
668220
668344
668468
668590
668712
668834
668956
669078
669196
669320
669440
669562
669684
669806
669928
670048
670170
670292
670412
670534
670658
670782
670906
671030
671154
671278
671400
671524
671646
671768
671892
672014
672138
672260
672382
672504
672628
672752
672876
673000
673122
673246
673368
673492
673616
673740
673864
673988
674112
674234
674358
674482
674604
674728
674852
674974
675098
675222
675346
675468
675592
675716
675840
675964
676088
676212
676336
676460
676584
676710
676834
676958
677082
677206
677332
677456
677580
677704
677828
677952
678076
678198
678320
678444
678568
678692
678816
678940
679064
679188
679310
679434
679558
679682
679804
679926
680048
680170
680292
680414
680536
680660
680782
680906
681032
681156
681280
681404
681528
681652
681778
681902
682024
682148
682272
682398
682518
682640
682762
682884
683004
683128
683250
683370
683492
683614
683736
683856
683978
684098
684220
684340
684462
684584
684704
684828
684950
685072
685194
685318
685444
685564
685686
685808
685932
686054
686176
686298
686422
686544
686668
686790
686912
687032
687154
687274
687396
687516
687636
687758
687878
687998
688118
688236
688354
688474
688592
688708
688824
688940
689056
689172
689288
689406
689524
689640
689760
689880
690000
690120
690240
690362
690484
690606
690728
690850
690972
691094
691216
691338
691460
691580
691702
691826
691948
692072
692194
692318
692442
692566
692690
692814
692938
693062
693186
693308
693430
693552
693674
693796
693918
694038
694160
694280
694400
694520
694640
694762
694882
695002
695124
695244
695366
695488
695610
695732
695856
695978
696102
696226
696350
696474
696598
696722
696846
696972
697096
697222
697346
697472
697598
697724
697850
697976
698100
698226
698352
698476
698602
698724
698848
698972
699096
699222
699346
699472
699596
699724
699850
699978
700104
700232
700360
700488
700616
700744
700872
701000
701128
701256
701382
701508
701634
701760
701886
702012
702138
702262
702386
702510
702634
702758
702880
703004
703129
703250
703372
703496
703620
703744
703868
703992
704116
704240
704366
704492
704616
704742
704868
704994
705120
705244
705370
705494
705618
705742
705864
705988
706110
706234
706356
706478
706600
706722
706844
706964
707086
707208
707336
707454
707578
707702
707828
707954
708078
708204
708328
708452
708576
708700
708824
708948
709072
709198
709322
709446
709570
709696
709820
709946
710070
710194
710316
710442
710566
710688
710814
710938
711062
711186
711310
711436
711560
711686
711812
711938
712066
712192
712318
712442
712568
712692
712816
712940
713064
713188
713312
713434
713558
713680
713804
713926
714048
714168
714288
714410
714530
714652
714772
714894
715014
715136
715256
715378
715500
715620
715742
715864
715984
716106
716230
716352
716476
716598
716722
716846
716970
717094
717218
717342
717464
717588
717712
717838
717962
718088
718212
718338
718464
718592
718720
718848
718976
719106
719236
719366
719494
719626
719756
719886
720016
720146
720276
720404
720534
720664
720792
720922
721050
721178
721310
721438
721568
721696
721826
721954
722082
722210
722340
722468
722596
722724
722854
722982
723112
723240
723366
723494
723622
723750
723876
724000
724126
724250
724374
724500
724624
724748
724870
724992
725114
725236
725358
725480
725602
725724
725848
725972
726098
726222
726348
726472
726598
726722
726848
726974
727100
727226
727352
727478
727604
727730
727854
727980
728106
728230
728356
728482
728606
728732
728856
728980
729102
729226
729348
729470
729592
729714
729836
729956
730078
730198
730320
730442
730564
730686
730810
730934
731058
731182
731308
731434
731560
731688
731814
731944
732070
732198
732326
732452
732580
732706
732832
732958
733084
733210
733336
733462
733590
733716
733844
733972
734098
734226
734350
734476
734604
734730
734856
734982
735108
735236
735360
735488
735614
735742
735870
735998
736126
736254
736382
736510
736636
736764
736892
737020
737146
737272
737398
737524
737650
737776
737902
738028
738154
738280
738406
738532
738656
738782
738908
739034
739160
739286
739412
739538
739664
739790
739918
740044
740172
740298
740424
740552
740678
740804
740930
741058
741184
741310
741438
741564
741688
741814
741940
742066
742190
742316
742442
742566
742690
742814
742940
743064
743186
743308
743430
743554
743676
743796
743918
744040
744160
744282
744402
744524
744644
744764
744884
745004
745124
745246
745366
745486
745608
745728
745850
745972
746094
746218
746340
746464
746586
746710
746834
746958
747084
747208
747332
747458
747582
747706
747830
747954
748078
748200
748324
748442
748566
748696
748820
748944
749068
749192
749316
749440
749564
749688
749810
749934
750056
750178
750302
750424
750548
750670
750794
750916
751040
751162
751286
751408
751530
751652
751774
751898
752020
752142
752262
752384
752506
752630
752752
752874
752996
753118
753242
753364
753486
753610
753732
753856
753978
754102
754226
754348
754472
754596
754718
754842
754966
755090
755214
755336
755460
755582
755706
755828
755952
756074
756198
756322
756446
756570
756694
756818
756942
757066
757190
757314
757438
757560
757684
757806
757928
758052
758174
758296
758420
758544
758666
758790
758912
759036
759160
759282
759406
759528
759652
759774
759898
760022
760146
760268
760392
760516
760640
760762
760886
761008
761132
761254
761376
761500
761622
761746
761868
761990
762112
762236
762358
762482
762604
762726
762850
762974
763096
763218
763342
763466
763588
763710
763834
763956
764080
764202
764326
764450
764574
764700
764824
764948
765072
765196
765320
765444
765566
765690
765812
765936
766058
766180
766302
766426
766548
766670
766792
766914
767036
767158
767280
767402
767526
767648
767772
767896
768020
768144
768270
768394
768520
768646
768772
768898
769024
769150
769276
769402
769526
769650
769774
769898
770022
770146
770270
770394
770520
770644
770768
770892
771016
771140
771262
771386
771510
771632
771756
771878
772002
772126
772250
772374
772496
772620
772744
772866
772990
773112
773234
773354
773476
773596
773718
773840
773962
774080
774200
774320
774440
774560
774680
774800
774920
775040
775160
775280
775400
775520
775640
775760
775878
775998
776116
776234
776354
776472
776590
776708
776826
776944
777062
777178
777296
777414
777532
777648
777766
777884
778002
778118
778234
778350
778464
778580
778694
778810
778926
779042
779158
779276
779392
779510
779628
779748
779866
779986
780106
780224
780344
780464
780584
780704
780822
780942
781062
781180
781300
781420
781538
781658
781776
781894
782014
782132
782252
782372
782488
782606
782724
782842
782962
783080
783196
783316
783434
783552
783672
783790
783906
784024
784142
784260
784376
784494
784610
784726
784842
784958
785076
785192
785306
785422
785538
785652
785766
785882
785996
786112
786226
786340
786454
786570
786684
786796
786910
787024
787138
787252
787366
787480
787594
787706
787820
787932
788042
788160
788272
788386
788498
788612
788724
788838
788948
789062
789176
789290
789402
789516
789630
789746
789860
789974
790086
790200
790314
790428
790542
790656
790770
790884
790998
791112
791226
791340
791454
791570
791682
791794
791910
792022
792136
792248
792362
792474
792588
792702
792814
792928
793044
793158
793272
793388
793502
793618
793732
793846
793960
794074
794188
794302
794416
794530
794644
794758
794872
794986
795098
795212
795328
795440
795556
795670
795784
795900
796014
796130
796244
796360
796478
796590
796706
796822
796936
797050
797166
797282
797396
797512
797626
797742
797860
797976
798092
798208
798324
798440
798556
798672
798788
798904
799018
799136
799250
799368
799484
799600
799716
799830
799948
800064
800180
800296
800412
800526
800644
800758
800872
800988
801102
801214
801326
801440
801554
801670
801784
801900
802014
802130
802244
802360
802476
802592
802706
802822
802936
803050
803166
803280
803394
803508
803622
803738
803854
803968
804084
804200
804316
804434
804550
804668
804786
804906
805024
805144
805264
805384
805504
805622
805742
805858
805978
806096
806214
806332
806450
806568
806686
806802
806920
807038
807156
807274
807394
807510
807630
807748
807866
807984
808102
808220
808338
808454
808572
808688
808804
808918
809034
809150
809266
809380
809496
809610
809726
809840
809956
810072
810184
810300
810416
810530
810642
810756
810872
810984
811098
811212
811328
811444
811560
811676
811790
811904
812018
812132
812246
812360
812476
812592
812708
812824
812938
813054
813170
813284
813400
813516
813632
813748
813864
813980
814096
814212
814328
814444
814560
814674
814790
814904
815018
815130
815246
815360
815476
815590
815706
815822
815938
816056
816170
816288
816404
816520
816636
816754
816868
816986
817104
817220
817338
817454
817570
817686
817802
817918
818036
818152
818268
818384
818500
818616
818730
818848
818964
819080
819196
819310
819424
819542
819656
819770
819886
820002
820118
820236
820350
820466
820582
820696
820812
820928
821042
821156
821270
821382
821496
821610
821726
821840
821954
822068
822182
822296
822410
822524
822638
822752
822866
822980
823094
823210
823326
823440
823554
823668
823782
823896
824010
824124
824236
824350
824464
824578
824692
824806
824920
825034
825148
825262
825374
825486
825600
825714
825826
825940
826054
826168
826282
826396
826508
826622
826736
826850
826964
827078
827192
827306
827420
827534
827648
827762
827876
827990
828104
828220
828336
828450
828564
828680
828796
828912
829026
829142
829256
829372
829488
829602
829716
829832
829948
830062
830178
830294
830408
830522
830638
830754
830870
830986
831100
831216
831330
831446
831562
831674
831790
831906
832020
832134
832250
832364
832478
832592
832706
832820
832934
833048
833162
833276
833390
833506
833620
833732
833846
833960
834074
834188
834304
834418
834532
834646
834760
834876
834988
835102
835216
835330
835444
835558
835674
835786
835900
836014
836128
836242
836354
836468
836582
836696
836808
836922
837036
837150
837264
837376
837490
837602
837716
837828
837942
838054
838166
838280
838392
838504
838614
838728
838840
838952
839064
839178
839290
839402
839514
839626
839738
839850
839964
840076
840188
840300
840412
840524
840636
840746
840860
840972
841084
841196
841308
841422
841532
841644
841756
841868
841980
842094
842206
842318
842432
842544
842656
842768
842880
842994
843108
843220
843332
843446
843558
843672
843784
843896
844012
844124
844236
844350
844464
844578
844690
844802
844916
845028
845142
845256
845368
845480
845594
845706
845818
845930
846044
846158
846268
846380
846494
846606
846718
846830
846942
847056
847168
847276
847394
847506
847616
847730
847842
847954
848068
848180
848292
848404
848516
848628
848742
848854
848966
849078
849192
849298
849416
849528
849642
849754
849868
849980
850094
850206
850318
850432
850546
850658
850772
850884
850998
851110
851222
851336
851450
851562
851674
851788
851900
852012
852124
852236
852350
852462
852574
852688
852800
852912
853024
853136
853250
853362
853476
853588
853700
853814
853926
854038
854152
854264
854378
854490
854604
854718
854830
854944
855058
855170
855284
855398
855512
855626
855738
855854
855968
856082
856196
856310
856422
856536
856650
856764
856878
856992
857104
857216
857330
857444
857556
857668
857782
857894
858006
858118
858232
858342
858454
858566
858678
858790
858902
859012
859124
859234
859346
859458
859568
859680
859790
859900
860012
860122
860234
860344
860454
860564
860674
860786
860896
861006
861118
861228
861340
861450
861560
861672
861782
861892
862004
862114
862224
862336
862446
862558
862668
862780
862892
863002
863112
863224
863334
863444
863556
863666
863776
863886
863998
864108
864216
864326
864436
864548
864656
864766
864876
864986
865096
865206
865316
865426
865536
865646
865756
865866
865976
866086
866196
866306
866416
866526
866638
866748
866858
866970
867080
867190
867300
867410
867520
867632
867742
867852
867962
868072
868182
868292
868402
868512
868620
868730
868840
868950
869060
869170
869280
869392
869498
869608
869716
869828
869938
870048
870158
870268
870376
870486
870601
870710
870816
870926
871036
871146
871256
871366
871476
871586
871696
871806
871916
872026
872136
872246
872358
872468
872576
872688
872798
872908
873018
873130
873240
873350
873462
873574
873684
873796
873906
874018
874128
874240
874350
874462
874574
874684
874794
874906
875018
875128
875240
875352
875464
875576
875690
875802
875914
876024
876136
876248
876358
876470
876582
876694
876804
876916
877028
877142
877252
877364
877476
877588
877700
877812
877924
878036
878146
878258
878368
878480
878592
878702
878814
878924
879036
879148
879258
879370
879480
879592
879702
879814
879924
880034
880146
880256
880368
880478
880590
880700
880812
880922
881034
881146
881258
881370
881482
881592
881704
881816
881928
882040
882152
882262
882372
882484
882596
882706
882818
882930
883040
883150
883260
883372
883482
883594
883704
883814
883926
884036
884148
884258
884370
884480
884592
884702
884814
884926
885038
885148
885258
885370
885480
885590
885702
885812
885922
886034
886144
886256
886368
886480
886592
886704
886816
886930
887042
887154
887268
887380
887492
887606
887718
887830
887942
888054
888168
888278
888392
888504
888618
888730
888842
888954
889066
889178
889292
889404
889518
889630
889742
889856
889968
890082
890194
890308
890422
890536
890650
890764
890878
890990
891104
891218
891330
891444
891558
891670
891782
891896
892010
892122
892234
892346
892458
892570
892684
892794
892906
893018
893130
893240
893352
893464
893574
893686
893798
893908
894020
894130
894242
894352
894464
894574
894684
894796
894906
895016
895128
895240
895350
895460
895570
895680
895790
895900
896010
896118
896228
896338
896446
896554
896662
896772
896882
896990
897098
897206
897316
897426
897536
897646
897754
897864
897974
898084
898194
898304
898414
898524
898634
898742
898850
898960
899070
899178
899286
899396
899504
899612
899720
899828
899936
900048
900152
900260
900366
900474
900582
900690
900798
900906
901014
901120
901228
901336
901444
901552
901660
901768
901876
901986
902094
902202
902308
902416
902526
902632
902740
902848
902956
903062
903170
903278
903386
903492
903598
903706
903814
903922
904028
904136
904244
904350
904458
904566
904674
904780
904888
904996
905104
905212
905320
905428
905536
905642
905750
905858
905966
906072
906180
906288
906394
906502
906610
906716
906824
906932
907038
907146
907254
907362
907470
907578
907686
907794
907902
908010
908118
908226
908334
908442
908548
908656
908766
908872
908982
909090
909196
909304
909412
909522
909630
909738
909848
909956
910066
910174
910284
910394
910502
910612
910722
910832
910942
911052
911160
911270
911380
911492
911602
911710
911822
911932
912042
912154
912266
912376
912488
912600
912710
912820
912932
913044
913154
913266
913378
913488
913598
913710
913824
913934
914046
914160
914272
914382
914496
914608
914720
914834
914948
915060
915172
915286
915400
915514
915628
915740
915854
915968
916080
916194
916308
916422
916534
916648
916762
916874
916988
917102
917216
917328
917442
917554
917666
917778
917892
918006
918118
918232
918346
918458
918574
918686
918800
918914
919026
919140
919254
919368
919480
919594
919708
919822
919936
920050
920164
920276
920390
920504
920618
920732
920844
920956
921068
921180
921294
921406
921518
921630
921744
921854
921966
922078
922190
922302
922414
922526
922638
922748
922860
922972
923084
923196
923308
923420
923530
923640
923752
923864
923974
924086
924198
924308
924420
924532
924644
924754
924866
924976
925088
925198
925310
925422
925532
925642
925754
925866
925976
926086
926196
926308
926418
926530
926640
926750
926862
926972
927080
927192
927302
927412
927524
927634
927744
927854
927966
928076
928186
928296
928408
928518
928628
928740
928850
928960
929072
929182
929294
929404
929514
929626
929736
929846
929958
930070
930180
930290
930400
930510
930622
930732
930842
930954
931066
931176
931286
931402
931508
931618
931728
931838
931948
932058
932168
932278
932388
932498
932608
932718
932828
932936
933046
933156
933266
933376
933484
933594
933704
933814
933924
934036
934144
934256
934366
934476
934586
934696
934808
934918
935028
935138
935248
935358
935468
935578
935688
935798
935908
936018
936128
936238
936348
936458
936568
936678
936788
936898
937008
937118
937226
937336
937446
937558
937666
937774
937884
937996
938104
938214
938324
938434
938544
938654
938764
938874
938984
939094
939204
939314
939422
939534
939642
939754
939864
939974
940082
940194
940304
940414
940524
940632
940744
940854
940964
941074
941184
941294
941404
941514
941624
941734
941846
941956
942066
942176
942286
942398
942508
942618
942728
942838
942950
943061
943172
943282
943392
943502
943612
943724
943834
943944
944054
944164
944274
944384
944496
944606
944716
944826
944936
945048
945158
945270
945380
945490
945602
945712
945822
945932
946042
946152
946262
946372
946482
946592
946702
946812
946922
947032
947142
947252
947362
947472
947582
947692
947802
947910
948020
948130
948238
948348
948458
948566
948676
948786
948896
949004
949114
949224
949332
949442
949552
949662
949770
949880
949990
950098
950208
950316
950426
950536
950652
950754
950864
950972
951082
951192
951302
951410
951520
951630
951740
951850
951958
952068
952178
952288
952398
952508
952618
952726
952836
952946
953056
953166
953276
953384
953494
953604
953714
953824
953932
954042
954152
954260
954372
954480
954590
954698
954810
954920
955030
955140
955250
955360
955470
955580
955692
955802
955912
956022
956132
956242
956352
956462
956572
956682
956792
956902
957014
957122
957232
957342
957452
957562
957672
957782
957890
958000
958110
958222
958332
958442
958552
958664
958774
958886
958996
959106
959216
959326
959436
959546
959656
959766
959876
959986
960098
960208
960318
960430
960542
960652
960762
960872
960984
961094
961206
961316
961426
961536
961646
961756
961866
961976
962086
962196
962306
962416
962524
962634
962744
962856
962964
963074
963184
963294
963406
963514
963624
963734
963844
963954
964062
964172
964282
964392
964502
964612
964722
964830
964942
965052
965160
965270
965378
965488
965598
965708
965818
965926
966036
966146
966256
966366
966476
966586
966694
966804
966914
967022
967132
967240
967350
967460
967568
967678
967790
967900
968010
968120
968230
968340
968450
968560
968670
968780
968890
969000
969108
969218
969328
969438
969546
969656
969764
969874
969982
970090
970200
970308
970416
970526
970634
970742
970852
970962
971070
971178
971286
971396
971506
971614
971724
971832
971942
972052
972162
972272
972382
972492
972602
972712
972824
972934
973044
973154
973266
973378
973488
973600
973710
973822
973934
974044
974156
974268
974378
974490
974602
974712
974824
974936
975046
975158
975268
975380
975490
975602
975712
975824
975934
976044
976156
976266
976378
976488
976598
976710
976820
976932
977042
977152
977262
977374
977484
977594
977704
977816
977926
978038
978150
978260
978370
978480
978592
978704
978814
978924
979036
979148
979260
979372
979482
979594
979704
979816
979926
980038
980148
980258
980370
980480
980592
980702
980812
980924
981034
981146
981256
981368
981480
981592
981704
981816
981928
982038
982150
982262
982372
982482
982592
982702
982814
982924
983036
983146
983258
983370
983480
983590
983702
983814
983924
984036
984146
984256
984368
984480
984590
984702
984812
984922
985034
985144
985254
985366
985476
985586
985696
985808
985918
986030
986140
986252
986362
986474
986586
986698
986810
986922
987034
987146
987256
987368
987478
987590
987702
987812
987922
988032
988142
988252
988362
988472
988582
988690
988800
988910
989020
989128
989238
989346
989456
989564
989672
989782
989890
990000
990108
990218
990328
990436
990546
990656
990766
990874
990984
991094
991202
991310
991420
991528
991638
991748
991858
991966
992076
992184
992294
992404
992514
992624
992736
992848
992962
993078
993192
993308
993424
993538
993654
993770
993888
994004
994120
994236
994352
994468
994584
994698
994814
994930
995044
995158
995274
995388
995502
995616
995730
995844
995960
996074
996190
996304
996418
996534
996648
996764
996878
996994
997112
997222
997336
997452
997566
997680
997794
997910
998024
998138
998252
998366
998482
998596
998710
998824
998938
999052
999166
999280
999394
999506
999620
999734
999846
999960
1000074
1000186
1000300
1000412
1000526
1000638
1000750
1000864
1000976
1001088
1001202
1001314
1001426
1001538
1001650
1001762
1001874
1001986
1002098
1002210
1002322
1002436
1002548
1002662
1002774
1002888
1003002
1003114
1003228
1003342
1003454
1003566
1003680
1003794
1003906
1004018
1004130
1004244
1004356
1004468
1004580
1004692
1004804
1004918
1005028
1005142
1005252
1005364
1005476
1005588
1005700
1005812
1005924
1006034
1006146
1006258
1006368
1006480
1006590
1006702
1006814
1006926
1007036
1007148
1007258
1007370
1007480
1007590
1007702
1007814
1007924
1008036
1008146
1008258
1008368
1008480
1008590
1008702
1008812
1008924
1009036
1009146
1009258
1009370
1009480
1009592
1009702
1009812
1009922
1010034
1010146
1010256
1010366
1010476
1010588
1010698
1010808
1010918
1011028
1011138
1011248
1011358
1011468
1011578
1011688
1011800
1011910
1012018
1012128
1012238
1012348
1012458
1012568
1012678
1012788
1012898
1013008
1013118
1013228
1013338
1013446
1013556
1013666
1013776
1013886
1013994
1014106
1014214
1014324
1014436
1014546
1014656
1014766
1014878
1014988
1015098
1015208
1015320
1015430
1015540
1015652
1015762
1015874
1015982
1016094
1016204
1016316
1016424
1016534
1016646
1016756
1016866
1016978
1017088
1017198
1017308
1017418
1017528
1017638
1017748
1017858
1017968
1018078
1018188
1018298
1018410
1018520
1018630
1018740
1018850
1018962
1019072
1019182
1019292
1019402
1019512
1019622
1019732
1019842
1019954
1020064
1020174
1020284
1020394
1020504
1020614
1020724
1020834
1020946
1021056
1021166
1021276
1021386
1021498
1021608
1021718
1021828
1021940
1022050
1022162
1022272
1022382
1022494
1022604
1022716
1022826
1022938
1023048
1023162
1023274
1023386
1023498
1023610
1023722
1023834
1023946
1024058
1024170
1024282
1024392
1024504
1024616
1024726
1024836
1024946
1025056
1025166
1025278
1025388
1025498
1025610
1025720
1025830
1025942
1026054
1026164
1026276
1026386
1026496
1026608
1026718
1026828
1026940
1027050
1027160
1027270
1027380
1027490
1027598
1027710
1027820
1027928
1028038
1028148
1028258
1028368
1028478
1028588
1028698
1028808
1028918
1029026
1029136
1029246
1029356
1029466
1029574
1029684
1029794
1029904
1030014
1030124
1030234
1030346
1030456
1030566
1030676
1030788
1030898
1031008
1031118
1031228
1031338
1031448
1031558
1031668
1031778
1031888
1031998
1032108
1032218
1032328
1032438
1032548
1032658
1032768
1032878
1032988
1033100
1033210
1033318
1033428
1033538
1033648
1033758
1033868
1033978
1034088
1034198
1034308
1034418
1034528
1034638
1034746
1034856
1034966
1035076
1035184
1035294
1035404
1035514
1035622
1035732
1035842
1035952
1036062
1036172
1036280
1036390
1036500
1036608
1036718
1036826
1036936
1037046
1037154
1037264
1037374
1037484
1037594
1037704
1037814
1037924
1038032
1038142
1038250
1038360
1038468
1038578
1038686
1038796
1038906
1039014
1039122
1039232
1039342
1039450
1039560
1039668
1039776
1039886
1039996
1040104
1040214
1040322
1040432
1040542
1040650
1040760
1040868
1040978
1041086
1041194
1041304
1041414
1041522
1041630
1041740
1041848
1041958
1042066
1042174
1042282
1042392
1042500
1042608
1042718
1042826
1042934
1043042
1043150
1043260
1043368
1043476
1043584
1043692
1043802
1043910
1044018
1044126
1044234
1044342
1044450
1044558
1044668
1044776
1044884
1044992
1045100
1045208
1045316
1045424
1045532
1045640
1045748
1045856
1045962
1046070
1046178
1046286
1046394
1046502
1046610
1046716
1046824
1046932
1047038
1047146
1047252
1047360
1047468
1047574
1047682
1047790
1047896
1048004
1048110
1048218
1048326
1048432
1048538
1048646
1048752
1048858
1048966
1049072
1049180
1049286
1049394
1049500
1049606
1049712
1049818
1049924
1050030
1050136
1050242
1050348
1050454
1050560
1050668
1050776
1050880
1050988
1051094
1051202
1051308
1051416
1051522
1051630
1051736
1051842
1051948
1052056
1052162
1052268
1052374
1052480
1052586
1052692
1052798
1052906
1053010
1053118
1053222
1053330
1053436
1053542
1053648
1053754
1053860
1053966
1054072
1054180
1054286
1054392
1054500
1054606
1054712
1054820
1054928
1055036
1055144
1055252
1055358
1055466
1055576
1055684
1055792
1055900
1056008
1056116
1056224
1056332
1056440
1056548
1056656
1056764
1056872
1056980
1057088
1057196
1057304
1057412
1057520
1057630
1057736
1057846
1057954
1058062
1058170
1058278
1058386
1058494
1058602
1058712
1058820
1058928
1059036
1059144
1059252
1059360
1059468
1059578
1059686
1059796
1059904
1060012
1060120
1060230
1060338
1060448
1060556
1060664
1060774
1060882
1060990
1061100
1061208
1061318
1061428
1061536
1061644
1061754
1061864
1061972
1062082
1062192
1062302
1062412
1062522
1062630
1062740
1062850
1062958
1063068
1063178
1063288
1063396
1063506
1063616
1063726
1063834
1063944
1064054
1064164
1064274
1064382
1064492
1064602
1064710
1064820
1064928
1065036
1065144
1065252
1065362
1065470
1065578
1065686
1065796
1065904
1066012
1066120
1066228
1066336
1066444
1066552
1066662
1066768
1066876
1066986
1067094
1067202
1067310
1067418
1067524
1067632
1067738
1067846
1067954
1068062
1068170
1068276
1068389
1068494
1068602
1068710
1068818
1068926
1069034
1069142
1069250
1069358
1069466
1069574
1069682
1069790
1069898
1070006
1070114
1070222
1070330
1070438
1070546
1070654
1070762
1070870
1070978
1071086
1071194
1071302
1071410
1071518
1071624
1071732
1071840
1071946
1072054
1072160
1072268
1072376
1072482
1072590
1072696
1072802
1072908
1073016
1073122
1073228
1073334
1073440
1073546
1073652
1073756
1073862
1073968
1074072
1074178
1074284
1074390
1074494
1074600
1074704
1074810
1074914
1075018
1075124
1075228
1075332
1075436
1075542
1075646
1075750
1075854
1075958
1076062
1076168
1076272
1076376
1076482
1076586
1076690
1076796
1076898
1077004
1077108
1077214
1077316
1077420
1077526
1077630
1077734
1077838
1077942
1078046
1078150
1078254
1078358
1078462
1078566
1078670
1078774
1078878
1078982
1079086
1079188
1079292
1079396
1079500
1079604
1079708
1079810
1079916
1080020
1080124
1080226
1080330
1080436
1080540
1080644
1080748
1080854
1080958
1081064
1081168
1081272
1081378
1081482
1081586
1081690
1081794
1081900
1082004
1082108
1082214
1082318
1082422
1082528
1082634
1082738
1082842
1082948
1083054
1083160
1083266
1083370
1083476
1083582
1083688
1083792
1083898
1084004
1084110
1084216
1084322
1084428
1084534
1084638
1084744
1084850
1084954
1085060
1085166
1085272
1085378
1085484
1085592
1085698
1085804
1085908
1086014
1086120
1086226
1086332
1086438
1086546
1086652
1086760
1086868
1086976
1087084
1087192
1087300
1087410
1087518
1087628
1087736
1087844
1087954
1088062
1088172
1088280
1088388
1088496
1088604
1088712
1088820
1088926
1089034
1089140
1089248
1089354
1089462
1089568
1089676
1089784
1089890
1089998
1090104
1090212
1090318
1090426
1090534
1090640
1090748
1090854
1090960
1091068
1091174
1091282
1091388
1091496
1091602
1091710
1091818
1091926
1092032
1092140
1092246
1092354
1092462
1092568
1092674
1092780
1092888
1092992
1093098
1093204
1093308
1093414
1093520
1093624
1093730
1093834
1093940
1094044
1094148
1094254
1094358
1094464
1094570
1094674
1094780
1094886
1094990
1095096
1095202
1095306
1095412
1095516
1095624
1095730
1095836
1095942
1096048
1096154
1096260
1096368
1096474
1096580
1096688
1096794
1096902
1097008
1097114
1097222
1097328
1097436
1097542
1097650
1097756
1097864
1097972
1098078
1098186
1098292
1098398
1098506
1098612
1098720
1098826
1098934
1099040
1099146
1099254
1099360
1099466
1099574
1099680
1099786
1099894
1100002
1100108
1100216
1100322
1100430
1100536
1100644
1100750
1100856
1100964
1101072
1101178
1101286
1101392
1101500
1101606
1101714
1101820
1101926
1102032
1102138
1102244
1102352
1102458
1102564
1102670
1102776
1102882
1102990
1103094
1103202
1103308
1103412
1103518
1103624
1103730
1103836
1103940
1104046
1104152
1104256
1104362
1104468
1104574
1104678
1104784
1104890
1104996
1105102
1105208
1105314
1105422
1105528
1105636
1105742
1105848
1105954
1106062
1106170
1106276
1106382
1106488
1106594
1106700
1106806
1106912
1107018
1107124
1107232
1107338
1107444
1107552
1107658
1107764
1107870
1107978
1108084
1108190
1108296
1108402
1108508
1108614
1108720
1108828
1108934
1109042
1109148
1109256
1109362
1109468
1109574
1109680
1109786
1109894
1110002
1110106
1110214
1110322
1110428
1110536
1110644
1110752
1110858
1110966
1111074
1111180
1111288
1111394
1111500
1111606
1111712
1111816
1111922
1112030
1112136
1112242
1112350
1112456
1112562
1112668
1112774
1112880
1112988
1113096
1113204
1113312
1113420
1113528
1113636
1113744
1113850
1113958
1114066
1114176
1114282
1114390
1114500
1114608
1114716
1114824
1114932
1115040
1115148
1115254
1115362
1115470
1115578
1115686
1115794
1115902
1116012
1116118
1116226
1116334
1116442
1116548
1116656
1116764
1116870
1116978
1117084
1117192
1117298
1117406
1117514
1117620
1117726
1117834
1117942
1118048
1118154
1118262
1118368
1118474
1118580
1118686
1118799
1118901
1119010
1119108
1119214
1119318
1119424
1119528
1119634
1119740
1119848
1119956
1120062
1120170
1120278
1120386
1120496
1120604
1120712
1120820
1120930
1121038
1121146
1121256
1121364
1121472
1121582
1121690
1121800
1121908
1122016
1122126
1122232
1122340
1122448
1122556
1122662
1122770
1122876
1122984
1123090
1123196
1123302
1123410
1123516
1123622
1123728
1123834
1123940
1124048
1124156
1124262
1124370
1124478
1124586
1124694
1124802
1124910
1125018
1125126
1125232
1125340
1125448
1125556
1125666
1125774
1125882
1125992
1126102
1126210
1126320
1126430
1126538
1126648
1126756
1126866
1126974
1127084
1127192
1127302
1127410
1127520
1127628
1127736
1127844
1127952
1128060
1128168
1128276
1128382
1128488
1128596
1128702
1128810
1128918
1129024
1129132
1129238
1129346
1129452
1129560
1129668
1129774
1129880
1129986
1130094
1130200
1130306
1130414
1130520
1130629
1130734
1130842
1130952
1131054
1131162
1131268
1131376
1131482
1131588
1131694
1131800
1131906
1132014
1132120
1132228
1132334
1132442
1132548
1132656
1132762
1132870
1132976
1133084
1133190
1133296
1133404
1133510
1133616
1133722
1133830
1133936
1134044
1134150
1134258
1134364
1134472
1134580
1134686
1134794
1134902
1135012
1135120
1135230
1135338
1135446
1135556
1135664
1135774
1135882
1135990
1136100
1136208
1136316
1136426
1136536
1136644
1136754
1136862
1136970
1137080
1137188
1137298
1137406
1137516
1137624
1137728
1137842
1137950
1138058
1138166
1138276
1138384
1138492
1138600
1138708
1138816
1138924
1139030
1139138
1139246
1139352
1139460
1139566
1139674
1139780
1139886
1139994
1140100
1140208
1140314
1140422
1140528
1140636
1140744
1140852
1140960
1141068
1141176
1141282
1141390
1141496
1141606
1141712
1141818
1141926
1142032
1142140
1142246
1142354
1142460
1142568
1142674
1142782
1142890
1142998
1143106
1143214
1143322
1143430
1143540
1143648
1143756
1143866
1143974
1144084
1144194
1144304
1144414
1144524
1144634
1144744
1144854
1144964
1145072
1145180
1145288
1145398
1145506
1145616
1145726
1145836
1145946
1146056
1146168
1146278
1146388
1146502
1146608
1146716
1146826
1146936
1147046
1147154
1147264
1147372
1147482
1147592
1147702
1147810
1147920
1148030
1148138
1148246
1148354
1148462
1148570
1148678
1148788
1148896
1149002
1149110
1149218
1149326
1149434
1149544
1149652
1149762
1149870
1149980
1150090
1150198
1150308
1150416
1150526
1150634
1150744
1150852
1150960
1151070
1151180
1151290
1151400
1151510
1151620
1151732
1151840
1151952
1152060
1152170
1152280
1152388
1152498
1152606
1152714
1152824
1152932
1153040
1153150
1153258
1153366
1153474
1153584
1153692
1153804
1153912
1154022
1154132
1154242
1154352
1154462
1154572
1154682
1154792
1154902
1155012
1155122
1155230
1155340
1155448
1155556
1155664
1155772
1155880
1155988
1156096
1156204
1156312
1156422
1156532
1156640
1156750
1156860
1156970
1157080
1157190
1157300
1157408
1157518
1157626
1157736
1157846
1157954
1158062
1158172
1158278
1158390
1158498
1158608
1158716
1158826
1158936
1159044
1159154
1159262
1159372
1159482
1159590
1159700
1159808
1159916
1160026
1160134
1160244
1160354
1160466
1160576
1160691
1160798
1160908
1161022
1161134
1161244
1161356
1161468
1161578
1161690
1161802
1161914
1162026
1162138
1162250
1162362
1162474
1162586
1162698
1162810
1162922
1163034
1163144
1163258
1163368
1163480
1163592
1163702
1163812
1163922
1164032
1164142
1164252
1164362
1164472
1164582
1164692
1164802
1164912
1165024
1165136
1165246
1165358
1165470
1165580
1165692
1165804
1165916
1166028
1166140
1166252
1166362
1166474
1166586
1166698
1166810
1166922
1167032
1167144
1167256
1167366
1167478
1167590
1167700
1167810
1167922
1168032
1168144
1168254
1168366
1168478
1168590
1168702
1168812
1168924
1169034
1169146
1169256
1169368
1169480
1169592
1169704
1169816
1169928
1170040
1170152
1170264
1170376
1170488
1170598
1170710
1170820
1170932
1171040
1171150
1171262
1171372
1171482
1171592
1171700
1171810
1171920
1172030
1172140
1172250
1172360
1172470
1172580
1172690
1172800
1172912
1173022
1173132
1173242
1173354
1173464
1173574
1173686
1173796
1173906
1174018
1174128
1174240
1174350
1174462
1174572
1174684
1174794
1174904
1175016
1175126
1175238
1175348
1175458
1175570
1175682
1175792
1175904
1176014
1176124
1176234
1176346
1176456
1176564
1176674
1176784
1176896
1177006
1177116
1177228
1177338
1177452
1177562
1177676
1177788
1177900
1178012
1178124
1178236
1178348
1178462
1178574
1178688
1178802
1178914
1179028
1179140
1179254
1179368
1179480
1179594
1179706
1179818
1179932
1180044
1180158
1180270
1180382
1180494
1180608
1180720
1180832
1180944
1181056
1181168
1181282
1181394
1181506
1181618
1181730
1181842
1181954
1182066
1182176
1182288
1182400
1182512
1182622
1182734
1182846
1182956
1183068
1183180
1183290
1183400
1183510
1183618
1183728
1183838
1183948
1184056
1184166
1184276
1184386
1184496
1184608
1184716
1184826
1184936
1185046
1185156
1185268
1185378
1185490
1185600
1185710
1185822
1185932
1186044
1186156
1186268
1186382
1186496
1186608
1186723
1186834
1186946
1187060
1187174
1187288
1187402
1187516
1187630
1187744
1187856
1187972
1188086
1188200
1188314
1188428
1188542
1188658
1188772
1188886
1189000
1189116
1189230
1189346
1189460
1189576
1189692
1189806
1189922
1190036
1190152
1190266
1190380
1190496
1190610
1190726
1190840
1190954
1191070
1191184
1191298
1191414
1191528
1191642
1191756
1191872
1191986
1192100
1192216
1192330
1192446
1192560
1192676
1192790
1192906
1193022
1193138
1193254
1193370
1193486
1193602
1193720
1193836
1193952
1194068
1194184
1194300
1194416
1194532
1194650
1194766
1194880
1194996
1195112
1195228
1195344
1195460
1195576
1195692
1195808
1195922
1196038
1196154
1196268
1196384
1196500
1196614
1196730
1196846
1196960
1197076
1197192
1197308
1197422
1197538
1197654
1197770
1197886
1198002
1198116
1198232
1198348
1198464
1198580
1198696
1198812
1198930
1199046
1199162
1199278
1199394
1199510
1199626
1199740
1199856
1199972
1200088
1200204
1200320
1200436
1200552
1200668
1200784
1200900
1201018
1201134
1201250
1201368
1201484
1201600
1201716
1201834
1201950
1202066
1202184
1202300
1202418
1202534
1202650
1202768
1202884
1203002
1203118
1203236
1203352
1203470
1203586
1203702
1203820
1203936
1204052
1204158
1204284
1204400
1204518
1204634
1204750
1204866
1204980
1205096
1205212
1205326
1205442
1205558
1205674
1205788
1205904
1206020
1206134
1206250
1206364
1206480
1206594
1206710
1206826
1206940
1207056
1207172
1207288
1207404
1207520
1207636
1207752
1207870
1207986
1208102
1208220
1208336
1208452
1208568
1208684
1208800
1208916
1209032
1209148
1209264
1209380
1209496
1209612
1209728
1209846
1209962
1210078
1210196
1210312
1210430
1210546
1210664
1210780
1210898
1211016
1211132
1211250
1211366
1211484
1211600
1211718
1211834
1211950
1212066
1212182
1212300
1212416
1212532
1212648
1212764
1212882
1212998
1213114
1213232
1213348
1213464
1213580
1213698
1213814
1213930
1214046
1214162
1214278
1214394
1214510
1214626
1214742
1214858
1214974
1215090
1215208
1215324
1215438
1215554
1215670
1215786
1215904
1216020
1216136
1216252
1216370
1216486
1216602
1216718
1216834
1216950
1217066
1217182
1217296
1217414
1217528
1217644
1217760
1217874
1217990
1218106
1218222
1218336
1218452
1218566
1218682
1218798
1218914
1219030
1219144
1219260
1219374
1219490
1219606
1219722
1219836
1219952
1220068
1220184
1220300
1220416
1220534
1220650
1220766
1220882
1220998
1221114
1221230
1221346
1221462
1221578
1221694
1221810
1221926
1222042
1222158
1222276
1222392
1222508
1222624
1222740
1222856
1222974
1223090
1223206
1223324
1223440
1223558
1223674
1223790
1223908
1224024
1224142
1224258
1224374
1224490
1224606
1224724
1224840
1224954
1225070
1225186
1225302
1225418
1225532
1225648
1225764
1225878
1225994
1226110
1226226
1226340
1226456
1226572
1226688
1226804
1226920
1227036
1227152
1227268
1227386
1227502
1227618
1227736
1227852
1227968
1228086
1228204
1228320
1228438
1228554
1228670
1228786
1228902
1229018
1229134
1229248
1229364
1229480
1229594
1229710
1229826
1229942
1230056
1230172
1230286
1230402
1230518
1230634
1230750
1230864
1230980
1231096
1231212
1231328
1231444
1231560
1231676
1231792
1231908
1232024
1232140
1232256
1232374
1232492
1232608
1232724
1232842
1232958
1233076
1233192
1233310
1233426
1233542
1233658
1233776
1233892
1234008
1234124
1234240
1234356
1234472
1234588
1234704
1234820
1234936
1235052
1235168
1235284
1235400
1235516
1235632
1235748
1235866
1235982
1236098
1236216
1236332
1236448
1236566
1236682
1236800
1236916
1237032
1237150
1237266
1237382
1237498
1237614
1237730
1237844
1237960
1238076
1238192
1238308
1238422
1238538
1238652
1238766
1238880
1238996
1239110
1239226
1239340
1239454
1239570
1239686
1239800
1239916
1240032
1240148
1240266
1240382
1240498
1240616
1240734
1240850
1240968
1241086
1241204
1241324
1241442
1241560
1241678
1241796
1241916
1242034
1242152
1242272
1242390
1242510
1242628
1242746
1242866
1242986
1243104
1243222
1243342
1243460
1243580
1243698
1243816
1243934
1244052
1244172
1244290
1244408
1244526
1244644
1244762
1244880
1244998
1245116
1245236
1245354
1245472
1245590
1245708
1245826
1245944
1246062
1246180
1246298
1246416
1246532
1246650
1246766
1246884
1247002
1247118
1247236
1247352
1247470
1247586
1247704
1247822
1247938
1248056
1248174
1248292
1248408
1248526
1248644
1248762
1248880
1248998
1249118
1249238
1249358
1249480
1249604
1249726
1249850
1249974
1250098
1250220
1250342
1250464
1250584
1250704
1250824
1250944
1251064
1251182
1251302
1251422
1251542
1251660
1251780
1251898
1252016
1252134
1252252
1252370
1252486
1252604
1252722
1252838
1252956
1253074
1253192
1253308
1253424
1253540
1253656
1253772
1253890
1254006
1254122
1254240
1254356
1254472
1254588
1254706
1254822
1254938
1255054
1255170
1255288
1255404
1255520
1255636
1255754
1255870
1255986
1256102
1256218
1256336
1256452
1256568
1256684
1256800
1256916
1257032
1257146
1257262
1257378
1257492
1257608
1257724
1257840
1257954
1258068
1258184
1258298
1258414
1258530
1258644
1258758
1258872
1258986
1259102
1259216
1259330
1259444
1259556
1259670
1259784
1259898
1260012
1260124
1260238
1260350
1260464
1260578
1260692
1260804
1260918
1261032
1261146
1261258
1261372
1261486
1261598
1261712
1261826
1261940
1262052
1262166
1262280
1262394
1262508
1262622
1262736
1262850
1262964
1263078
1263192
1263308
1263422
1263536
1263650
1263764
1263880
1263994
1264110
1264224
1264340
1264454
1264570
1264686
1264800
1264916
1265030
1265146
1265260
1265376
1265492
1265608
1265724
1265840
1265956
1266074
1266190
1266306
1266422
1266536
1266652
1266768
1266884
1267000
1267116
1267232
1267348
1267464
1267580
1267696
1267812
1267928
1268044
1268158
1268276
1268392
1268508
1268624
1268740
1268856
1268972
1269090
1269206
1269322
1269438
1269556
1269672
1269788
1269904
1270020
1270136
1270254
1270368
1270484
1270598
1270712
1270828
1270946
1271062
1271178
1271296
1271412
1271530
1271648
1271764
1271882
1272000
1272116
1272234
1272350
1272466
1272584
1272702
1272820
1272938
1273054
1273172
1273290
1273406
1273524
1273642
1273760
1273876
1273994
1274112
1274230
1274348
1274466
1274584
1274702
1274818
1274936
1275052
1275168
1275286
1275402
1275518
1275634
1275750
1275868
1275984
1276100
1276218
1276334
1276452
1276570
1276688
1276806
1276924
1277042
1277160
1277276
1277394
1277514
1277630
1277748
1277866
1277984
1278102
1278220
1278336
1278454
1278570
1278688
1278804
1278922
1279038
1279154
1279270
1279388
1279504
1279622
1279742
1279860
1279978
1280098
1280218
1280340
1280458
1280578
1280698
1280818
1280938
1281058
1281176
1281296
1281414
1281534
1281652
1281770
1281888
1282006
1282124
1282244
1282362
1282480
1282598
1282718
1282838
1282958
1283076
1283196
1283316
1283436
1283556
1283674
1283794
1283914
1284034
1284152
1284272
1284392
1284512
1284632
1284752
1284872
1284992
1285112
1285230
1285350
1285472
1285592
1285712
1285832
1285954
1286074
1286194
1286314
1286434
1286554
1286674
1286794
1286914
1287034
1287152
1287272
1287392
1287510
1287630
1287750
1287868
1287988
1288108
1288228
1288348
1288468
1288586
1288706
1288826
1288946
1289066
1289186
1289306
1289428
1289548
1289668
1289786
1289906
1290026
1290144
1290264
1290384
1290504
1290626
1290746
1290866
1290986
1291108
1291228
1291348
1291470
1291592
1291714
1291836
1291958
1292084
1292208
1292334
1292458
1292582
1292708
1292832
1292954
1293078
1293200
1293322
1293446
1293568
1293690
1293810
1293932
1294052
1294174
1294294
1294414
1294536
1294658
1294778
1294898
1295018
1295138
1295258
1295378
1295498
1295618
1295738
1295858
1295978
1296096
1296214
1296332
1296450
1296570
1296688
1296806
1296926
1297046
1297166
1297288
1297408
1297530
1297650
1297772
1297892
1298012
1298130
1298248
1298368
1298488
1298606
1298726
1298846
1298966
1299086
1299208
1299328
1299448
1299570
1299690
1299810
1299930
1300050
1300170
1300290
1300408
1300528
1300646
1300764
1300882
1301000
1301116
1301234
1301350
1301466
1301584
1301700
1301816
1301930
1302046
1302162
1302276
1302392
1302506
1302622
1302734
1302850
1302964
1303078
1303194
1303306
1303420
1303534
1303648
1303762
1303876
1303990
1304104
1304218
1304332
1304446
1304560
1304674
1304788
1304902
1305018
1305130
1305246
1305358
1305472
1305586
1305698
1305812
1305926
1306040
1306156
1306270
1306384
1306498
1306614
1306728
1306844
1306958
1307074
1307188
1307304
1307418
1307532
1307648
1307762
1307876
1307992
1308106
1308220
1308334
1308448
1308560
1308674
1308788
1308902
1309016
1309128
1309244
1309358
1309472
1309588
1309702
1309816
1309930
1310044
1310160
1310274
1310388
1310504
1310618
1310734
1310848
1310964
1311080
1311194
1311308
1311424
1311538
1311654
1311770
1311884
1312000
1312116
1312230
1312346
1312462
1312576
1312692
1312806
1312922
1313038
1313152
1313266
1313382
1313496
1313612
1313726
1313840
1313952
1314066
1314180
1314294
1314408
1314522
1314636
1314752
1314866
1314984
1315098
1315214
1315330
1315444
1315560
1315676
1315790
1315906
1316022
1316138
1316256
1316372
1316490
1316608
1316726
1316844
1316962
1317080
1317198
1317316
1317434
1317552
1317670
1317786
1317904
1318022
1318138
1318256
1318372
1318488
1318604
1318720
1318836
1318952
1319068
1319184
1319298
1319414
1319530
1319646
1319762
1319876
1319992
1320106
1320222
1320336
1320452
1320568
1320682
1320798
1320914
1321028
1321144
1321260
1321374
1321490
1321604
1321720
1321836
1321952
1322068
1322182
1322298
1322416
1322532
1322650
1322768
1322886
1323006
1323126
1323246
1323364
1323484
1323604
1323724
1323842
1323962
1324080
1324198
1324318
1324436
1324556
1324674
1324794
1324912
1325032
1325150
1325270
1325388
1325504
1325622
1325740
1325858
1325976
1326094
1326214
1326332
1326452
1326572
1326690
1326810
1326930
1327050
1327170
1327292
1327410
1327530
1327648
1327768
1327886
1328006
1328124
1328244
1328364
1328484
1328600
1328716
1328834
1328950
1329072
1329188
1329308
1329428
1329550
1329670
1329794
1329916
1330038
1330160
1330284
1330406
1330528
1330650
1330774
1330896
1331018
1331140
1331262
1331384
1331506
1331628
1331748
1331868
1331988
1332110
1332230
1332350
1332470
1332588
1332708
1332828
1332948
1333068
1333186
1333304
1333424
1333544
1333662
1333782
1333902
1334020
1334140
1334260
1334378
1334498
1334616
1334736
1334854
1334974
1335092
1335210
1335328
1335446
1335564
1335682
1335798
1335916
1336034
1336154
1336274
1336394
1336514
1336636
1336756
1336878
1336998
1337120
1337242
1337362
1337484
1337606
1337726
1337846
1337968
1338088
1338208
1338330
1338450
1338570
1338690
1338810
1338930
1339050
1339170
1339290
1339410
1339528
1339648
1339768
1339886
1340004
1340124
1340242
1340360
1340478
1340598
1340716
1340836
1340954
1341072
1341190
1341310
1341428
1341546
1341664
1341784
1341902
1342020
1342138
1342256
1342374
1342494
1342612
1342730
1342846
1342964
1343082
1343198
1343316
1343432
1343548
1343666
1343782
1343900
1344016
1344132
1344248
1344366
1344484
1344600
1344718
1344836
1344954
1345072
1345188
1345306
1345424
1345544
1345662
1345780
1345900
1346018
1346138
1346256
1346376
1346494
1346614
1346734
1346854
1346972
1347092
1347210
1347330
1347448
1347566
1347686
1347806
1347926
1348046
1348166
1348286
1348408
1348528
1348648
1348768
1348888
1349008
1349118
1349248
1349368
1349488
1349608
1349728
1349846
1349966
1350086
1350204
1350326
1350446
1350566
1350688
1350810
1350932
1351054
1351176
1351300
1351424
1351548
1351674
1351798
1351924
1352048
1352174
1352298
1352422
1352548
1352672
1352798
1352922
1353048
1353174
1353300
1353428
1353554
1353680
1353806
1353932
1354058
1354184
1354312
1354438
1354564
1354690
1354816
1354940
1355066
1355192
1355316
1355442
1355566
1355690
1355814
1355936
1356060
1356184
1356306
1356428
1356552
1356672
1356794
1356916
1357038
1357158
1357280
1357402
1357524
1357644
1357766
1357888
1358008
1358130
1358252
1358374
1358494
1358616
1358738
1358858
1358980
1359102
1359224
1359346
1359468
1359590
1359712
1359832
1359954
1360076
1360198
1360322
1360444
1360566
1360688
1360810
1360934
1361056
1361178
1361300
1361420
1361542
1361662
1361784
1361904
1362024
1362144
1362266
1362386
1362506
1362626
1362746
1362866
1362984
1363104
1363224
1363344
1363464
1363584
1363704
1363824
1363944
1364062
1364182
1364302
1364422
1364542
1364662
1364780
1364902
1365022
1365142
1365264
1365384
1365506
1365626
1365746
1365866
1365988
1366108
1366228
1366348
1366470
1366590
1366710
1366832
1366952
1367072
1367192
1367312
1367432
1367554
1367674
1367794
1367914
1368034
1368154
1368274
1368396
1368516
1368636
1368756
1368876
1368996
1369116
1369238
1369356
1369478
1369598
1369718
1369840
1369964
1370084
1370208
1370330
1370452
1370574
1370696
1370818
1370940
1371062
1371186
1371310
1371434
1371560
1371684
1371810
1371934
1372060
1372184
1372310
1372434
1372560
1372686
1372812
1372938
1373062
1373188
1373314
1373440
1373566
1373692
1373816
1373942
1374066
1374192
1374316
1374442
1374568
1374692
1374818
1374942
1375068
1375192
1375318
1375444
1375568
1375694
1375820
1375946
1376072
1376198
1376322
1376448
1376572
1376698
1376822
1376946
1377072
1377196
1377322
1377446
1377570
1377694
1377818
1377940
1378064
1378186
1378308
1378432
1378554
1378676
1378798
1378922
1379044
1379168
1379290
1379412
1379536
1379658
1379782
1379906
1380030
1380154
1380280
1380404
1380528
1380652
1380778
1380902
1381026
1381152
1381276
1381402
1381528
1381652
1381776
1381902
1382028
1382142
1382276
1382402
1382524
1382648
1382770
1382894
1383018
1383142
1383264
1383388
1383512
1383636
1383760
1383884
1384008
1384132
1384254
1384378
1384504
1384628
1384754
1384880
1385008
1385134
1385260
1385386
1385512
1385638
1385764
1385890
1386014
1386138
1386262
1386386
1386510
1386632
1386754
1386878
1387000
1387122
1387244
1387366
1387488
1387610
1387730
1387852
1387974
1388096
1388218
1388340
1388462
1388584
1388706
1388828
1388950
1389072
1389194
1389318
1389442
1389566
1389690
1389816
1389940
1390066
1390190
1390314
1390438
1390560
1390682
1390804
1390926
1391048
1391172
1391296
1391418
1391542
1391664
1391786
1391910
1392032
1392156
1392278
1392400
1392522
1392644
1392766
1392888
1393008
1393130
1393250
1393372
1393494
1393616
1393738
1393860
1393982
1394108
1394232
1394356
1394480
1394604
1394728
1394854
1394978
1395104
1395228
1395350
1395474
1395598
1395722
1395846
1395968
1396092
1396214
1396338
1396462
1396584
1396706
1396828
1396950
1397072
1397192
1397314
1397434
1397556
1397676
1397796
1397918
1398038
1398160
1398280
1398400
1398520
1398638
1398758
1398876
1398996
1399114
1399232
1399348
1399466
1399584
1399702
1399820
1399936
1400054
1400172
1400278
1400406
1400524
1400640
1400758
1400874
1400992
1401108
1401226
1401342
1401460
1401576
1401694
1401810
1401928
1402044
1402160
1402278
1402396
1402514
1402632
1402750
1402868
1402986
1403104
1403222
1403340
1403458
1403576
1403694
1403810
1403928
1404044
1404160
1404278
1404394
1404512
1404630
1404748
1404866
1404986
1405104
1405224
1405344
1405464
1405584
1405704
1405824
1405944
1406064
1406182
1406302
1406422
1406542
1406664
1406784
1406906
1407026
1407148
1407270
1407392
1407514
1407636
1407758
1407878
1408000
1408122
1408242
1408364
1408486
1408606
1408728
1408850
1408972
1409094
1409214
1409334
1409454
1409576
1409696
1409818
1409940
1410062
1410184
1410306
1410428
1410550
1410672
1410794
1410916
1411038
1411160
1411282
1411404
1411526
1411648
1411768
1411890
1412012
1412132
1412254
1412376
1412496
1412618
1412738
1412860
1412980
1413100
1413220
1413340
1413460
1413580
1413698
1413818
1413938
1414056
1414174
1414294
1414412
1414532
1414650
1414770
1414886
1415004
1415120
1415236
1415356
1415474
1415592
1415712
1415834
1415956
1416078
1416202
1416324
1416448
1416572
1416696
1416818
1416940
1417064
1417188
1417310
1417432
1417556
1417676
1417796
1417918
1418038
1418158
1418278
1418398
1418516
1418636
1418758
1418876
1418996
1419114
1419234
1419352
1419472
1419592
1419710
1419828
1419948
1420066
1420186
1420306
1420426
1420544
1420664
1420784
1420904
1421024
1421142
1421262
1421380
1421500
1421620
1421740
1421860
1421980
1422100
1422220
1422342
1422462
1422582
1422702
1422822
1422942
1423062
1423182
1423302
1423420
1423540
1423658
1423776
1423896
1424014
1424134
1424252
1424372
1424494
1424614
1424734
1424856
1424976
1425096
1425216
1425338
1425458
1425578
1425698
1425818
1425938
1426058
1426176
1426296
1426416
1426534
1426654
1426774
1426894
1427012
1427132
1427252
1427372
1427490
1427610
1427730
1427850
1427972
1428092
1428214
1428336
1428458
1428580
1428702
1428824
1428946
1429068
1429190
1429310
1429432
1429552
1429672
1429794
1429914
1430034
1430156
1430276
1430398
1430518
1430640
1430760
1430882
1431002
1431124
1431244
1431366
1431482
1431602
1431720
1431838
1431958
1432078
1432198
1432318
1432438
1432558
1432680
1432802
1432922
1433044
1433166
1433288
1433408
1433530
1433650
1433770
1433890
1434010
1434130
1434250
1434370
1434488
1434608
1434726
1434846
1434964
1435082
1435200
1435314
1435432
1435548
1435668
1435786
1435904
1436024
1436142
1436262
1436382
1436504
1436624
1436744
1436864
1436984
1437102
1437222
1437342
1437462
1437580
1437698
1437818
1437936
1438054
1438172
1438290
1438408
1438526
1438644
1438762
1438878
1438996
1439112
1439230
1439346
1439462
1439580
1439696
1439814
1439932
1440048
1440168
1440286
1440406
1440524
1440644
1440764
1440884
1441004
1441124
1441242
1441364
1441482
1441602
1441724
1441844
1441964
1442084
1442204
1442324
1442444
1442564
1442684
1442806
1442926
1443046
1443166
1443286
1443406
1443526
1443646
1443766
1443884
1444004
1444122
1444242
1444360
1444478
1444596
1444714
1444832
1444950
1445066
1445184
1445300
1445416
1445534
1445650
1445766
1445882
1445998
1446114
1446230
1446346
1446462
1446578
1446694
1446810
1446926
1447042
1447160
1447276
1447394
1447510
1447628
1447746
1447864
1447982
1448100
1448216
1448334
1448452
1448570
1448686
1448804
1448920
1449038
1449156
1449272
1449390
1449506
1449622
1449740
1449856
1449972
1450088
1450204
1450320
1450436
1450550
1450666
1450782
1450898
1451012
1451128
1451242
1451358
1451474
1451588
1451702
1451818
1451932
1452048
1452162
1452278
1452392
1452508
1452622
1452738
1452854
1452968
1453084
1453200
1453316
1453432
1453550
1453666
1453782
1453900
1454016
1454134
1454250
1454368
1454484
1454600
1454716
1454832
1454950
1455066
1455184
1455302
1455418
1455536
1455654
1455772
1455888
1456006
1456122
1456240
1456356
1456474
1456590
1456708
1456826
1456942
1457060
1457176
1457294
1457412
1457530
1457650
1457768
1457888
1458006
1458124
1458244
1458364
1458484
1458604
1458724
1458846
1458966
1459086
1459206
1459328
1459448
1459566
1459686
1459806
1459924
1460044
1460164
1460282
1460404
1460524
1460644
1460764
1460884
1461006
1461128
1461255
1461373
1461497
1461620
1461740
1461864
1461988
1462114
1462240
1462370
1462497
1462624
1462754
1462882
1463012
1463139
1463265
1463392
1463517
1463636
1463762
1463886
1464010
1464136
1464241
1464380
1464504
1464626
1464748
1464868
1464988
1465108
1465228
1465346
1465464
1465584
1465702
1465820
1465936
1466052
1466170
1466286
1466402
1466518
1466634
1466750
1466866
1466980
1467096
1467208
1467324
1467438
1467554
1467668
1467784
1467902
1468018
1468136
1468252
1468370
1468486
1468604
1468722
1468838
1468956
1469074
1469192
1469308
1469426
1469544
1469660
1469778
1469894
1470012
1470128
1470244
1470360
1470478
1470594
1470710
1470826
1470944
1471060
1471176
1471294
1471410
1471526
1471644
1471760
1471878
1471996
1472114
1472230
1472348
1472464
1472582
1472698
1472816
1472934
1473050
1473166
1473282
1473400
1473516
1473632
1473748
1473864
1473980
1474096
1474214
1474332
1474452
1474572
1474694
1474824
1474944
1475072
1475198
1475322
1475448
1475572
1475698
1475822
1475946
1476068
1476192
1476314
1476436
1476560
1476682
1476804
1476926
1477048
1477168
1477290
1477410
1477530
1477648
1477768
1477886
1478006
1478124
1478242
1478362
1478480
1478598
1478716
1478832
1478950
1479066
1479184
1479300
1479418
1479536
1479654
1479772
1479890
1480008
1480128
1480246
1480366
1480484
1480602
1480722
1480840
1480960
1481078
1481198
1481318
1481436
1481556
1481674
1481792
1481912
1482028
1482146
1482264
1482382
1482502
1482620
1482738
1482858
1482978
1483098
1483218
1483338
1483458
1483578
1483698
1483816
1483936
1484056
1484174
1484294
1484412
1484530
1484648
1484766
1484886
1485004
1485122
1485240
1485358
1485478
1485596
1485716
1485836
1485956
1486078
1486198
1486323
1486442
1486564
1486686
1486808
1486932
1487056
1487180
1487302
1487428
1487552
1487676
1487798
1487922
1488044
1488168
1488290
1488412
1488536
1488658
1488780
1488900
1489022
1489144
1489264
1489384
1489504
1489626
1489746
1489864
1489984
1490102
1490222
1490342
1490460
1490580
1490700
1490820
1490940
1491060
1491180
1491300
1491420
1491540
1491658
1491778
1491896
1492016
1492136
1492258
1492380
1492502
1492624
1492748
1492870
1492996
1493122
1493246
1493370
1493494
1493616
1493740
1493862
1493984
1494106
1494228
1494350
1494472
1494592
1494714
1494836
1494956
1495076
1495198
1495320
1495442
1495562
1495684
1495804
1495926
1496048
1496168
1496290
1496412
1496534
1496658
1496780
1496904
1497026
1497148
1497272
1497396
1497518
1497642
1497766
1497888
1498012
1498136
1498260
1498384
1498508
1498632
1498756
1498878
1499002
1499126
1499250
1499372
1499496
1499620
1499744
1499868
1499990
1500114
1500236
1500358
1500482
1500604
1500724
1500846
1500968
1501090
1501212
1501334
1501458
1501580
1501702
1501826
1501948
1502070
1502194
1502316
1502438
1502562
1502686
1502808
1502932
1503056
1503180
1503304
1503428
1503552
1503676
1503800
1503924
1504050
1504174
1504300
1504426
1504552
1504676
1504802
1504928
1505054
1505180
1505308
1505434
1505562
1505688
1505816
1505944
1506070
1506198
1506326
1506452
1506580
1506708
1506836
1506964
1507092
1507220
1507346
1507474
1507602
1507728
1507856
1507984
1508112
1508238
1508364
1508492
1508618
1508744
1508868
1508994
1509120
1509246
1509372
1509500
1509628
1509754
1509880
1510008
1510134
1510260
1510386
1510510
1510636
1510762
1510888
1511014
1511138
1511264
1511388
1511514
1511640
1511764
1511890
1512014
1512140
1512266
1512390
1512516
1512642
1512768
1512894
1513020
1513146
1513272
1513398
1513524
1513650
1513776
1513902
1514028
1514154
1514280
1514406
1514532
1514658
1514784
1514910
1515034
1515160
1515284
1515408
1515534
1515658
1515782
1515906
1516030
1516152
1516274
1516398
1516520
1516644
1516766
1516892
1517016
1517140
1517264
1517388
1517512
1517636
1517758
1517882
1518004
1518126
1518248
1518370
1518490
1518612
1518734
1518854
1518974
1519094
1519216
1519336
1519456
1519578
1519698
1519818
1519938
1520058
1520180
1520300
1520420
1520540
1520660
1520780
1520898
1521020
1521138
1521258
1521380
1521500
1521622
1521742
1521862
1521984
1522104
1522224
1522344
1522464
1522584
1522704
1522822
1522942
1523062
1523182
1523302
1523424
1523544
1523666
1523786
1523908
1524028
1524150
1524272
1524392
1524514
1524634
1524756
1524878
1525000
1525122
1525242
1525364
1525484
1525606
1525714
1525850
1525972
1526096
1526220
1526346
1526472
1526594
1526720
1526844
1526968
1527092
1527214
1527338
1527460
1527584
1527706
1527828
1527950
1528072
1528194
1528316
1528438
1528558
1528680
1528800
1528920
1529040
1529160
1529280
1529402
1529520
1529640
1529758
1529878
1529998
1530118
1530238
1530358
1530478
1530598
1530718
1530838
1530958
1531080
1531202
1531324
1531448
1531570
1531692
1531814
1531938
1532058
1532180
1532302
1532424
1532546
1532670
1532792
1532916
1533038
1533162
1533286
1533410
1533534
1533658
1533784
1533908
1534034
1534158
1534282
1534408
1534534
1534658
1534784
1534908
1535034
1535158
1535284
1535408
1535532
1535656
1535780
1535904
1536028
1536150
1536274
1536398
1536524
1536648
1536772
1536898
1537024
1537148
1537274
1537400
1537524
1537650
1537774
1537898
1538022
1538146
1538270
1538394
1538518
1538642
1538766
1538890
1539014
1539142
1539262
1539386
1539510
1539634
1539758
1539880
1540004
1540128
1540252
1540374
1540498
1540622
1540746
1540870
1540992
1541116
1541240
1541362
1541486
1541608
1541730
1541854
1541974
1542096
1542218
1542342
1542462
1542584
1542704
1542826
1542948
1543070
1543192
1543312
1543434
1543556
1543678
1543800
1543922
1544044
1544166
1544290
1544412
1544536
1544658
1544780
1544904
1545028
1545150
1545274
1545396
1545520
1545642
1545766
1545888
1546012
1546136
1546258
1546382
1546506
1546630
1546754
1546880
1547006
1547132
1547260
1547386
1547510
1547636
1547762
1547888
1548014
1548140
1548266
1548392
1548520
1548646
1548772
1548900
1549026
1549154
1549282
1549410
1549540
1549668
1549796
1549924
1550052
1550178
1550306
1550434
1550560
1550686
1550814
1550940
1551066
1551192
1551316
1551442
1551566
1551690
1551816
1551940
1552064
1552188
1552310
1552436
1552562
1552688
1552812
1552938
1553062
1553186
1553312
1553436
1553560
1553684
1553808
1553932
1554058
1554182
1554306
1554430
1554552
1554676
1554800
1554922
1555046
1555170
1555292
1555419
1555538
1555660
1555782
1555906
1556028
1556150
1556272
1556392
1556514
1556634
1556756
1556878
1557000
1557124
1557248
1557372
1557496
1557620
1557744
1557868
1557990
1558114
1558238
1558360
1558484
1558608
1558730
1558852
1558976
1559098
1559222
1559344
1559466
1559588
1559710
1559832
1559954
1560076
1560198
1560322
1560444
1560566
1560690
1560816
1560940
1561062
1561190
1561316
1561440
1561566
1561690
1561816
1561942
1562068
1562196
1562324
1562452
1562578
1562706
1562834
1562962
1563088
1563218
1563346
1563474
1563600
1563728
1563860
1563992
1564120
1564250
1564380
1564512
1564644
1564774
1564902
1565032
1565162
1565292
1565422
1565550
1565680
1565810
1565942
1566074
1566210
1566344
1566482
1566618
1566756
1566892
1567030
1567168
1567304
1567440
1567576
1567712
1567850
1567988
1568128
1568268
1568408
1568550
1568690
1568832
1568976
1569118
1569262
1569406
1569550
1569692
1569836
1569978
1570122
1570266
1570410
1570554
1570698
1570842
1570986
1571128
1571270
1571410
1571550
1571690
1571830
1571970
1572112
1572254
1572396
1572538
1572682
1572826
1572970
1573114
1573256
1573400
1573544
1573688
1573832
1573976
1574120
1574264
1574408
1574552
1574696
1574838
1574982
1575124
1575266
1575410
1575552
1575696
1575838
1575982
1576124
1576266
1576408
1576550
1576692
1576832
1576972
1577112
1577242
1577388
1577526
1577662
1577800
1577938
1578076
1578218
1578358
1578500
1578642
1578784
1578926
1579068
1579212
1579356
1579500
1579642
1579784
1579928
1580072
1580216
1580362
1580506
1580652
1580798
1580942
1581086
1581232
1581376
1581520
1581664
1581808
1581952
1582096
1582240
1582382
1582526
1582670
1582814
1582958
1583102
1583246
1583390
1583532
1583674
1583814
1583954
1584096
1584240
1584382
1584526
1584670
1584812
1584956
1585098
1585240
1585382
1585524
1585668
1585810
1585952
1586096
1586238
1586382
1586524
1586668
1586812
1586954
1587098
1587242
1587386
1587530
1587672
1587816
1587960
1588104
1588248
1588392
1588538
1588682
1588826
1588972
1589116
1589258
1589402
1589544
1589688
1589830
1589972
1590116
1590260
1590404
1590548
1590690
1590834
1590976
1591118
1591260
1591402
1591546
1591688
1591830
1591972
1592114
1592256
1592398
1592540
1592682
1592824
1592966
1593108
1593250
1593392
1593536
1593678
1593820
1593960
1594098
1594238
1594378
1594518
1594658
1594800
1594942
1595086
1595228
1595370
1595512
1595652
1595794
1595936
1596078
1596220
1596360
1596502
1596642
1596782
1596924
1597064
1597204
1597346
1597488
1597630
1597772
1597914
1598054
1598196
1598338
1598480
1598622
1598766
1598908
1599050
1599192
1599334
1599476
1599620
1599762
1599902
1600044
1600186
1600328
1600470
1600610
1600752
1600892
1601034
1601174
1601316
1601456
1601598
1601738
1601880
1602022
1602162
1602304
1602448
1602590
1602732
1602874
1603018
1603160
1603302
1603446
1603588
1603730
1603872
1604012
1604154
1604296
1604438
1604578
1604720
1604864
1605006
1605148
1605292
1605434
1605576
1605718
1605862
1606002
1606146
1606288
1606428
1606570
1606712
1606854
1606994
1607134
1607272
1607412
1607554
1607694
1607836
1607978
1608120
1608262
1608404
1608546
1608688
1608828
1608970
1609112
1609252
1609394
1609534
1609676
1609818
1609958
1610100
1610240
1610382
1610522
1610664
1610806
1610948
1611090
1611232
1611374
1611516
1611658
1611800
1611942
1612084
1612224
1612366
1612506
1612648
1612790
1612930
1613072
1613212
1613352
1613494
1613634
1613776
1613916
1614058
1614200
1614340
1614482
1614624
1614764
1614906
1615048
1615190
1615332
1615472
1615614
1615754
1615894
1616036
1616176
1616318
1616460
1616600
1616742
1616882
1617022
1617162
1617304
1617444
1617584
1617726
1617868
1618010
1618152
1618292
1618434
1618576
1618716
1618858
1618998
1619138
1619278
1619418
1619558
1619700
1619840
1619982
1620122
1620264
1620406
1620546
1620688
1620828
1620970
1621110
1621250
1621392
1621534
1621674
1621816
1621958
1622102
1622244
1622386
1622530
1622674
1622816
1622958
1623100
1623242
1623384
1623526
1623670
1623812
1623954
1624094
1624236
1624378
1624518
1624660
1624802
1624942
1625082
1625224
1625366
1625506
1625648
1625790
1625930
1626070
1626212
1626352
1626494
1626634
1626776
1626918
1627058
1627198
1627340
1627480
1627620
1627760
1627900
1628040
1628180
1628320
1628460
1628600
1628740
1628880
1629022
1629162
1629302
1629444
1629586
1629726
1629868
1630010
1630152
1630294
1630436
1630578
1630720
1630862
1631004
1631148
1631290
1631430
1631570
1631712
1631852
1631994
1632134
1632276
1632418
1632560
1632702
1632844
1632986
1633128
1633270
1633412
1633552
1633694
1633836
1633976
1634116
1634258
1634398
1634536
1634676
1634816
1634956
1635096
1635236
1635376
1635516
1635656
1635796
1635936
1636076
1636216
1636356
1636496
1636636
1636776
1636916
1637056
1637194
1637330
1637468
1637604
1637742
1637882
1638022
1638162
1638302
1638442
1638582
1638722
1638864
1639004
1639144
1639282
1639422
1639562
1639702
1639842
1639982
1640122
1640262
1640404
1640544
1640684
1640824
1640964
1641104
1641244
1641384
1641524
1641664
1641802
1641942
1642082
1642222
1642360
1642500
1642638
1642778
1642916
1643054
1643194
1643334
1643472
1643614
1643754
1643896
1644036
1644178
1644318
1644460
1644600
1644742
1644884
1645024
1645166
1645306
1645448
1645588
1645730
1645870
1646012
1646152
1646292
1646432
1646574
1646716
1646858
1647000
1647142
1647284
1647426
1647570
1647714
1647858
1648000
1648144
1648290
1648434
1648578
1648722
1648868
1649010
1649154
1649300
1649444
1649588
1649732
1649876
1650022
1650166
1650310
1650454
1650598
1650742
1650886
1651028
1651172
1651316
1651460
1651604
1651748
1651892
1652038
1652182
1652326
1652470
1652614
1652758
1652902
1653046
1653188
1653332
1653474
1653618
1653760
1653902
1654046
1654188
1654332
1654474
1654618
1654762
1654904
1655048
1655192
1655336
1655478
1655620
1655762
1655902
1656042
1656184
1656324
1656466
1656608
1656752
1656896
1657038
1657182
1657328
1657472
1657616
1657760
1657904
1658048
1658192
1658336
1658480
1658624
1658768
1658914
1659060
1659204
1659350
1659494
1659640
1659784
1659928
1660074
1660218
1660362
1660506
1660650
1660794
1660940
1661084
1661228
1661372
1661518
1661662
1661808
1661952
1662096
1662240
1662384
1662526
1662670
1662816
1662960
1663102
1663246
1663390
1663534
1663678
1663822
1663964
1664108
1664252
1664396
1664540
1664684
1664830
1664974
1665120
1665264
1665410
1665554
1665698
1665844
1665988
1666132
1666276
1666420
1666564
1666708
1666852
1666996
1667142
1667286
1667430
1667574
1667718
1667862
1668004
1668148
1668292
1668436
1668578
1668722
1668866
1669008
1669152
1669296
1669438
1669580
1669724
1669866
1670008
1670150
1670292
1670432
1670572
1670712
1670854
1670994
1671132
1671272
1671412
1671554
1671696
1671838
1671980
1672124
1672268
1672410
1672554
1672696
1672838
1672980
1673122
1673264
1673406
1673548
1673690
1673834
1673976
1674118
1674262
1674404
1674548
1674690
1674834
1674976
1675120
1675264
1675406
1675550
1675694
1675836
1675978
1676122
1676264
1676406
1676548
1676692
1676836
1676978
1677122
1677266
1677410
1677553
1677696
1677838
1677982
1678124
1678268
1678410
1678552
1678696
1678838
1678982
1679126
1679268
1679412
1679554
1679698
1679840
1679982
1680124
1680266
1680408
1680552
1680692
1680834
1680976
1681118
1681262
1681404
1681546
1681688
1681830
1681972
1682112
1682254
1682394
1682538
1682678
1682820
1682960
1683102
1683242
1683384
1683524
1683662
1683800
1683940
1684082
1684222
1684364
1684508
1684650
1684792
1684936
1685078
1685222
1685364
1685506
1685650
1685794
1685936
1686080
1686224
1686366
1686508
1686652
1686794
1686936
1687080
1687222
1687364
1687506
1687648
1687790
1687934
1688076
1688218
1688362
1688504
1688646
1688788
1688932
1689074
1689216
1689358
1689502
1689644
1689788
1689930
1690074
1690216
1690358
1690500
1690642
1690784
1690926
1691068
1691212
1691354
1691496
1691640
1691782
1691926
1692070
1692212
1692356
1692498
1692640
1692782
1692924
1693066
1693210
1693352
1693496
1693638
1693782
1693926
1694068
1694212
1694354
1694498
1694642
1694784
1694928
1695070
1695214
1695358
1695500
1695644
1695788
1695930
1696074
1696218
1696360
1696504
1696646
1696790
1696932
1697076
1697218
1697362
1697504
1697646
1697788
1697932
1698074
1698218
1698360
1698504
1698646
1698788
1698930
1699072
1699216
1699358
1699500
1699642
1699786
1699928
1700070
1700212
1700354
1700498
1700640
1700784
1700926
1701068
1701212
1701356
1701498
1701642
1701784
1701926
1702068
1702210
1702352
1702496
1702638
1702780
1702922
1703064
1703206
1703348
1703492
1703634
1703776
1703920
1704062
1704206
1704350
1704494
1704638
1704782
1704926
1705070
1705214
1705358
1705504
1705650
1705796
1705940
1706084
1706230
1706376
1706522
1706668
1706814
1706962
1707108
1707254
1707400
1707544
1707690
1707834
1707978
1708120
1708264
1708410
1708554
1708698
1708842
1708988
1709132
1709276
1709420
1709564
1709706
1709850
1709994
1710138
1710282
1710426
1710570
1710712
1710856
1711000
1711144
1711288
1711432
1711576
1711720
1711864
1712010
1712154
1712300
1712444
1712590
1712734
1712880
1713024
1713168
1713312
1713456
1713602
1713746
1713890
1714034
1714178
1714324
1714470
1714616
1714760
1714906
1715050
1715196
1715342
1715488
1715632
1715778
1715922
1716068
1716214
1716358
1716504
1716648
1716792
1716936
1717080
1717226
1717370
1717514
1717658
1717804
1717950
1718094
1718240
1718386
1718534
1718680
1718826
1718974
1719120
1719264
1719410
1719554
1719700
1719844
1719988
1720132
1720276
1720418
1720562
1720706
1720848
1720990
1721132
1721274
1721414
1721556
1721698
1721840
1721984
1722126
1722270
1722414
1722558
1722702
1722846
1722992
1723136
1723282
1723426
1723572
1723716
1723860
1724004
1724150
1724294
1724438
1724582
1724726
1724870
1725016
1725160
1725304
1725448
1725592
1725738
1725882
1726028
1726172
1726316
1726462
1726608
1726752
1726898
1727042
1727188
1727334
1727478
1727622
1727768
1727914
1728058
1728204
1728348
1728494
1728638
1728782
1728926
1729072
1729216
1729358
1729502
1729646
1729790
1729932
1730074
1730214
1730354
1730496
1730638
1730780
1730922
1731066
1731210
1731354
1731498
1731642
1731786
1731930
1732072
1732216
1732360
1732504
1732648
1732792
1732936
1733080
1733224
1733368
1733512
1733654
1733798
1733942
1734086
1734230
1734372
1734516
1734660
1734802
1734946
1735090
1735232
1735374
1735518
1735660
1735804
1735948
1736092
1736236
1736378
1736522
1736666
1736808
1736952
1737094
1737238
1737380
1737524
1737666
1737808
1737952
1738096
1738238
1738384
1738528
1738674
1738818
1738962
1739106
1739250
1739396
1739540
1739684
1739830
1739976
1740122
1740266
1740412
1740556
1740702
1740846
1740990
1741132
1741276
1741420
1741564
1741708
1741852
1741994
1742136
1742280
1742422
1742564
1742706
1742850
1742992
1743136
1743278
1743422
1743566
1743710
1743852
1743996
1744140
1744284
1744428
1744570
1744714
1744854
1744994
1745134
1745272
1745412
1745552
1745690
1745828
1745966
1746106
1746246
1746384
1746524
1746662
1746802
1746942
1747082
1747224
1747364
1747504
1747642
1747782
1747922
1748062
1748202
1748340
1748480
1748620
1748760
1748900
1749040
1749178
1749316
1749456
1749596
1749736
1749878
1750018
1750158
1750298
1750438
1750578
1750718
1750860
1751002
1751146
1751288
1751432
1751576
1751722
1751868
1752014
1752160
1752306
1752454
1752600
1752748
1752894
1753042
1753188
1753336
1753482
1753626
1753772
1753918
1754064
1754210
1754356
1754502
1754648
1754796
1754942
1755088
1755234
1755382
1755528
1755674
1755822
1755970
1756118
1756266
1756414
1756562
1756710
1756860
1757008
1757156
1757302
1757450
1757596
1757742
1757888
1758034
1758180
1758324
1758470
1758614
1758760
1758908
1759052
1759198
1759342
1759488
1759630
1759774
1759916
1760060
1760204
1760346
1760488
1760630
1760770
1760912
1761054
1761196
1761338
1761480
1761624
1761768
1761910
1762052
1762196
1762338
1762480
1762622
1762764
1762906
1763046
1763188
1763330
1763472
1763612
1763752
1763894
1764034
1764176
1764316
1764458
1764600
1764742
1764884
1765026
1765168
1765310
1765450
1765592
1765734
1765878
1766018
1766160
1766302
1766444
1766584
1766726
1766868
1767010
1767150
1767292
1767432
1767574
1767714
1767854
1767996
1768138
1768278
1768420
1768560
1768702
1768842
1768984
1769126
1769266
1769408
1769550
1769692
1769834
1769974
1770116
1770260
1770402
1770544
1770688
1770830
1770970
1771112
1771254
1771394
1771534
1771674
1771814
1771950
1772090
1772228
1772370
1772510
1772652
1772794
1772936
1773080
1773222
1773364
1773506
1773646
1773788
1773928
1774070
1774212
1774352
1774494
1774636
1774778
1774920
1775064
1775206
1775348
1775492
1775634
1775776
1775918
1776062
1776204
1776348
1776490
1776634
1776776
1776918
1777062
1777204
1777346
1777488
1777630
1777772
1777914
1778056
1778200
1778342
1778484
1778628
1778770
1778914
1779058
1779200
1779344
1779486
1779630
1779774
1779916
1780058
1780202
1780344
1780488
1780630
1780774
1780916
1781060
1781204
1781346
1781490
1781632
1781774
1781916
1782058
1782200
1782342
1782484
1782626
1782770
1782912
1783056
1783200
1783342
1783484
1783628
1783770
1783912
1784054
1784196
1784340
1784484
1784630
1784776
1784922
1785070
1785218
1785364
1785512
1785660
1785806
1785952
1786100
1786246
1786390
1786536
1786682
1786828
1786972
1787118
1787264
1787412
1787558
1787706
1787852
1788000
1788146
1788294
1788442
1788590
1788736
1788884
1789030
1789176
1789324
1789468
1789614
1789760
1789904
1790050
1790194
1790338
1790484
1790628
1790772
1790916
1791062
1791208
1791352
1791498
1791644
1791788
1791934
1792080
1792226
1792370
1792516
1792662
1792808
1792956
1793102
1793248
1793394
1793540
1793686
1793830
1793972
1794116
1794262
1794406
1794552
1794696
1794842
1794986
1795132
1795278
1795422
1795566
1795712
1795856
1796000
1796144
1796288
1796434
1796578
1796722
1796868
1797014
1797158
1797304
1797450
1797596
1797742
1797888
1798034
1798178
1798322
1798466
1798612
1798754
1798900
1799046
1799192
1799338
1799484
1799630
1799776
1799922
