peaks
30
228
420
610
800
982
1162
1346
1526
1704
1888
2068
2250
2438
2624
2810
2994
3180
3362
3548
3734
3920
4106
4294
4480
4668
4850
5030
5216
5398
5576
5760
5940
6120
6300
6480
6658
6834
7020
7200
7386
7578
7766
7956
8152
8340
8532
8724
8910
9094
9282
9466
9648
9834
10014
10192
10378
10560
10744
10928
11110
11286
11470
11650
11828
12006
12184
12358
12534
12706
12878
13050
13224
13404
13588
13770
13962
14150
14342
14538
14732
14926
15120
15306
15494
15680
15864
16046
16230
16410
16588
16770
16952
17132
17310
17494
17674
17854
18040
18222
18400
18584
18762
18940
19122
19302
19492
19684
19880
20080
20288
20490
20700
20912
21118
21324
21524
21722
21916
22108
22298
22484
22672
22856
23042
23230
23412
23592
23776
23958
24136
24322
24502
24682
24862
25044
25222
25402
25580
25756
25936
26116
26296
26472
26650
26826
27004
27180
27356
27542
27726
27916
28118
28316
28522
28730
28922
29120
29322
29512
29700
29890
30078
30264
30452
30634
30816
31000
31182
31362
31544
31726
31906
32088
32274
32458
32642
32830
33014
33202
33388
33574
33758
33948
34136
34324
34518
34708
34900
35092
35282
35474
35672
35862
36056
36254
36452
36648
36850
37046
37240
37436
37624
37810
37994
38176
38362
38556
38750
38950
39158
39358
39568
39784
39990
40190
40392
40588
40786
40982
41172
41360
41556
41746
41856
42122
42304
42490
42676
42862
43044
43234
43420
43610
43798
43986
44170
44352
44538
44724
44908
45094
45276
45460
45644
45824
46006
46192
46374
46562
46748
46942
47132
47330
47518
47710
47904
48096
48284
48476
48666
48852
49040
49222
49402
49582
49762
49952
50138
50328
50534
50730
50938
51152
51352
51556
51760
51956
52150
52342
52530
52722
52912
53100
53292
53480
53664
53848
54032
54214
54400
54582
54764
54952
55136
55318
55502
55684
55864
56042
56218
56392
56568
56740
56914
57090
57266
57440
57618
57802
57986
58174
58368
58558
58750
58956
59152
59350
59548
59738
59926
60110
60292
60480
60664
60844
61028
61210
61388
61572
61752
61930
62108
62286
62466
62642
62822
62998
63172
63352
63528
63704
63882
64058
64232
64412
64592
64768
64944
65128
65314
65502
65692
65886
66076
66264
66458
66648
66838
67032
67224
67416
67610
67796
67982
68168
68348
68526
68710
68888
69064
69242
69416
69588
69762
69930
70102
70276
70448
70622
70794
70966
71140
71312
71484
71660
71846
72036
72230
72432
72644
72858
73068
73274
73476
73676
73868
74056
74244
74430
74614
74798
74982
75164
75346
75526
75714
75898
76082
76268
76454
76636
76822
77010
77194
77378
77564
77746
77932
78120
78300
78484
78662
78842
79026
79208
79386
79568
79750
79932
80110
80290
80468
80646
80822
80998
81170
81342
81512
81688
81862
82038
82218
82396
82572
82756
82938
83120
83308
83490
83674
83860
84044
84228
84412
84594
84772
84952
85132
85312
85490
85662
85834
86012
86188
86362
86536
86712
86886
87064
87242
87422
87602
87784
87964
88146
88328
88510
88690
88870
89048
89226
89404
89582
89770
89958
90154
90364
90564
90774
90982
91186
91388
91588
91782
91972
92166
92354
92540
92732
92916
93102
93292
93474
93658
93840
94022
94208
94392
94574
94758
94938
95118
95298
95484
95664
95848
96034
96220
96410
96606
96798
96992
97192
97390
97586
97782
97986
98198
98400
98594
98794
98990
99190
99384
99576
99764
99952
100146
100342
100538
100732
100930
101124
101326
101528
101734
101938
102140
102340
102536
102732
102928
103116
103300
103484
103664
103848
104026
104204
104380
104556
104738
104924
105112
105296
105478
105672
105864
106052
106248
106436
106622
106816
107006
107194
107386
107574
107760
107952
108140
108326
108520
108706
108890
109080
109266
109452
109642
109826
110014
110200
110390
110572
110762
110950
111132
111314
111504
111686
111866
112052
112234
112414
112600
112782
112964
113146
113330
113512
113694
113880
114064
114250
114438
114626
114810
114998
115184
115368
115552
115736
115916
116098
116284
116462
116640
116822
117000
117178
117358
117542
117726
117910
118102
118284
118470
118658
118840
119024
119212
119398
119578
119764
119944
120126
120308
120488
120668
120848
121026
121204
121384
121562
121738
121924
122102
122282
122466
122648
122824
123004
123180
123354
123530
123704
123880
124058
124236
124410
124586
124760
124930
125102
125280
125462
125646
125836
126024
126216
126418
126616
126820
127020
127214
127406
127598
127784
127968
128154
128334
128518
128708
128898
129082
129270
129456
129642
129830
130014
130194
130380
130558
130734
130914
131090
131266
131444
131622
131800
131980
132164
132344
132524
132708
132884
133064
133246
133424
133606
133788
133970
134146
134328
134504
134682
134858
135034
135210
135390
135568
135748
135928
136108
136288
136474
136654
136834
137016
137194
137378
137560
137748
137856
138128
138238
138512
138698
138884
139070
139254
139436
139622
139808
139992
140174
140354
140532
140712
140892
141072
141252
141430
141610
141798
141984
142180
142372
142568
142768
142960
143152
143350
143538
143728
143920
144106
144294
144480
144664
144846
145032
145216
145398
145582
145766
145950
146142
146340
146540
146746
146944
147152
147352
147552
147756
147952
148146
148342
148538
148728
148920
149110
149294
149480
149668
149852
150034
150224
150410
150594
150780
150968
151150
151338
151522
151706
151890
152078
152264
152450
152638
152826
153014
153200
153382
153566
153746
153922
154100
154282
154460
154642
154822
155000
155180
155358
155536
155716
155896
156072
156250
156428
156604
156780
156958
157134
157308
157484
157662
157846
158034
158228
158424
158624
158830
159038
159238
159434
159626
159818
160008
160198
160382
160570
160756
160942
161128
161312
161500
161684
161870
162054
162236
162420
162604
162786
162966
163150
163328
163506
163686
163862
164038
164216
164384
164554
164722
164892
165062
165234
165406
165584
165758
165938
166120
166300
166482
166662
166842
167022
167206
167388
167574
167762
167946
168130
168314
168494
168678
168864
169048
169236
169426
169612
169800
169992
170188
170380
170576
170774
170974
171184
171392
171588
171788
171986
172188
172384
172584
172788
172994
173190
173382
173574
173764
173964
174156
174350
174542
174722
174904
175084
175272
175460
175652
175836
176020
176212
176396
176580
176770
176960
177146
177334
177524
177712
177898
178088
178276
178462
178646
178824
179004
179188
179366
179548
179730
179908
180088
180266
180440
180618
180796
180970
181144
181322
181498
181672
181852
182030
182208
182388
182568
182746
182926
183104
183284
183462
183644
183824
184002
184180
184356
184530
184704
184878
185050
185224
185400
185572
185746
185920
186096
186268
186442
186618
186790
186964
187138
187312
187484
187662
187834
188006
188180
188358
188538
188714
188898
189078
189260
189446
189626
189806
189988
190172
190348
190524
190708
190886
191060
191238
191414
191590
191766
191942
192116
192288
192466
192642
192818
192996
193176
193352
193532
193710
193886
194064
194238
194416
194592
194770
194946
195118
195294
195466
195638
195814
195996
196178
196366
196556
196744
196938
197132
197320
197506
197698
197882
198066
198250
198434
198614
198794
198976
199154
199332
199512
199690
199868
200054
200232
200410
200592
200772
200950
201130
201308
201484
201664
201842
202018
202194
202370
202548
202724
202898
203074
203250
203426
203598
203774
203952
204128
204312
204496
204686
204890
205084
205286
205486
205678
205870
206062
206250
206434
206550
206806
206988
207172
207354
207534
207714
207900
208082
208264
208450
208634
208816
209000
209180
209362
209542
209716
209890
210064
210244
210430
210606
210786
210968
211146
211322
211500
211678
211862
212046
212236
212428
212616
212808
213004
213198
213390
213586
213774
213960
214152
214338
214526
214712
214896
215082
215264
215450
215634
215818
216004
216188
216370
216556
216736
216918
217098
217278
217456
217636
217814
217992
218170
218348
218526
218702
218880
219058
219234
219412
219588
219766
219948
220136
220326
220520
220722
220918
221118
221318
221510
221704
221900
222088
222276
222470
222658
222842
223032
223218
223402
223590
223774
223956
224140
224324
224506
224686
224868
225050
225228
225412
225592
225772
225948
226126
226304
226478
226654
226828
226998
227172
227346
227520
227698
227878
228064
228262
228454
228650
228848
229034
229222
229408
229586
229764
229942
230118
230294
230476
230656
230834
231016
231198
231378
231562
231744
231926
232112
232296
232480
232662
232848
233030
233210
233394
233572
233752
233928
234104
234280
234456
234628
234802
234974
235146
235318
235488
235658
235826
235994
236166
236346
236532
236716
236914
237106
237302
237498
237694
237884
238074
238264
238448
238632
238818
239002
239184
239370
239554
239736
239918
240100
240280
240462
240642
240822
241006
241188
241370
241554
241736
241916
242096
242278
242458
242636
242818
242996
243176
243358
243538
243718
243896
244076
244268
244458
244650
244852
245054
245252
245450
245650
245842
246038
246228
246416
246606
246798
246986
247174
247368
247554
247742
247934
248118
248302
248492
248676
248860
249050
249234
249416
249598
249784
249966
250150
250334
250514
250696
250876
251054
251234
251412
251588
251766
251942
252118
252292
252464
252638
252810
252990
253168
253350
253542
253734
253926
254122
254314
254504
254694
254880
255068
255252
255438
255620
255804
255984
256172
256356
256538
256720
256904
257084
257264
257444
257622
257804
257984
258164
258342
258522
258700
258878
259056
259232
259408
259582
259756
259932
260114
260298
260486
260672
260872
261060
261252
261448
261634
261818
262004
262190
262374
262556
262740
262920
263100
263280
263460
263638
263816
263994
264174
264352
264532
264712
264890
265072
265252
265434
265618
265802
265986
266178
266362
266546
266730
266838
267092
267272
267454
267630
267810
267996
268190
268378
268576
268780
268976
269176
269376
269570
269762
269958
270156
270348
270542
270740
270930
271120
271316
271516
271714
271908
272108
272308
272506
272704
272902
273100
273298
273498
273692
273884
274080
274268
274458
274650
274844
275038
275226
275416
275612
275796
275984
276174
276360
276546
276738
276934
277124
277316
277516
277712
277908
278108
278308
278506
278704
278902
279096
279292
279486
279680
279870
280068
280262
280454
280654
280850
281044
281240
281436
281628
281822
282020
282214
282404
282604
282796
282988
283184
283376
283564
283754
283944
284130
284320
284508
284696
284884
285078
285268
285458
285646
285828
286016
286202
286396
286576
286762
286952
287144
287324
287510
287698
287882
288068
288256
288442
288628
288814
288996
289184
289370
289556
289742
289928
290112
290294
290474
290652
290838
291022
291204
291386
291568
291748
291928
292104
292280
292458
292638
292812
292992
293178
293378
293568
293680
293972
294174
294374
294578
294778
294976
295176
295376
295574
295768
295964
296164
296362
296564
296768
296970
297168
297368
297568
297680
297964
298168
298362
298558
298756
298952
299146
299342
299540
299734
299924
300120
300312
300504
300698
300894
301088
301282
301480
301674
301874
302070
302262
302460
302664
302854
303058
303274
303474
303676
303880
304080
304290
304492
304688
304894
305096
305298
305504
305706
305912
306110
306306
306504
306700
306898
307090
307284
307482
307674
307868
308066
308264
308460
308658
308856
309052
309252
309452
309646
309840
310034
310222
310408
310596
310784
310968
311156
311346
311536
311726
311920
312114
312304
312502
312694
312884
313078
313268
313456
313644
313834
314018
314204
314392
314572
314754
314940
315118
315296
315478
315658
315836
316014
316194
316374
316552
316730
316906
317084
317266
317448
317634
317826
318022
318218
318416
318618
318812
319008
319204
319396
319588
319788
319978
320170
320366
320556
320744
320940
321128
321316
321502
321688
321872
322060
322246
322428
322616
322798
322980
323162
323342
323522
323702
323884
324064
324246
324430
324616
324802
324990
325178
325366
325554
325742
325928
326116
326304
326492
326680
326866
327046
327234
327424
327610
327792
327976
328162
328346
328530
328714
328900
329084
329268
329454
329638
329820
330006
330192
330382
330574
330766
330958
331154
331348
331540
331740
331928
332122
332318
332512
332706
332906
333098
333290
333486
333680
333870
334066
334258
334448
334638
334840
335038
335246
335446
335648
335844
336044
336238
336428
336618
336812
337002
337192
337384
337580
337774
337964
338160
338360
338558
338758
338962
339162
339360
339558
339758
339954
340148
340348
340544
340738
340936
341132
341326
341516
341710
341904
342094
342288
342480
342668
342858
343050
343236
343422
343614
343800
343988
344182
344372
344562
344750
344940
345124
345310
345494
345674
345858
346042
346228
346420
346612
346808
347006
347198
347388
347580
347772
347958
348146
348338
348526
348714
348904
349096
349284
349474
349664
349860
350052
350244
350442
350636
350832
351030
351228
351424
351620
351816
352012
352208
352406
352602
352796
352990
353186
353382
353576
353770
353962
354152
354342
354532
354724
354916
355114
355314
355504
355700
355896
356090
356282
356480
356680
356876
357072
357270
357466
357662
357858
358050
358244
358440
358638
358830
359022
359236
359440
359648
359848
360046
360240
360436
360628
360820
361010
361206
361398
361588
361782
361976
362168
362364
362558
362750
362942
363136
363330
363524
363722
363924
364122
364316
364506
364694
364882
365074
365264
365460
365644
365834
366026
366216
366402
366592
366782
366974
367162
367352
367546
367740
367932
368122
368314
368504
368692
368880
369070
369256
369442
369628
369816
370000
370184
370366
370546
370726
370908
371090
371270
371450
371634
371816
372000
372182
372364
372544
372730
372906
373088
373276
373456
373640
373828
374016
374202
374394
374584
374776
374972
375162
375354
375548
375736
375926
376120
376312
376504
376694
376888
377080
377272
377464
377652
377842
378032
378220
378406
378594
378780
378962
379150
379344
379526
379714
379904
380094
380284
380476
380668
380860
381058
381250
381446
381638
381826
382016
382208
382400
382588
382776
382958
383144
383336
383518
383702
383890
384080
384266
384456
384646
384834
385024
385210
385400
385590
385776
385962
386150
386340
386528
386718
386910
387092
387282
387474
387664
387852
388048
388232
388422
388620
388802
388988
389180
389362
389546
389730
389914
390094
390282
390468
390652
390836
391024
391206
391388
391572
391754
391934
392116
392302
392488
392674
392862
393052
393238
393426
393616
393804
393994
394184
394370
394556
394744
394930
395114
395296
395480
395664
395848
396032
396214
396400
396588
396774
396960
397146
397330
397516
397694
397876
398054
398236
398420
398612
398794
398978
399164
399350
399534
399720
399908
400092
400276
400460
400642
400822
401004
401184
401362
401536
401718
401890
402066
402244
402420
402600
402782
402966
403152
403338
403526
403716
403900
404084
404268
404448
404630
404822
405006
405196
405388
405580
405770
405964
406158
406350
406546
406746
406940
407136
407338
407532
407724
407920
408118
408312
408506
408706
408894
409086
409280
409466
409654
409842
410030
410214
410400
410594
410772
410958
411152
411334
411520
411708
411900
412086
412274
412466
412654
412842
413038
413230
413420
413612
413806
413996
414186
414380
414572
414762
414954
415150
415334
415524
415716
415904
416092
416284
416472
416662
416850
417038
417224
417414
417608
417790
417978
418166
418352
418540
418730
418914
419102
419288
419476
419662
419852
420036
420220
420406
420594
420776
420962
421150
421332
421518
421702
421886
422072
422260
422446
422632
422822
423008
423196
423384
423570
423756
423948
424134
424320
424508
424696
424882
425072
425262
425450
425640
425826
426016
426208
426396
426592
426790
426990
427196
427390
427584
427780
427974
428164
428354
428540
428726
428920
429104
429288
429478
429674
429858
430048
430238
430424
430612
430800
430992
431180
431368
431558
431748
431934
432126
432318
432506
432694
432888
433082
433270
433456
433652
433840
434024
434214
434402
434586
434772
434966
435152
435344
435534
435724
435922
436112
436304
436496
436690
436880
437066
437254
437444
437634
437820
438006
438196
438382
438568
438756
438944
439132
439318
439502
439688
439870
440058
440248
440432
440620
440806
440992
441172
441356
441538
441718
441888
442068
442246
442430
442612
442796
442976
443160
443350
443536
443724
443912
444100
444286
444470
444656
444842
445020
445200
445382
445562
445738
445914
446088
446268
446450
446632
446810
446990
447172
447348
447524
447698
447872
448044
448220
448398
448574
448750
448932
449116
449300
449488
449672
449854
450038
450224
450410
450596
450778
450960
451138
451320
451504
451686
451868
452050
452242
452422
452604
452786
452970
453156
453334
453514
453694
453874
454050
454226
454406
454590
454774
454956
455136
455320
455508
455698
455888
456072
456256
456446
456636
456824
457008
457188
457366
457546
457726
457908
458086
458264
458442
458626
458818
459008
459196
459388
459576
459684
459950
460138
460328
460514
460700
460886
461074
461256
461436
461620
461802
461980
462158
462336
462516
462692
462868
463048
463224
463398
463570
463744
463918
464094
464270
464446
464624
464800
464974
465146
465316
465486
465652
465818
465984
466152
466318
466482
466650
466818
466982
467148
467314
467480
467646
467812
467978
468146
468312
468480
468646
468812
468976
469142
469306
469470
469636
469794
469956
470120
470282
470442
470600
470762
470922
471082
471244
471404
471564
471722
471882
472040
472198
472360
472520
472678
472838
473000
473162
473322
473486
473650
473812
473974
474138
474302
474466
474630
474792
474954
475120
475282
475446
475610
475772
475930
476092
476254
476414
476576
476736
476896
477058
477224
477386
477552
477718
477882
478048
478218
478388
478558
478734
478906
479080
479252
479426
479594
479766
479940
480108
480278
480446
480614
480782
480948
481116
481282
481452
481616
481782
481948
482112
482272
482430
482596
482762
482922
483082
483244
483408
483568
483730
483890
484052
484212
484374
484536
484698
484860
485026
485188
485352
485520
485684
485850
486014
486178
486342
486506
486672
486836
486996
487158
487322
487480
487644
487808
487970
488132
488296
488456
488620
488784
488944
489106
489268
489430
489598
489764
489932
490104
490284
490466
490650
490838
491032
491218
491406
491598
491788
491974
492160
492350
492532
492714
492904
493092
493274
493460
493646
493832
494018
494206
494392
494574
494760
494946
495128
495312
495498
495680
495866
496052
496238
496420
496602
496788
496970
497154
497338
497524
497710
497894
498088
498270
498456
498648
498840
499026
499218
499408
499594
499780
499970
500156
500344
500534
500722
500904
501092
501284
501468
501650
501838
502024
502208
502394
502580
502762
502946
503132
503316
503498
503684
503868
504048
504234
504418
504598
504780
504964
505148
505330
505516
505698
505880
506068
506254
506440
506626
506808
506988
507172
507364
507552
507736
507926
508112
508298
508486
508670
508852
509038
509222
509406
509592
509780
509966
510154
510346
510532
510722
510912
511100
511286
511478
511666
511850
512036
512224
512406
512592
512780
512964
513148
513330
513520
513700
513888
514080
514268
514458
514650
514840
515026
515212
515400
515582
515766
515952
516134
516316
516502
516686
516870
517052
517238
517420
517606
517792
517974
518154
518338
518516
518698
518882
519062
519242
519426
519606
519786
519970
520148
520322
520502
520680
520856
521040
521220
521404
521594
521784
521978
522176
522376
522572
522772
522974
523166
523360
523554
523744
523934
524126
524314
524498
524684
524876
525060
525246
525434
525616
525798
525986
526176
526362
526552
526744
526936
527126
527318
527510
527696
527888
528078
528264
528456
528650
528836
529024
529218
529408
529596
529792
529990
530176
530362
530550
530738
530924
531112
531304
531494
531682
531870
532058
532246
532434
532624
532810
532998
533188
533376
533560
533748
533936
534122
534306
534496
534678
534860
535048
535232
535416
535606
535796
535982
536170
536362
536552
536738
536930
537120
537308
537500
537692
537880
538064
538252
538442
538626
538814
539002
539190
539378
539568
539752
539936
540128
540314
540498
540686
540878
541060
541250
541444
541632
541820
542012
542196
542382
542568
542756
542940
543124
543312
543500
543686
543872
544062
544244
544434
544628
544816
545000
545184
545370
545558
545748
545934
546120
546314
546504
546692
546886
547078
547270
547462
547658
547850
548040
548232
548424
548612
548800
548994
549180
549368
549558
549748
549934
550124
550310
550494
550678
550866
551052
551234
551416
551598
551780
551964
552148
552332
552516
552704
552898
553086
553284
553484
553684
553882
554080
554280
554470
554664
554858
555048
555236
555426
555616
555806
555994
556188
556382
556572
556764
556960
557154
557346
557542
557736
557930
558124
558316
558506
558700
558890
559082
559278
559472
559660
559850
560044
560238
560432
560634
560830
561028
561232
561432
561628
561824
562022
562214
562410
562604
562796
562980
563174
563366
563552
563740
563930
564118
564306
564498
564682
564868
565060
565244
565430
565618
565806
565994
566184
566374
566564
566752
566944
567130
567318
567506
567690
567874
568060
568246
568430
568616
568804
568988
569172
569364
569554
569742
569932
570116
570304
570496
570682
570868
571056
571248
571436
571630
571818
572008
572196
572388
572576
572764
572952
573138
573324
573512
573698
573882
573990
574252
574436
574618
574798
574976
575152
575330
575510
575692
575876
576062
576246
576432
576620
576806
576992
577180
577368
577554
577742
577926
578110
578296
578486
578674
578864
579060
579252
579446
579642
579830
580018
580212
580400
580590
580784
580976
581172
581368
581558
581750
581944
582132
582318
582508
582698
582886
583074
583262
583446
583632
583818
584004
584188
584376
584562
584748
584936
585122
585310
585498
585686
585872
586062
586248
586432
586618
586804
586994
587184
587372
587562
587750
587936
588124
588308
588490
588672
588856
589036
589214
589388
589562
589740
589918
590100
590286
590474
590660
590852
591046
591236
591426
591616
591800
591984
592168
592348
592526
592706
592890
593076
593258
593440
593618
593794
593972
594150
594336
594510
594684
594862
595044
595224
595404
595582
595758
595936
596114
596290
596468
596646
596828
597010
597188
597368
597552
597742
597920
598102
598294
598486
598682
598866
599052
599246
599434
599624
599816
600006
600192
600382
600570
600760
600948
601132
601318
601510
601698
601884
602070
602260
602446
602636
602828
603016
603206
603398
603590
603780
603972
604162
604352
604544
604736
604924
605112
605304
605494
605686
605878
606068
606256
606436
606620
606810
607000
607180
607360
607546
607728
607912
608098
608290
608470
608656
608844
609030
609216
609398
609586
609776
609972
610170
610354
610546
610738
610928
611116
611304
611498
611688
611882
612058
612238
612424
612604
612782
612960
613138
613314
613490
613672
613852
614030
614208
614386
614562
614742
614920
615098
615278
615458
615640
615824
616012
616196
616380
616568
616756
616942
617130
617320
617512
617696
617886
618078
618266
618452
618640
618828
619012
619200
619390
619578
619762
619954
620146
620336
620526
620720
620912
621102
621296
621492
621686
621884
622078
622270
622462
622660
622844
623034
623226
623418
623608
623800
623990
624182
624378
624572
624762
624952
625150
625338
625530
625722
625914
626104
626296
626486
626672
626858
627048
627234
627418
627608
627800
627990
628180
628374
628566
628756
628952
629144
629334
629528
629720
629912
630108
630304
630498
630698
630894
631088
631280
631478
631672
631862
632056
632250
632442
632636
632830
633018
633210
633404
633598
633790
633984
634176
634364
634550
634740
634940
635134
635332
635544
635746
635948
636152
636354
636552
636752
636956
637150
637342
637540
637736
637928
638124
638320
638516
638712
638910
639102
639296
639498
639694
639892
640098
640298
640496
640696
640902
641100
641302
641508
641710
641910
642112
642312
642508
642710
642910
643104
643298
643498
643688
643884
644080
644278
644470
644670
644872
645066
645262
645462
645662
645856
646050
646248
646442
646634
646832
647028
647224
647426
647630
647832
648038
648248
648444
648642
648848
649048
649246
649446
649646
649840
650034
650236
650430
650622
650824
651016
651210
651406
651604
651796
651994
652192
652386
652578
652778
652970
653168
653370
653564
653768
653976
654182
654388
654596
654796
655000
655194
655390
655580
655770
655964
656156
656348
656544
656736
656928
657118
657306
657492
657678
657868
658056
658250
658450
658644
658840
659040
659236
659434
659642
659842
660038
660234
660426
660614
660810
660998
661186
661376
661572
661762
661952
662146
662336
662528
662722
662920
663114
663308
663506
663702
663894
664090
664288
664480
664674
664870
665066
665258
665448
665640
665830
666026
666218
666412
666610
666802
666996
667194
667388
667584
667784
667974
668168
668366
668554
668746
668940
669132
669322
669518
669714
669906
670104
670304
670496
670694
670894
671094
671290
671492
671694
671892
672090
672292
672486
672682
672884
673074
673260
673458
673650
673848
674040
674232
674426
674616
674804
674996
675194
675378
675572
675770
675962
676160
676364
676564
676770
676976
677172
677378
677592
677786
677986
678194
678388
678590
678796
678994
679190
679390
679592
679782
679982
680188
680388
680596
680814
681020
681226
681436
681654
681864
682066
682274
682482
682696
682894
683098
683300
683506
683702
683902
684108
684314
684514
684716
684924
685124
685326
685530
685734
685932
686134
686340
686536
686736
686944
687138
687340
687544
687744
687854
688146
688344
688536
688728
688926
689118
689310
689504
689698
689890
690092
690288
690490
690692
690888
691090
691296
691494
691692
691892
692088
692282
692478
692668
692856
693048
693236
693422
693618
693814
694006
694204
694406
694608
694814
695028
695236
695446
695660
695870
696078
696286
696492
696690
696896
697096
697294
697496
697694
697888
698082
698278
698470
698664
698858
699048
699236
699430
699620
699814
700014
700206
700398
700598
700792
700984
701178
701364
701554
701748
701938
702128
702320
702506
702690
702874
703062
703254
703444
703650
703856
704056
704268
704476
704676
704884
705080
705270
705460
705646
705826
706008
706192
706370
706554
706734
706912
707094
707272
707450
707630
707824
708016
708210
708408
708612
708818
709032
709226
709424
709616
709810
709998
710182
710370
710552
710738
710928
711120
711314
711514
711716
711914
712114
712316
712514
712710
712908
713108
713302
713494
713690
713886
714080
714278
714484
714676
714876
715080
715278
715482
715686
715884
716086
716288
716488
716686
716890
717086
717290
717494
717694
717894
718096
718302
718506
718712
718920
719122
719328
719536
719740
719944
720152
720358
720560
720768
720976
721180
721388
721600
721806
722012
722218
722424
722628
722830
723036
723232
723438
723646
723848
724050
724254
724456
724650
724854
725060
725260
725464
725666
725876
726074
726280
726488
726692
726898
727106
727310
727514
727720
727928
728128
728334
728542
728744
728948
729156
729358
729562
729766
729974
730176
730382
730588
730788
730990
731194
731398
731596
731800
732004
732202
732402
732606
732808
733006
733210
733418
733620
733830
734040
734248
734450
734656
734858
735058
735262
735470
735672
735878
736088
736294
736498
736706
736906
737110
737316
737518
737716
737920
738118
738314
738516
738714
738908
739106
739304
739496
739690
739884
740070
740266
740460
740656
740854
741050
741244
741436
741630
741820
742020
742236
742446
742644
742844
743044
743244
743446
743648
743852
744052
744252
744462
744674
744876
745082
745290
745498
745702
745912
746128
746336
746542
746748
746966
747170
747382
747594
747796
747998
748208
748414
748614
748822
749028
749226
749426
749630
749834
750032
750236
750440
750636
750836
751036
751230
751428
751626
751820
752016
752218
752422
752626
752824
753022
753224
753424
753622
753820
754018
754220
754424
754626
754832
755038
755244
755450
755656
755862
756064
756272
756476
756682
756890
757096
757300
757508
757712
757918
758134
758342
758552
758768
758978
759192
759406
759616
759822
760028
760228
760428
760622
760814
761014
761218
761424
761624
761838
762052
762258
762472
762688
762898
763106
763320
763524
763728
763936
764144
764346
764556
764762
764962
765166
765374
765578
765778
765982
766186
766384
766588
766792
766994
767194
767400
767604
767802
768012
768218
768416
768614
768818
769014
769214
769418
769618
769824
770028
770234
770442
770650
770864
771068
771280
771496
771708
771922
772140
772352
772562
772774
772988
773196
773406
773622
773834
774046
774260
774472
774680
774894
775108
775314
775524
775736
775944
776152
776362
776568
776772
776970
777182
777394
777602
777812
778022
778228
778434
778644
778846
779046
779252
779456
779658
779860
780068
780268
780476
780688
780892
781100
781310
781514
781716
781924
782130
782344
782546
782752
782964
783170
783376
783572
783684
783964
784156
784346
784534
784726
784914
785102
785298
785494
785692
785892
786090
786286
786480
786680
786876
787072
787272
787476
787674
787876
788078
788278
788476
788678
788880
789082
789286
789488
789690
789894
790100
790302
790506
790708
790908
791112
791312
791512
791716
791916
792118
792322
792526
792724
792928
793130
793330
793534
793740
793940
794140
794344
794542
794738
794938
795136
795332
795530
795724
795920
796120
796318
796512
796708
796904
797100
797296
797496
797688
797886
798088
798284
798484
798688
798884
799082
799284
799482
799678
799878
800072
800270
800468
800662
800858
801054
801254
801444
801640
801834
802024
802216
802416
802612
802806
803008
803208
803402
803598
803800
803996
804194
804398
804598
804798
804976
805198
805398
805602
805810
806008
806208
806414
806610
806812
807018
807220
807420
807628
807832
808032
808240
808446
808646
808852
809054
809256
809456
809658
809856
810058
810256
810454
810654
810850
811046
811244
811440
811636
811834
812030
812224
812426
812624
812818
813018
813218
813414
813614
813826
814022
814226
814434
814636
814844
815052
815258
815462
815670
815870
816068
816270
816466
816664
816864
817064
817260
817456
817656
817850
818050
818252
818450
818654
818860
819066
819264
819470
819678
819874
820082
820286
820482
820686
820898
821096
821300
821508
821712
821916
822122
822324
822524
822730
822930
823066
823342
823540
823656
823938
824136
824328
824522
824722
824910
825106
825304
825500
825698
825900
826108
826302
826506
826710
826910
827114
827320
827522
827724
827932
828134
828336
828540
828744
828942
829144
829348
829546
829748
829950
830150
830352
830556
830758
830960
831154
831344
831540
831740
831932
832134
832338
832538
832746
832956
833158
833362
833568
833770
833970
834174
834380
834582
834788
834994
835198
835400
835606
835812
836012
836216
836424
836620
836820
837022
837220
837418
837620
837818
838018
838222
838424
838626
838830
839034
839228
839430
839636
839834
840038
840242
840442
840644
840846
841048
841244
841444
841642
841836
842036
842232
842426
842616
842814
843006
843200
843398
843592
843784
843982
844182
844372
844570
844772
844972
845174
845378
845582
845784
845992
846200
846402
846610
846820
847022
847228
847438
847642
847848
848058
848262
848466
848670
848876
849076
849280
849482
849682
849882
850088
850284
850484
850690
850886
851084
851284
851484
851678
851878
852080
852276
852478
852682
852882
853084
853290
853492
853694
853898
854100
854306
854516
854728
854936
855146
855358
855566
855766
855972
856184
856382
856584
856784
856986
857182
857386
857584
857780
857978
858182
858378
858580
858792
858988
859194
859402
859606
859810
860018
860224
860426
860636
860840
861042
861246
861454
861656
861860
862066
862268
862470
862672
862868
863066
863268
863466
863666
863864
864058
864252
864452
864648
864844
865040
865236
865430
865630
865832
866032
866234
866440
866642
866852
867062
867268
867476
867686
867890
868094
868306
868508
868714
868924
869136
869342
869548
869760
869964
870076
870376
870572
870770
870972
871168
871364
871566
871766
871964
872164
872366
872564
872768
872972
873170
873368
873572
873772
873974
874180
874386
874588
874800
875010
875216
875424
875634
875840
876046
876256
876460
876662
876864
877068
877266
877468
877676
877874
878076
878282
878484
878688
878896
879100
879304
879510
879714
879916
880122
880330
880524
880728
880936
881136
881340
881550
881748
881954
882162
882368
882572
882782
882988
883192
883400
883608
883812
884018
884226
884430
884636
884844
885044
885250
885456
885656
885854
886060
886262
886466
886672
886876
887080
887286
887492
887694
887902
888110
888314
888522
888728
888930
889138
889346
889548
889752
889956
890158
890360
890566
890768
890968
891174
891380
891586
891792
891996
892196
892402
892608
892810
893016
893224
893428
893636
893844
894046
894246
894450
894658
894860
895070
895280
895484
895690
895896
896098
896298
896500
896698
896892
897092
897292
897490
897694
897898
898098
898300
898514
898722
898932
899144
899352
899564
899780
899990
900202
900414
900620
900828
901038
901244
901452
901664
901876
902090
902302
902516
902726
902942
903154
903360
903572
903782
903988
904198
904408
904614
904822
905032
905236
905438
905646
905842
906046
906258
906466
906678
906898
907104
907316
907530
907740
907952
908170
908382
908596
908814
909022
909232
909440
909642
909846
910054
910258
910462
910668
910874
911080
911292
911498
911704
911914
912122
912328
912540
912752
912960
913180
913400
913608
913818
914032
914242
914452
914656
914858
915062
915272
915478
915688
915898
916104
916316
916528
916730
916942
917154
917360
917574
917788
917998
918206
918410
918610
918810
919012
919212
919416
919626
919828
920036
920244
920448
920656
920866
921070
921282
921494
921700
921908
922114
922326
922526
922722
922920
923118
923314
923514
923716
923912
924112
924316
924518
924724
924934
925142
925350
925562
925770
925976
926186
926398
926604
926812
927020
927222
927424
927630
927834
928034
928234
928432
928626
928832
929030
929228
929430
929636
929844
930058
930268
930486
930706
930922
931132
931338
931552
931764
931974
932186
932390
932594
932800
933010
933214
933414
933616
933826
934030
934230
934432
934638
934846
935046
935252
935460
935666
935878
936092
936308
936516
936736
936954
937164
937382
937604
937818
938040
938264
938488
938706
938928
939152
939366
939582
939800
940014
940224
940438
940652
940858
941066
941280
941490
941692
941902
942116
942322
942530
942742
942948
943156
943368
943574
943782
943992
944202
944408
944616
944824
945026
945234
945442
945646
945848
946058
946266
946470
946676
946878
947074
947276
947480
947680
947880
948090
948300
948508
948720
948930
949138
949348
949554
949762
949972
950180
950390
950598
950810
951016
951226
951438
951646
951854
952064
952268
952468
952666
952860
953056
953250
953448
953644
953844
954048
954252
954464
954680
954892
955106
955324
955536
955748
955964
956176
956388
956602
956814
957020
957228
957438
957642
957848
958058
958262
958472
958678
958878
959082
959284
959482
959682
959884
960084
960278
960474
960676
960866
961062
961266
961460
961658
961860
962056
962254
962456
962652
962852
963054
963250
963450
963654
963854
964054
964258
964458
964660
964866
965068
965268
965472
965676
965876
966078
966284
966480
966682
966882
967084
967276
967474
967676
967870
968070
968274
968476
968674
968874
969084
969282
969480
969682
969882
970082
970288
970492
970688
970892
971098
971298
971500
971712
971918
972122
972330
972538
972738
972938
973146
973348
973544
973744
973946
974142
974340
974544
974746
974948
975156
975358
975558
975764
975970
976168
976372
976578
976782
976986
977192
977400
977600
977806
978014
978216
978422
978632
978832
979036
979244
979450
979648
979856
980068
980270
980476
980684
980890
981092
981296
981502
981700
981902
982104
982304
982504
982708
982910
983108
983312
983522
983722
983928
984134
984340
984542
984748
984956
985152
985356
985562
985760
985958
986164
986366
986564
986766
986972
987174
987374
987580
987782
987982
988184
988388
988588
988786
988988
989190
989386
989588
989786
989980
990176
990370
990558
990750
990942
991130
991314
991508
991700
991892
992084
992278
992474
992674
992880
993084
993290
993498
993710
993912
994122
994328
994532
994736
994946
995150
995356
995562
995764
995876
996172
996372
996568
996768
996968
997164
997360
997560
997756
997956
998158
998358
998556
998760
998968
999168
999372
999580
999782
999988
1000198
1000406
1000612
1000822
1001032
1001240
1001454
1001670
1001882
1002096
1002314
1002522
1002734
1002946
1003158
1003366
1003578
1003790
1003998
1004208
1004422
1004632
1004838
1005048
1005256
1005458
1005664
1005874
1006076
1006278
1006484
1006682
1006884
1007092
1007300
1007504
1007712
1007920
1008126
1008334
1008546
1008754
1008962
1009176
1009384
1009592
1009802
1010012
1010218
1010430
1010636
1010834
1011036
1011240
1011438
1011638
1011840
1012038
1012238
1012448
1012666
1012882
1013100
1013320
1013538
1013748
1013960
1014168
1014378
1014584
1014790
1015000
1015208
1015418
1015630
1015842
1016050
1016258
1016466
1016676
1016884
1017082
1017288
1017496
1017694
1017892
1018094
1018292
1018488
1018686
1018882
1019080
1019276
1019472
1019676
1019878
1020080
1020282
1020486
1020680
1020874
1021064
1021256
1021444
1021632
1021818
1022004
1022186
1022364
1022542
1022724
1022904
1023080
1023260
1023442
1023624
1023806
1023990
1024174
1024358
1024542
1024728
1024910
1025090
1025274
1025452
1025634
1025814
1025990
1026164
1026342
1026518
1026698
1026878
1027056
1027232
1027410
1027590
1027770
1027950
1028130
1028306
1028482
1028658
1028834
1029012
1029186
1029358
1029530
1029698
1029868
1030038
1030206
1030376
1030546
1030716
1030886
1031052
1031226
1031394
1031564
1031736
1031906
1032076
1032246
1032416
1032588
1032758
1032928
1033098
1033266
1033436
1033606
1033774
1033942
1034114
1034282
1034450
1034622
1034790
1034958
1035128
1035296
1035464
1035630
1035796
1035964
1036128
1036292
1036458
1036620
1036784
1036946
1037104
1037264
1037428
1037584
1037744
1037902
1038058
1038216
1038374
1038530
1038688
1038846
1039004
1039160
1039318
1039476
1039636
1039796
1039962
1040118
1040280
1040440
1040604
1040764
1040924
1041086
1041250
1041412
1041576
1041738
1041900
1042062
1042226
1042390
1042552
1042714
1042876
1043038
1043198
1043360
1043518
1043676
1043836
1043996
1044152
1044314
1044474
1044632
1044790
1044948
1045108
1045266
1045422
1045582
1045740
1045896
1046052
1046210
1046368
1046522
1046680
1046834
1046992
1047146
1047302
1047460
1047618
1047774
1047930
1048084
1048240
1048398
1048562
1048722
1048884
1049050
1049212
1049376
1049542
1049706
1049870
1050034
1050198
1050362
1050528
1050692
1050854
1051018
1051182
1051348
1051516
1051684
1051854
1052022
1052196
1052370
1052538
1052704
1052866
1053024
1053184
1053338
1053490
1053646
1053800
1053950
1054100
1054252
1054400
1054550
1054702
1054850
1054998
1055146
1055298
1055446
1055596
1055744
1055892
1056044
1056192
1056340
1056492
1056644
1056796
1056952
1057108
1057264
1057420
1057576
1057730
1057886
1058042
1058194
1058348
1058504
1058658
1058814
1058970
1059124
1059280
1059434
1059588
1059746
1059902
1060060
1060216
1060372
1060528
1060686
1060844
1061002
1061160
1061318
1061474
1061632
1061788
1061944
1062102
1062258
1062416
1062574
1062732
1062890
1063050
1063210
1063368
1063528
1063690
1063848
1064010
1064168
1064324
1064480
1064638
1064796
1064954
1065112
1065270
1065428
1065584
1065738
1065896
1066050
1066206
1066364
1066522
1066678
1066838
1066998
1067158
1067318
1067480
1067642
1067806
1067968
1068130
1068294
1068454
1068616
1068778
1068938
1069096
1069256
1069414
1069576
1069742
1069906
1070074
1070236
1070398
1070564
1070726
1070888
1071050
1071218
1071380
1071544
1071704
1071872
1072036
1072200
1072368
1072532
1072694
1072856
1073028
1073196
1073364
1073536
1073702
1073874
1074042
1074214
1074384
1074552
1074728
1074894
1075062
1075234
1075400
1075566
1075734
1075900
1076064
1076232
1076398
1076560
1076724
1076888
1077046
1077208
1077368
1077532
1077692
1077852
1078016
1078176
1078334
1078500
1078662
1078826
1078984
1079148
1079308
1079476
1079640
1079806
1079972
1080136
1080302
1080470
1080634
1080806
1080982
1081150
1081324
1081498
1081664
1081832
1082000
1082166
1082330
1082498
1082666
1082828
1082992
1083158
1083322
1083484
1083650
1083814
1083974
1084138
1084302
1084462
1084626
1084794
1084958
1085122
1085286
1085454
1085618
1085782
1085948
1086110
1086272
1086438
1086610
1086768
1086936
1087100
1087262
1087428
1087596
1087762
1087926
1088094
1088264
1088430
1088598
1088770
1088940
1089110
1089282
1089458
1089628
1089802
1089974
1090146
1090318
1090492
1090662
1090830
1091010
1091188
1091368
1091536
1091710
1091884
1092052
1092218
1092384
1092548
1092716
1092888
1093052
1093226
1093410
1093580
1093750
1093924
1094100
1094264
1094434
1094608
1094772
1094940
1095110
1095280
1095448
1095616
1095792
1095966
1096136
1096310
1096486
1096658
1096826
1097000
1097176
1097348
1097520
1097700
1097874
1098054
1098234
1098414
1098584
1098758
1098934
1099106
1099280
1099454
1099632
1099804
1099976
1100150
1100328
1100500
1100672
1100844
1101024
1101194
1101366
1101544
1101722
1101888
1102062
1102236
1102418
1102584
1102756
1102926
1103092
1103262
1103444
1103618
1103786
1103966
1104152
1104328
1104506
1104690
1104876
1105052
1105232
1105412
1105588
1105764
1105940
1106118
1106290
1106466
1106642
1106810
1106978
1107152
1107326
1107498
1107672
1107844
1108010
1108176
1108344
1108508
1108670
1108836
1109002
1109164
1109324
1109492
1109656
1109822
1109996
1110164
1110334
1110506
1110676
1110850
1111022
1111192
1111362
1111532
1111698
1111864
1112034
1112208
1112380
1112550
1112720
1112888
1113056
1113222
1113390
1113558
1113728
1113898
1114062
1114228
1114390
1114556
1114722
1114890
1115054
1115218
1115386
1115542
1115710
1115870
1116036
1116202
1116372
1116546
1116710
1116878
1117052
1117228
1117400
1117570
1117750
1117926
1118100
1118276
1118458
1118632
1118812
1118992
1119176
1119356
1119530
1119712
1119894
1120082
1120262
1120444
1120632
1120822
1121004
1121188
1121372
1121562
1121742
1121922
1122106
1122292
1122476
1122654
1122834
1123014
1123190
1123362
1123546
1123724
1123902
1124080
1124264
1124444
1124620
1124802
1124990
1125168
1125344
1125522
1125700
1125872
1126052
1126234
1126410
1126582
1126756
1126932
1127104
1127272
1127444
1127622
1127804
1127980
1128166
1128358
1128556
1128742
1128930
1129124
1129322
1129512
1129702
1129898
1130096
1130298
1130500
1130698
1130888
1131072
1131262
1131452
1131636
1131830
1132024
1132228
1132418
1132602
1132796
1132988
1133188
1133376
1133562
1133750
1133938
1134118
1134296
1134476
1134664
1134850
1135034
1135228
1135420
1135614
1135800
1135988
1136178
1136362
1136542
1136730
1136914
1137096
1137284
1137476
1137676
1137870
1138056
1138252
1138450
1138648
1138840
1139026
1139214
1139396
1139586
1139776
1139974
1140166
1140348
1140538
1140730
1140918
1141102
1141296
1141492
1141676
1141868
1142062
1142256
1142446
1142642
1142844
1143032
1143226
1143424
1143626
1143822
1144024
1144222
1144424
1144612
1144800
1144988
1145180
1145370
1145558
1145746
1145940
1146132
1146322
1146510
1146698
1146886
1147072
1147268
1147466
1147660
1147858
1148054
1148248
1148438
1148628
1148824
1149008
1149196
1149390
1149584
1149768
1149956
1150142
1150334
1150532
1150722
1150916
1151116
1151316
1151504
1151692
1151888
1152084
1152268
1152454
1152646
1152834
1153020
1153214
1153416
1153600
1153792
1153990
1154180
1154366
1154552
1154746
1154938
1155126
1155318
1155512
1155702
1155896
1156098
1156296
1156490
1156686
1156880
1157074
1157266
1157466
1157662
1157858
1158054
1158242
1158428
1158624
1158818
1159008
1159200
1159390
1159586
1159742
1159976
1160168
1160370
1160568
1160754
1160950
1161146
1161344
1161542
1161742
1161932
1162126
1162328
1162530
1162724
1162916
1163114
1163312
1163508
1163700
1163892
1164086
1164284
1164488
1164686
1164886
1165086
1165282
1165476
1165670
1165868
1166064
1166256
1166452
1166650
1166842
1167036
1167238
1167436
1167634
1167828
1168022
1168212
1168398
1168512
1168786
1168972
1169158
1169342
1169524
1169698
1169882
1170070
1170270
1170468
1170668
1170868
1171056
1171248
1171440
1171634
1171828
1172024
1172214
1172402
1172594
1172778
1172962
1173150
1173340
1173532
1173722
1173904
1174094
1174284
1174476
1174672
1174868
1175066
1175250
1175436
1175620
1175808
1176000
1176196
1176390
1176582
1176776
1176974
1177174
1177376
1177574
1177776
1177972
1178160
1178348
1178534
1178724
1178920
1179120
1179322
1179522
1179724
1179924
1180118
1180318
1180520
1180732
1180936
1181138
1181340
1181534
1181726
1181914
1182102
1182286
1182476
1182672
1182870
1183070
1183264
1183464
1183666
1183866
1184074
1184274
1184476
1184670
1184862
1185062
1185262
1185458
1185650
1185844
1186046
1186246
1186444
1186642
1186846
1187044
1187240
1187442
1187640
1187836
1188026
1188214
1188406
1188600
1188796
1188992
1189186
1189376
1189564
1189760
1189952
1190140
1190326
1190514
1190704
1190898
1191092
1191284
1191478
1191666
1191856
1192048
1192238
1192424
1192612
1192804
1192998
1193186
1193372
1193560
1193750
1193940
1194124
1194310
1194490
1194670
1194846
1195028
1195210
1195402
1195594
1195794
1195992
1196190
1196378
1196568
1196764
1196956
1197140
1197330
1197516
1197714
1197910
1198108
1198304
1198508
1198706
1198906
1199102
1199300
1199492
1199690
1199890
1200076
1200266
1200462
1200660
1200856
1201046
1201234
1201416
1201604
1201798
1201994
1202188
1202384
1202578
1202768
1202956
1203156
1203356
1203552
1203750
1203956
1204168
1204376
1204588
1204798
1205006
1205204
1205402
1205608
1205812
1206012
1206206
1206406
1206610
1206812
1207014
1207210
1207404
1207590
1207772
1207956
1208148
1208342
1208542
1208736
1208930
1209116
1209306
1209500
1209700
1209902
1210102
1210306
1210502
1210696
1210892
1211094
1211292
1211484
1211674
1211872
1212070
1212262
1212454
1212652
1212848
1213048
1213246
1213446
1213654
1213856
1214048
1214248
1214452
1214652
1214846
1215046
1215242
1215434
1215638
1215832
1216028
1216224
1216418
1216610
1216810
1217004
1217196
1217388
1217584
1217774
1217962
1218156
1218350
1218544
1218738
1218928
1219116
1219306
1219496
1219690
1219882
1220068
1220250
1220436
1220630
1220822
1221014
1221202
1221392
1221580
1221766
1221952
1222138
1222330
1222514
1222692
1222876
1223064
1223256
1223444
1223632
1223826
1224022
1224222
1224420
1224620
1224816
1225012
1225204
1225392
1225580
1225772
1225964
1226158
1226346
1226530
1226714
1226904
1227100
1227298
1227482
1227666
1227848
1228026
1228208
1228406
1228598
1228794
1228994
1229206
1229408
1229608
1229816
1230020
1230228
1230432
1230630
1230824
1231016
1231202
1231388
1231584
1231774
1231962
1232152
1232350
1232552
1232758
1232952
1233150
1233350
1233552
1233752
1233954
1234142
1234330
1234520
1234708
1234900
1235092
1235284
1235468
1235652
1235838
1236028
1236218
1236412
1236602
1236788
1236968
1237154
1237344
1237538
1237730
1237926
1238118
1238312
1238506
1238700
1238888
1239076
1239268
1239460
1239646
1239834
1240026
1240214
1240400
1240592
1240786
1240972
1241156
1241340
1241528
1241718
1241904
1242090
1242276
1242458
1242648
1242834
1243024
1243216
1243412
1243608
1243804
1243998
1244186
1244372
1244562
1244752
1244944
1245134
1245328
1245510
1245690
1245870
1246058
1246252
1246440
1246634
1246826
1247020
1247216
1247412
1247612
1247810
1248002
1248190
1248376
1248564
1248754
1248944
1249134
1249318
1249506
1249692
1249876
1250060
1250246
1250430
1250612
1250790
1250964
1251138
1251314
1251494
1251670
1251852
1252036
1252224
1252404
1252588
1252778
1252974
1253162
1253354
1253546
1253746
1253944
1254138
1254326
1254512
1254696
1254878
1255060
1255244
1255428
1255618
1255814
1256012
1256216
1256412
1256606
1256802
1256998
1257194
1257384
1257572
1257762
1257962
1258152
1258342
1258538
1258732
1258930
1259130
1259328
1259524
1259710
1259902
1260096
1260292
1260486
1260678
1260868
1261056
1261234
1261416
1261600
1261786
1261972
1262156
1262342
1262530
1262720
1262910
1263104
1263298
1263488
1263672
1263858
1264044
1264232
1264420
1264612
1264790
1264972
1265160
1265352
1265548
1265730
1265918
1266108
1266300
1266494
1266678
1266870
1267060
1267240
1267424
1267608
1267798
1267994
1268192
1268384
1268578
1268776
1268972
1269170
1269356
1269542
1269732
1269920
1270112
1270306
1270492
1270676
1270858
1271042
1271232
1271428
1271612
1271804
1271994
1272192
1272386
1272582
1272782
1272972
1273160
1273348
1273542
1273734
1273922
1274116
1274302
1274488
1274676
1274870
1275056
1275234
1275418
1275602
1275782
1275966
1276146
1276324
1276510
1276704
1276898
1277096
1277302
1277508
1277722
1277924
1278126
1278326
1278526
1278730
1278920
1279114
1279310
1279500
1279690
1279878
1280072
1280262
1280460
1280656
1280852
1281052
1281244
1281438
1281626
1281814
1282006
1282198
1282386
1282576
1282772
1282964
1283148
1283334
1283526
1283724
1283912
1284108
1284304
1284500
1284698
1284900
1285102
1285312
1285524
1285730
1285922
1286128
1286330
1286540
1286744
1286946
1287144
1287346
1287546
1287750
1287956
1288164
1288360
1288554
1288750
1288946
1289146
1289334
1289518
1289706
1289902
1290082
1290268
1290460
1290650
1290840
1291028
1291226
1291424
1291624
1291814
1292008
1292204
1292398
1292600
1292800
1293004
1293202
1293396
1293582
1293768
1293952
1294140
1294336
1294530
1294730
1294924
1295118
1295316
1295508
1295700
1295890
1296076
1296274
1296462
1296652
1296850
1297044
1297238
1297438
1297642
1297836
1298034
1298234
1298434
1298620
1298814
1299012
1299210
1299396
1299584
1299780
1299974
1300166
1300366
1300568
1300776
1300972
1301164
1301356
1301556
1301758
1301954
1302144
1302346
1302552
1302748
1302944
1303146
1303346
1303546
1303742
1303938
1304134
1304334
1304522
1304714
1304904
1305094
1305288
1305482
1305668
1305858
1306052
1306234
1306422
1306606
1306794
1306984
1307182
1307374
1307564
1307754
1307950
1308152
1308344
1308544
1308742
1308942
1309142
1309344
1309544
1309740
1309936
1310122
1310308
1310502
1310700
1310900
1311098
1311296
1311490
1311684
1311884
1312072
1312262
1312456
1312642
1312836
1313032
1313226
1313412
1313600
1313796
1313992
1314196
1314386
1314580
1314776
1314972
1315172
1315372
1315570
1315762
1315958
1316158
1316360
1316560
1316752
1316942
1317142
1317338
1317540
1317742
1317932
1318124
1318318
1318516
1318710
1318906
1319102
1319296
1319498
1319688
1319884
1320068
1320254
1320434
1320618
1320806
1320998
1321194
1321388
1321580
1321774
1321972
1322174
1322374
1322572
1322770
1322974
1323172
1323368
1323568
1323764
1323962
1324158
1324354
1324550
1324748
1324954
1325154
1325358
1325566
1325770
1325972
1326168
1326368
1326564
1326760
1326962
1327164
1327366
1327568
1327772
1327974
1328176
1328376
1328574
1328772
1328962
1329148
1329336
1329522
1329716
1329914
1330112
1330302
1330500
1330702
1330902
1331100
1331304
1331502
1331704
1331902
1332104
1332300
1332500
1332688
1332884
1333070
1333256
1333448
1333644
1333844
1334048
1334248
1334438
1334622
1334812
1335004
1335206
1335414
1335614
1335816
1336024
1336236
1336456
1336660
1336862
1337068
1337272
1337472
1337676
1337878
1338082
1338284
1338488
1338700
1338894
1339092
1339290
1339486
1339686
1339892
1340108
1340314
1340514
1340720
1340920
1341116
1341314
1341514
1341720
1341926
1342132
1342338
1342544
1342740
1342942
1343146
1343346
1343548
1343750
1343948
1344146
1344346
1344542
1344740
1344942
1345144
1345334
1345528
1345730
1345920
1346116
1346314
1346522
1346724
1346930
1347126
1347324
1347522
1347720
1347918
1348114
1348314
1348520
1348712
1348904
1349092
1349284
1349480
1349672
1349862
1350056
1350248
1350442
1350642
1350840
1351032
1351230
1351428
1351614
1351802
1351988
1352172
1352364
1352568
1352764
1352962
1353160
1353364
1353570
1353776
1353986
1354192
1354394
1354596
1354796
1354986
1355182
1355378
1355576
1355760
1355950
1356144
1356340
1356532
1356722
1356914
1357106
1357302
1357486
1357674
1357866
1358058
1358256
1358438
1358624
1358814
1359006
1359200
1359392
1359586
1359782
1359968
1360156
1360352
1360546
1360748
1360942
1361136
1361324
1361508
1361700
1361894
1362092
1362288
1362484
1362678
1362874
1363070
1363276
1363468
1363660
1363852
1364050
1364238
1364428
1364620
1364812
1365014
1365208
1365394
1365580
1365774
1365966
1366154
1366346
1366538
1366726
1366916
1367110
1367302
1367494
1367684
1367874
1368070
1368262
1368456
1368654
1368840
1369028
1369216
1369406
1369606
1369792
1369982
1370170
1370360
1370550
1370750
1370954
1371156
1371356
1371554
1371748
1371942
1372140
1372344
1372538
1372738
1372936
1373130
1373324
1373518
1373718
1373912
1374114
1374304
1374496
1374684
1374876
1375074
1375264
1375452
1375642
1375828
1376024
1376214
1376412
1376610
1376802
1377000
1377198
1377400
1377600
1377792
1377986
1378182
1378382
1378576
1378776
1378976
1379178
1379370
1379562
1379752
1379950
1380140
1380332
1380530
1380722
1380912
1381106
1381302
1381492
1381686
1381878
1382072
1382266
1382454
1382648
1382838
1383034
1383232
1383426
1383624
1383816
1384012
1384212
1384398
1384584
1384766
1384944
1385124
1385308
1385494
1385684
1385880
1386080
1386280
1386478
1386680
1386878
1387076
1387278
1387476
1387676
1387872
1388070
1388270
1388470
1388670
1388868
1389070
1389270
1389470
1389674
1389882
1390090
1390296
1390498
1390698
1390896
1391088
1391282
1391476
1391672
1391868
1392064
1392260
1392460
1392656
1392856
1393054
1393252
1393448
1393644
1393840
1394040
1394246
1394456
1394664
1394868
1395080
1395290
1395414
1395744
1395964
1396186
1396402
1396628
1396830
1397042
1397238
1397456
1397672
1397888
1398092
1398296
1398500
1398708
1398914
1399128
1399338
1399546
1399752
1399956
1400162
1400366
1400564
1400760
1400960
1401164
1401374
1401582
1401782
1401980
1402188
1402388
1402586
1402786
1402992
1403200
1403404
1403608
1403812
1404022
1404232
1404440
1404648
1404856
1405064
1405264
1405460
1405650
1405844
1406042
1406240
1406442
1406638
1406834
1407038
1407238
1407438
1407642
1407854
1408068
1408278
1408490
1408706
1408924
1409136
1409346
1409562
1409778
1409990
1410194
1410402
1410612
1410826
1411034
1411240
1411454
1411670
1411884
1412094
1412306
1412526
1412748
1412962
1413174
1413388
1413604
1413816
1414026
1414234
1414444
1414654
1414856
1415058
1415268
1415478
1415686
1415890
1416100
1416314
1416520
1416730
1416940
1417156
1417366
1417574
1417782
1417988
1418192
1418396
1418610
1418816
1419022
1419232
1419446
1419652
1419856
1420070
1420288
1420500
1420712
1420928
1421142
1421352
1421566
1421784
1422004
1422218
1422436
1422654
1422872
1423082
1423292
1423500
1423708
1423908
1424108
1424312
1424516
1424714
1424914
1425122
1425324
1425528
1425732
1425938
1426146
1426350
1426560
1426770
1426976
1427182
1427390
1427600
1427804
1428010
1428218
1428426
1428630
1428836
1429042
1429246
1429452
1429664
1429870
1430072
1430278
1430486
1430688
1430894
1431098
1431304
1431514
1431726
1431934
1432142
1432354
1432562
1432772
1432984
1433194
1433412
1433632
1433852
1434064
1434280
1434498
1434708
1434918
1435132
1435336
1435546
1435754
1435962
1436168
1436374
1436580
1436782
1436984
1437182
1437390
1437600
1437806
1438010
1438214
1438420
1438626
1438828
1439026
1439232
1439434
1439640
1439838
1440040
1440242
1440442
1440642
1440846
1441050
1441252
1441456
1441656
1441858
1442064
1442266
1442472
1442670
1442860
1443058
1443264
1443476
1443686
1443902
1444120
1444334
1444540
1444742
1444946
1445156
1445370
1445580
1445786
1445988
1446196
1446400
1446606
1446810
1447010
1447214
1447418
1447628
1447838
1448052
1448266
1448482
1448690
1448894
1449104
1449316
1449524
1449728
1449932
1450142
1450348
1450546
1450746
1450950
1451152
1451358
1451552
1451748
1451944
1452150
1452354
1452558
1452758
1452964
1453158
1453350
1453546
1453736
1453926
1454118
1454310
1454496
1454684
1454872
1455064
1455244
1455428
1455618
1455794
1455974
1456152
1456330
1456510
1456692
1456874
1457066
1457262
1457460
1457662
1457870
1458086
1458296
1458502
1458714
1458928
1459138
1459338
1459536
1459734
1459932
1460124
1460314
1460502
1460690
1460884
1461084
1461290
1461496
1461708
1461920
1462132
1462350
1462568
1462786
1463004
1463220
1463440
1463652
1463868
1464088
1464308
1464524
1464740
1464954
1465168
1465386
1465608
1465828
1466044
1466262
1466476
1466686
1466902
1467114
1467326
1467534
1467744
1467954
1468162
1468366
1468570
1468776
1468976
1469172
1469364
1469558
1469760
1469958
1470158
1470358
1470558
1470762
1470974
1471182
1471384
1471586
1471796
1472002
1472204
1472412
1472616
1472820
1473034
1473242
1473450
1473662
1473876
1474088
1474296
1474500
1474710
1474916
1475116
1475318
1475520
1475728
1475936
1476142
1476348
1476552
1476756
1476962
1477170
1477376
1477580
1477782
1477982
1478184
1478384
1478588
1478794
1478998
1479202
1479400
1479598
1479798
1480000
1480204
1480408
1480616
1480824
1481030
1481240
1481452
1481662
1481862
1482076
1482278
1482484
1482690
1482894
1483096
1483296
1483498
1483700
1483902
1484102
1484302
1484506
1484712
1484922
1485124
1485328
1485534
1485742
1485948
1486152
1486358
1486564
1486770
1486980
1487190
1487400
1487604
1487810
1488014
1488218
1488420
1488618
1488818
1489016
1489222
1489428
1489634
1489848
1490048
1490254
1490462
1490670
1490878
1491092
1491304
1491514
1491726
1491938
1492148
1492358
1492560
1492762
1492960
1493162
1493368
1493572
1493782
1493996
1494202
1494408
1494618
1494824
1495032
1495244
1495460
1495674
1495888
1496102
1496312
1496522
1496736
1496948
1497156
1497368
1497584
1497800
1498006
1498216
1498428
1498636
1498846
1499058
1499176
1499484
1499702
1499914
1500124
1500334
1500534
1500742
1500944
1501146
1501354
1501562
1501768
1501976
1502182
1502394
1502594
1502794
1502990
1503186
1503376
1503566
1503760
1503962
1504168
1504376
1504582
1504788
1504998
1505206
1505418
1505634
1505848
1505960
1506262
1506466
1506662
1506866
1507072
1507276
1507488
1507700
1507910
1508122
1508334
1508550
1508766
1508978
1509194
1509410
1509620
1509834
1510052
1510264
1510476
1510688
1510898
1511106
1511316
1511526
1511732
1511942
1512154
1512362
1512570
1512780
1512994
1513206
1513418
1513636
1513858
1514076
1514292
1514506
1514724
1514942
1515158
1515366
1515576
1515782
1515990
1516200
1516404
1516620
1516828
1517036
1517242
1517446
1517648
1517850
1518060
1518274
1518486
1518694
1518904
1519110
1519322
1519534
1519746
1519946
1520148
1520356
1520562
1520770
1520974
1521178
1521388
1521604
1521806
1522010
1522214
1522418
1522622
1522820
1523016
1523208
1523404
1523600
1523802
1524000
1524204
1524406
1524612
1524814
1525022
1525218
1525412
1525614
1525814
1526012
1526216
1526420
1526632
1526840
1527038
1527234
1527438
1527644
1527856
1528060
1528256
1528454
1528654
1528856
1529054
1529260
1529464
1529668
1529874
1530076
1530272
1530476
1530684
1530886
1531082
1531282
1531480
1531682
1531884
1532080
1532274
1532472
1532672
1532872
1533072
1533276
1533484
1533690
1533898
1534110
1534314
1534518
1534720
1534932
1535138
1535338
1535530
1535716
1535906
1536094
1536282
1536472
1536662
1536854
1537050
1537252
1537450
1537648
1537848
1538058
1538262
1538466
1538674
1538884
1539088
1539290
1539494
1539698
1539900
1540104
1540310
1540514
1540712
1540912
1541116
1541316
1541516
1541720
1541930
1542136
1542342
1542550
1542760
1542970
1543172
1543380
1543590
1543802
1544010
1544220
1544430
1544642
1544852
1545060
1545270
1545480
1545692
1545898
1546104
1546302
1546502
1546712
1546922
1547134
1547354
1547580
1547800
1548024
1548250
1548476
1548700
1548926
1549152
1549374
1549600
1549824
1550044
1550260
1550478
1550702
1550922
1551140
1551360
1551582
1551802
1552020
1552240
1552456
1552666
1552880
1553092
1553302
1553510
1553720
1553934
1554146
1554352
1554556
1554678
1554980
1555196
1555412
1555626
1555838
1556044
1556252
1556464
1556676
1556884
1557090
1557302
1557514
1557722
1557934
1558146
1558360
1558568
1558782
1558996
1559210
1559416
1559624
1559836
1560048
1560256
1560462
1560674
1560890
1561100
1561310
1561526
1561740
1561948
1562154
1562362
1562568
1562772
1562980
1563188
1563396
1563598
1563800
1564010
1564218
1564420
1564624
1564832
1565040
1565246
1565448
1565654
1565866
1566072
1566278
1566486
1566700
1566908
1567116
1567324
1567532
1567742
1567948
1568158
1568368
1568574
1568776
1568982
1569194
1569400
1569610
1569820
1570036
1570246
1570458
1570674
1570892
1571104
1571320
1571536
1571746
1571956
1572164
1572374
1572578
1572784
1572994
1573204
1573410
1573616
1573830
1574042
1574248
1574454
1574660
1574856
1575054
1575258
1575460
1575662
1575866
1576076
1576280
1576484
1576692
1576904
1577114
1577326
1577544
1577756
1577970
1578186
1578398
1578608
1578822
1579040
1579256
1579472
1579686
1579896
1580108
1580322
1580536
1580746
1580958
1581166
1581378
1581594
1581812
1582026
1582244
1582460
1582674
1582886
1583098
1583308
1583524
1583734
1583944
1584152
1584364
1584584
1584792
1585000
1585208
1585414
1585618
1585824
1586030
1586234
1586444
1586650
1586854
1587062
1587268
1587474
1587686
1587896
1588104
1588320
1588532
1588748
1588966
1589184
1589396
1589614
1589834
1590046
1590258
1590472
1590688
1590898
1591114
1591330
1591544
1591762
1591982
1592200
1592412
1592628
1592846
1593058
1593266
1593478
1593688
1593896
1594102
1594306
1594508
1594714
1594918
1595120
1595324
1595532
1595738
1595938
1596146
1596352
1596560
1596766
1596974
1597182
1597388
1597598
1597800
1597998
1598198
1598408
1598606
1598806
1599016
1599216
1599420
1599628
1599838
1600050
1600264
1600478
1600694
1600902
1601108
1601310
1601514
1601726
1601936
1602148
1602366
1602578
1602790
1603006
1603218
1603432
1603640
1603848
1604058
1604268
1604472
1604684
1604896
1605106
1605314
1605526
1605740
1605948
1606164
1606382
1606600
1606816
1607038
1607258
1607478
1607698
1607922
1608142
1608360
1608576
1608798
1609014
1609126
1609450
1609664
1609876
1610088
1610304
1610516
1610726
1610938
1611152
1611362
1611580
1611800
1612014
1612228
1612452
1612676
1612896
1613114
1613334
1613560
1613786
1614002
1614222
1614444
1614668
1614878
1615086
1615294
1615508
1615722
1615932
1616138
1616346
1616556
1616776
1616984
1617192
1617404
1617612
1617826
1618034
1618250
1618466
1618682
1618900
1619116
1619342
1619562
1619780
1620000
1620218
1620434
1620650
1620848
1621050
1621250
1621460
1621672
1621884
1622092
1622302
1622518
1622736
1622956
1623170
1623384
1623600
1623812
1624028
1624234
1624440
1624646
1624858
1625064
1625270
1625478
1625688
1625900
1626116
1626336
1626552
1626770
1626886
1627218
1627434
1627652
1627872
1628090
1628306
1628522
1628740
1628958
1629174
1629392
1629608
1629822
1630036
1630246
1630460
1630672
1630880
1631096
1631314
1631528
1631748
1631970
1632186
1632398
1632602
1632810
1633020
1633232
1633452
1633670
1633888
1634108
1634332
1634552
1634768
1634986
1635204
1635414
1635624
1635834
1636052
1636266
1636484
1636704
1636928
1637152
1637374
1637598
1637826
1638050
1638278
1638504
1638726
1638952
1639178
1639400
1639622
1639838
1640052
1640268
1640488
1640702
1640916
1641134
1641354
1641568
1641782
1641998
1642216
1642426
1642638
1642848
1643062
1643276
1643490
1643702
1643922
1644130
1644346
1644568
1644784
1645002
1645224
1645448
1645660
1645872
1646086
1646304
1646512
1646720
1646932
1647146
1647362
1647562
1647762
1647960
1648162
1648366
1648578
1648792
1648998
1649208
1649418
1649630
1649842
1650056
1650264
1650474
1650686
1650900
1651108
1651322
1651532
1651746
1651966
1652186
1652410
1652626
1652844
1653064
1653282
1653502
1653724
1653944
1654158
1654376
1654602
1654820
1655044
1655274
1655494
1655720
1655950
1656176
1656400
1656630
1656852
1657072
1657282
1657502
1657722
1657942
1658154
1658370
1658594
1658818
1659046
1659258
1659470
1659674
1659884
1660100
1660316
1660532
1660742
1660958
1661170
1661386
1661602
1661820
1662044
1662266
1662486
1662714
1662942
1663166
1663392
1663620
1663848
1664070
1664294
1664522
1664740
1664960
1665184
1665406
1665624
1665844
1666068
1666284
1666500
1666714
1666928
1667148
1667364
1667476
1667790
1668002
1668212
1668426
1668644
1668856
1669074
1669292
1669508
1669728
1669956
1670184
1670408
1670632
1670858
1671078
1671302
1671524
1671744
1671962
1672180
1672396
1672612
1672820
1673038
1673256
1673480
1673694
1673910
1674132
1674344
1674562
1674776
1674992
1675216
1675444
1675662
1675882
1676102
1676324
1676540
1676752
1676964
1677188
1677414
1677638
1677860
1678084
1678306
1678528
1678746
1678968
1679190
1679402
1679620
1679838
1680054
1680270
1680486
1680704
1680928
1681150
1681374
1681600
1681826
1682044
1682262
1682490
1682714
1682934
1683158
1683380
1683598
1683818
1684042
1684268
1684486
1684710
1684936
1685162
1685382
1685606
1685834
1686060
1686280
1686502
1686724
1686948
1687172
1687402
1687634
1687858
1688084
1688310
1688538
1688758
1688982
1689210
1689438
1689658
1689882
1690108
1690336
1690560
1690780
1691002
1691228
1691444
1691664
1691886
1692110
1692328
1692546
1692764
1692982
1693198
1693412
1693632
1693850
1694066
1694278
1694496
1694712
1694924
1695142
1695362
1695578
1695792
1696012
1696234
1696452
1696668
1696890
1697108
1697324
1697542
1697754
1697968
1698182
1698398
1698616
1698832
1699040
1699254
1699476
1699704
1699918
1700140
1700358
1700576
1700796
1701020
1701244
1701474
1701688
1701906
1702126
1702348
1702566
1702784
1703006
1703226
1703446
1703670
1703896
1704120
1704346
1704576
1704800
1705024
1705246
1705474
1705698
1705918
1706140
1706360
1706576
1706800
1707022
1707240
1707458
1707678
1707894
1708108
1708324
1708542
1708760
1708976
1709190
1709410
1709630
1709854
1710080
1710300
1710524
1710742
1710960
1711180
1711398
1711608
1711822
1712034
1712242
1712454
1712670
1712882
1713092
1713308
1713520
1713734
1713946
1714154
1714358
1714558
1714766
1714974
1715180
1715388
1715598
1715804
1716000
1716202
1716408
1716614
1716816
1717016
1717222
1717430
1717638
1717848
1718066
1718280
1718500
1718724
1718946
1719162
1719380
1719598
1719812
1720022
1720234
1720448
1720658
1720870
1721084
1721300
1721508
1721722
1721940
1722154
1722368
1722588
1722804
1723020
1723240
1723470
1723698
1723916
1724142
1724370
1724596
1724816
1725046
1725276
1725506
1725730
1725964
1726198
1726426
1726648
1726870
1727090
1727308
1727526
1727746
1727966
1728182
1728398
1728620
1728838
1729058
1729284
1729508
1729728
1729952
1730178
1730396
1730614
1730840
1731068
1731292
1731518
1731748
1731978
1732202
1732428
1732656
1732878
1733100
1733324
1733546
1733766
1733988
1734208
1734426
1734648
1734874
1735094
1735320
1735546
1735766
1735988
1736214
1736438
1736660
1736888
1737116
1737340
1737568
1737796
1738024
1738246
1738472
1738702
1738922
1739148
1739374
1739598
1739822
1740048
1740270
1740490
1740716
1740944
1741166
1741392
1741622
1741848
1742072
1742300
1742524
1742746
1742974
1743200
1743424
1743648
1743870
1744084
1744296
1744510
1744726
1744936
1745150
1745362
1745574
1745784
1746002
1746224
1746442
1746660
1746882
1747110
1747330
1747556
1747786
1748012
1748242
1748474
1748702
1748926
1749158
1749390
1749614
1749844
1750076
1750304
1750526
1750752
1750982
1751202
1751422
1751646
1751868
1752086
1752310
1752532
1752748
1752978
1753208
1753434
1753654
1753878
1754100
1754314
1754530
1754744
1754952
1755166
1755388
1755606
1755832
1756064
1756290
1756514
1756740
1756960
1757182
1757404
1757618
1757836
1758056
1758274
1758488
1758704
1758922
1759134
1759346
1759554
1759764
1759976
1760186
1760396
1760608
1760818
1761032
1761246
1761458
1761670
1761886
1762102
1762320
1762538
1762750
1762970
1763188
1763402
1763620
1763838
1764050
1764264
1764478
1764690
1764902
1765116
1765326
1765538
1765754
1765970
1766180
1766398
1766616
1766828
1767046
1767266
1767480
1767698
1767918
1768138
1768352
1768572
1768794
1769012
1769228
1769450
1769670
1769884
1770102
1770324
1770542
1770758
1770984
1771210
1771432
1771652
1771878
1772098
1772314
1772534
1772758
1772976
1773190
1773410
1773630
1773846
1774064
1774288
1774506
1774724
1774942
1775158
1775376
1775596
1775814
1776028
1776246
1776466
1776682
1776898
1777114
1777326
1777538
1777756
1777970
1778180
1778394
1778608
1778816
1779022
1779228
1779434
1779640
1779850
1780056
1780266
1780480
1780690
1780904
1781120
1781338
1781550
1781764
1781982
1782196
1782408
1782622
1782834
1783042
1783252
1783464
1783670
1783876
1784090
1784298
1784506
1784714
1784920
1785124
1785332
1785542
1785750
1785958
1786172
1786386
1786596
1786810
1787028
1787240
1787454
1787666
1787878
1788090
1788302
1788516
1788724
1788936
1789148
1789360
1789568
1789782
1789996
1790208
1790420
1790636
1790850
1791058
1791270
1791482
1791690
1791896
1792106
1792310
1792514
1792718
1792924
1793126
1793332
1793540
1793746
1793952
1794162
1794376
1794586
1794796
1795012
1795226
1795436
1795650
1795866
1796078
1796292
1796510
1796720
1796934
1797150
1797370
1797584
1797800
1798014
1798232
1798444
1798658
1798872
1799086
1799308
1799524
1799740
1799959
