peaks
188
410
626
840
1060
1288
1520
1750
1984
2220
2456
2692
2932
3176
3418
3662
3908
4152
4384
4608
4728
5050
5272
5490
5712
5928
6148
6370
6594
6818
7046
7267
7494
7714
7940
8164
8386
8612
8832
9060
9284
9508
9736
9966
10192
10422
10656
10882
11116
11350
11580
11816
12046
12276
12506
12732
12964
13194
13418
13648
13876
14100
14326
14552
14778
15002
15222
15448
15670
15890
16112
16338
16562
16788
17010
17236
17460
17678
17904
18124
18344
18566
18790
19014
19238
19464
19690
19908
20045
20358
20588
20808
21028
21248
21472
21694
21916
22144
22370
22594
22820
23044
23270
23492
23714
23856
24164
24390
24608
24826
25042
25264
25488
25712
25936
26160
26390
26618
26846
27082
27310
27544
27780
28008
28240
28474
28702
28936
29164
29392
29622
29852
30084
30314
30544
30772
31002
31232
31466
31588
31934
32168
32394
32624
32854
33084
33314
33546
33776
34012
34242
34476
34716
34948
35190
35428
35662
35900
36136
36374
36612
36846
37086
37322
37556
37794
38034
38266
38502
38740
38976
39206
39334
39664
39898
40126
40358
40588
40820
41054
41286
41524
41762
41996
42234
42470
42708
42850
43178
43410
43642
43868
44100
44330
44558
44788
45020
45250
45486
45722
45956
46194
46428
46588
46900
47130
47360
47590
47820
48048
48280
48516
48746
48978
49206
49440
49670
49902
50132
50368
50602
50832
51064
51298
51532
51766
52000
52236
52470
52704
52938
53168
53400
53630
53856
54084
54312
54536
54760
54988
55212
55442
55582
55900
56136
56364
56594
56824
57050
57286
57516
57748
57982
58212
58446
58680
58900
59134
59362
59590
59818
60044
60276
60504
60734
60970
61198
61430
61666
61898
62130
62364
62596
62828
63060
63292
63524
63762
63990
64224
64452
64678
64908
65142
65372
65604
65842
66076
66316
66556
66790
67032
67270
67506
67746
67978
68214
68448
68684
68918
69152
69386
69618
69854
70086
70318
70436
70782
71016
71244
71470
71696
71924
72152
72386
72618
72854
73090
73322
73562
73798
74034
74272
74506
74740
74974
75208
75440
75676
75912
76146
76382
76612
76848
77080
77316
77550
77784
78020
78252
78484
78712
78942
79176
79408
79646
79880
80124
80364
80606
80848
81090
81328
81562
81800
82038
82280
82518
82752
82994
83232
83466
83706
83944
84182
84420
84652
84888
85118
85356
85592
85830
86070
86306
86538
86776
87016
87250
87490
87726
87964
88198
88436
88676
88918
89158
89392
89630
89868
90102
90342
90578
90814
91056
91294
91530
91768
92010
92240
92412
92712
92942
93170
93396
93618
93756
94072
94298
94446
94752
94976
95132
95430
95658
95820
96112
96332
96498
96788
97010
97236
97460
97582
97908
98130
98298
98580
98702
99040
99274
99436
99724
99946
100164
100376
100584
100806
101030
101262
101478
101662
101932
102164
102404
102644
102882
103118
103354
103588
103820
104056
104292
104528
104760
104994
105228
105462
105694
105924
106154
106386
106610
106840
107068
107296
107516
107738
107962
108182
108406
108628
108850
109076
109296
109516
109738
109960
110184
110412
110646
110876
111108
111342
111570
111806
112038
112266
112498
112732
112966
113200
113352
113670
113896
114134
114366
114600
114830
115064
115296
115522
115754
115984
116214
116444
116588
116902
117128
117352
117574
117796
117936
118240
118384
118676
118900
119118
119340
119562
119682
120008
120240
120468
120694
120922
121110
121380
121606
121838
122064
122292
122524
122754
122986
123126
123448
123684
123914
124146
124378
124612
124776
125070
125292
125520
125744
125968
126194
126422
126650
126880
127114
127352
127592
127834
128070
128310
128450
128782
129020
129254
129490
129720
129958
130198
130432
130670
130906
131140
131380
131612
131846
132078
132314
132550
132786
133022
133258
133492
133722
133954
134186
134336
134648
134802
135106
135340
135564
135796
136024
136250
136482
136714
136942
137178
137318
137642
137882
138030
138348
138584
138740
139044
139278
139508
139740
139972
140204
140434
140670
140906
141140
141380
141614
141748
142078
142314
142542
142768
142998
143136
143452
143680
143836
144126
144354
144578
144804
145028
145256
145482
145712
145940
146170
146398
146624
146858
147088
147316
147544
147774
148004
148226
148450
148676
148896
149118
149340
149562
149786
149996
150216
150438
150662
150884
151106
151332
151560
151784
152008
152228
152450
152666
152886
153100
153314
153530
153746
153960
154172
154390
154608
154824
154950
155260
155476
155686
155896
156096
156298
156496
156696
156892
157092
157288
157484
157686
157880
158082
158284
158488
158688
158880
159084
159284
159482
159684
159884
160082
160282
160482
160678
160876
161076
161272
161400
161636
161830
161954
162190
162382
162576
162766
162958
163148
163338
163478
163712
163900
164088
164270
164456
164638
164826
164974
165198
165390
165578
165764
165956
166144
166334
166528
166720
166914
167110
167304
167500
167698
167896
168100
168302
168500
168654
168898
169104
169310
169510
169710
169910
170114
170312
170516
170720
170920
171122
171320
171522
171722
171916
172108
172296
172486
172676
172864
173048
173236
173426
173582
173804
173994
174186
174378
174564
174758
174952
175138
175332
175482
175714
175910
176096
176290
176482
176672
176868
177068
177262
177464
177602
177866
178076
178282
178488
178694
178898
179100
179304
179502
179706
179912
180114
180318
180522
180674
180928
181068
181334
181536
181734
181926
182118
182310
182502
182698
182886
183086
183288
183482
183684
183884
184088
184298
184438
184712
184920
185130
185336
185534
185734
185938
186140
186338
186540
186738
186936
187142
187350
187554
187764
187976
188184
188396
188608
188816
189030
189238
189448
189662
189870
190082
190298
190510
190728
190946
191112
191374
191514
191804
192018
192170
192444
192654
192866
192996
193274
193452
193674
193880
194084
194248
194506
194726
194946
195170
195386
195608
195822
196042
196248
196466
196606
196890
197094
197294
197490
197688
197884
198080
198276
198472
198668
198864
199054
199246
199442
199636
199832
200032
200230
200350
200624
200834
201024
201222
201422
201616
201814
202014
202210
202362
202580
202788
202992
203192
203392
203594
203792
203992
204194
204388
204588
204788
204988
205190
205390
205590
205794
205992
206196
206400
206606
206814
207024
207232
207440
207648
207854
208060
208272
208482
208690
208904
209114
209326
209536
209740
209948
210158
210368
210570
210776
210980
211186
211392
211596
211802
212008
212172
212412
212610
212810
213006
213204
213400
213600
213796
213992
214190
214390
214582
214780
214974
215162
215356
215544
215730
215918
216104
216292
216478
216660
216846
217032
217171
217398
217582
217760
217936
218075
218284
218456
218632
218808
218986
219166
219342
219464
219692
219872
220048
220224
220354
220568
220746
220918
221094
221272
221450
221632
221820
222006
222198
222388
222578
222774
222964
223158
223354
223550
223746
223942
224140
224336
224534
224730
224924
225120
225264
225504
225698
225884
226072
226211
226450
226638
226770
227014
227202
227390
227578
227766
227952
228140
228328
228518
228714
228904
229096
229294
229488
229678
229876
230076
230270
230468
230674
230874
231080
231294
231418
231702
231912
232112
232322
232530
232644
232942
233152
233306
233574
233782
233984
234192
234392
234596
234802
235004
235216
235422
235632
235840
236050
236256
236468
236678
236890
237100
237312
237528
237752
237972
238194
238412
238622
238832
238971
239258
239466
239624
239878
240084
240286
240482
240678
240878
241076
241276
241478
241682
241890
242094
242296
242498
242698
242896
243094
243294
243494
243690
243892
244094
244288
244486
244692
244894
245038
245294
245492
245690
245884
246082
246210
246452
246654
246846
247042
247240
247442
247638
247842
248056
248270
248482
248696
248916
249134
249352
249570
249788
250006
250222
250436
250652
250868
251082
251290
251504
251718
251928
252140
252352
252562
252774
252988
253202
253416
253634
253848
254062
254274
254486
254700
254912
255126
255338
255550
255762
255968
256178
256376
256574
256702
256960
257176
257319
257562
257756
257946
258132
258318
258438
258692
258882
259025
259252
259436
259624
259806
259998
260190
260392
260594
260796
260994
261196
261398
261604
261808
262010
262214
262420
262624
262826
263032
263234
263440
263646
263856
264066
264270
264472
264672
264876
265076
265272
265470
265670
265866
265996
266262
266466
266668
266872
267016
267288
267498
267706
267910
268120
268258
268526
268736
268940
269148
269350
269496
269748
269938
270158
270358
270560
270670
270938
271156
271302
271552
271758
271968
272114
272390
272606
272818
273034
273170
273464
273684
273898
274030
274312
274526
274728
274930
275134
275342
275548
275746
275950
276156
276354
276558
276686
276958
277176
277382
277592
277802
278014
278228
278444
278662
278878
279098
279316
279530
279750
279962
280176
280390
280602
280816
281028
281240
281452
281662
281878
282012
282312
282532
282658
282956
283172
283298
283590
283806
283934
284228
284442
284570
284854
285074
285282
285490
285636
285908
286052
286330
286538
286746
286956
287162
287372
287576
287780
287986
288188
288392
288592
288794
288996
289196
289342
289598
289726
289984
290190
290328
290574
290768
290903
291156
291348
291502
291742
291940
292092
292344
292544
292696
292946
293156
293300
293556
293766
293906
294168
294368
294506
294776
294982
295122
295388
295532
295792
295994
296190
296388
296584
296790
297000
297208
297424
297628
297838
298048
298256
298460
298672
298878
299084
299288
299404
299692
299896
300094
300300
300502
300706
300914
301120
301330
301540
301754
301902
302180
302392
302600
302806
303006
303204
303406
303604
303726
304006
304208
304400
304598
304796
304992
305182
305374
305568
305760
305956
306156
306354
306554
306758
306964
307170
307378
307584
307796
308004
308210
308412
308620
308826
309030
309232
309458
309676
309896
310110
310328
310542
310754
310972
311188
311404
311622
311838
312054
312270
312482
312688
312902
313108
313314
313520
313722
313926
314126
314328
314528
314672
314922
315122
315324
315528
315734
315944
316082
316376
316598
316719
317046
317272
317492
317712
317936
318160
318388
318530
318850
319082
319308
319536
319764
319988
320218
320330
320668
320886
321106
321320
321538
321758
321980
322204
322432
322660
322884
323114
323342
323568
323798
324022
324136
324478
324704
324930
325154
325376
325604
325832
326056
326282
326504
326728
326866
327178
327400
327620
327834
328054
328184
328492
328712
328926
329144
329364
329500
329810
330030
330252
330474
330602
330926
331154
331378
331608
331840
332074
332314
332552
332794
333036
333276
333518
333758
333998
334236
334472
334708
334942
335174
335406
335636
335872
336100
336336
336568
336804
337040
337276
337514
337750
337986
338222
338456
338692
338922
339150
339382
339616
339852
340088
340324
340566
340808
341048
341288
341526
341770
342012
342254
342496
342736
342976
343214
343446
343680
343916
344148
344384
344614
344850
345080
345312
345544
345770
346002
346234
346466
346698
346930
347164
347398
347634
347866
348100
348332
348488
348798
349030
349258
349488
349718
349946
350178
350410
350642
350874
351108
351344
351576
351810
352044
352272
352504
352736
352966
353198
353326
353662
353892
354120
354286
354578
354804
355032
355260
355490
355722
355958
356198
356434
356670
356908
357144
357380
357616
357856
358090
358322
358552
358782
359010
359238
359466
359692
359920
360148
360376
360606
360838
361072
361308
361544
361780
362014
362244
362476
362708
362940
363170
363402
363634
363866
364102
364336
364574
364808
365046
365282
365518
365756
365994
366228
366462
366706
366942
367180
367416
367656
367892
368122
368354
368582
368812
369042
369274
369506
369738
369970
370202
370436
370666
370900
371132
371292
371594
371830
372056
372286
372512
372662
372960
373184
373406
373622
373758
374050
374264
374478
374686
374900
375114
375324
375540
375754
375970
376188
376404
376622
376832
377046
377246
377454
377660
377862
378064
378262
378462
378656
378856
379056
379258
379458
379660
379868
380068
380198
380472
380680
380838
381102
381312
381460
381732
381942
382092
382360
382568
382722
382990
383196
383348
383598
383802
383954
384194
384390
384590
384736
384984
385180
385374
385564
385760
385926
386146
386344
386544
386744
386946
387146
387346
387544
387744
387948
388146
388348
388552
388748
388948
389150
389346
389546
389742
389946
390142
390340
390538
390736
390932
391134
391334
391534
391730
391930
392126
392324
392520
392714
392906
393094
393284
393474
393664
393858
394016
394244
394438
394634
394832
394994
395228
395426
395626
395828
396034
396240
396450
396662
396874
397086
397304
397520
397736
397954
398170
398384
398600
398816
399030
399246
399460
399678
399894
400112
400332
400462
400768
400988
401202
401368
401626
401834
402048
402258
402470
402684
402898
403108
403324
403540
403754
403964
404180
404396
404610
404824
405038
405252
405466
405674
405886
406028
406158
406494
406718
406934
407138
407344
407548
407750
407958
408160
408364
408572
408776
408982
409196
409398
409610
409818
410026
410236
410442
410650
410862
411076
411286
411504
411716
411926
412138
412282
412564
412774
412913
413190
413394
413600
413804
414010
414220
414430
414642
414852
415062
415200
415486
415696
415908
416118
416328
416538
416750
416968
417182
417400
417620
417838
418058
418192
418500
418720
418846
419148
419366
419496
419778
420002
420210
420416
420626
420830
421040
421246
421452
421656
421860
422068
422202
422474
422598
422868
423088
423292
423490
423686
423882
424072
424270
424470
424664
424864
425062
425264
425466
425584
425852
426068
426276
426482
426684
426886
427092
427298
427500
427698
427900
428104
428312
428518
428720
428924
429126
429330
429532
429738
429940
430144
430348
430552
430754
430952
431156
431358
431558
431762
431958
432162
432360
432498
432764
432966
433168
433364
433566
433762
433966
434166
434366
434566
434766
434972
435180
435392
435600
435806
436018
436220
436432
436646
436862
437078
437290
437506
437720
437932
438140
438354
438562
438772
438974
439182
439386
439586
439790
439992
440198
440400
440602
440806
441010
441210
441368
441622
441828
442034
442238
442440
442642
442848
443056
443190
443474
443686
443900
444106
444318
444528
444742
444954
445162
445372
445514
445796
446010
446216
446422
446626
446788
447040
447244
447400
447650
447856
448064
448266
448472
448676
448886
449094
449304
449510
449716
449926
450130
450342
450548
450760
450970
451180
451392
451606
451822
452036
452248
452458
452666
452874
453082
453288
453494
453642
453906
454116
454324
454528
454728
454934
455142
455352
455512
455758
455964
456170
456372
456576
456726
456870
457138
457266
457526
457738
457950
458158
458366
458562
458756
458952
459152
459346
459544
459744
459940
460132
460256
460504
460714
460860
461094
461286
461432
461666
461854
462004
462232
462418
462568
462794
462982
463134
463350
463538
463694
463912
464100
464252
464476
464670
464816
465058
465252
465398
465668
465802
466080
466292
466502
466718
466854
467130
467344
467554
467766
467898
468180
468394
468604
468812
468956
469226
469430
469636
469834
470036
470242
470440
470644
470848
471050
471252
471450
471654
471854
472060
472260
472460
472666
472868
473074
473280
473488
473698
473908
474120
474268
474546
474756
474886
475174
475388
475598
475806
476014
476224
476432
476642
476852
477062
477276
477484
477694
477828
478122
478330
478538
478740
478946
479086
479352
479554
479754
479956
480156
480302
480562
480770
480974
481172
481374
481520
481772
481972
482172
482376
482574
482734
482986
483188
483394
483596
483804
484012
484218
484356
484630
484844
485052
485260
485412
485684
485896
486026
486322
486526
486738
486944
487146
487348
487554
487766
487978
488188
488398
488612
488824
489036
489248
489466
489672
489880
490084
490290
490498
490700
490904
491110
491250
491516
491722
491850
492136
492342
492548
492752
492884
493162
493370
493492
493784
493994
494204
494414
494622
494840
495058
495274
495494
495714
495936
496156
496380
496606
496830
497056
497278
497506
497730
497956
498180
498402
498626
498846
499066
499282
499502
499722
499934
500154
500368
500586
500800
501012
501226
501366
501646
501854
502060
502268
502474
502680
502882
503086
503290
503496
503704
503910
504124
504254
504546
504760
504970
505182
505388
505600
505808
506018
506230
506347
506656
506870
507084
507230
507502
507710
507924
508134
508268
508562
508776
508992
509204
509328
509634
509850
509970
510270
510486
510690
510828
511082
511286
511482
511684
511832
512096
512310
512434
512722
512942
513068
513366
513588
513714
514022
514252
514386
514698
514934
515160
515388
515614
515848
516080
516312
516550
516786
517022
517278
517518
517770
518012
518262
518512
518758
519010
519254
519500
519748
519990
520232
520480
520722
520970
521212
521454
521698
521938
522180
522422
522662
522910
523152
523402
523656
523906
524162
524414
524672
524930
525182
525438
525692
525950
526202
526460
526712
526968
527226
527484
527746
528002
528264
528520
528780
529036
529292
529554
529810
530074
530330
530594
530854
531110
531368
531626
531884
532142
532400
532664
532924
533186
533440
533698
533954
534218
534480
534744
535012
535274
535512
535814
536076
536344
536608
536876
537144
537412
537688
537962
538232
538508
538778
539046
539314
539574
539832
540088
540342
540598
540854
541106
541368
541628
541888
542154
542408
542672
542932
543190
543454
543714
543978
544242
544506
544772
545036
545298
545564
545824
546082
546342
546598
546858
547118
547374
547630
547880
548132
548390
548536
548896
549112
549390
549648
549906
550172
550436
550702
550976
551258
551526
551798
552072
552344
552620
552900
553172
553450
553726
553998
554272
554544
554816
555090
555362
555634
555904
556174
556444
556710
556976
557242
557508
557778
558044
558320
558594
558862
559138
559408
559680
559958
560228
560498
560766
561032
561302
561572
561842
562114
562380
562662
562938
563210
563486
563756
564028
564302
564568
564840
565108
565372
565638
565898
566164
566434
566698
566970
567238
567506
567772
568034
568304
568570
568836
569108
569378
569650
569920
570186
570446
570704
570966
571226
571480
571736
571992
572248
572504
572758
573016
573274
573528
573786
574040
574302
574560
574818
575064
575316
575566
575814
576060
576308
576570
576834
577102
577370
577642
577918
578190
578468
578742
579018
579294
579578
579856
580132
580404
580674
580936
581208
581476
581740
582010
582278
582546
582816
583080
583350
583612
583880
584146
584412
584676
584942
585202
585458
585720
585974
586232
586492
586748
587010
587266
587524
587786
588042
588302
588556
588814
589070
589326
589586
589840
590102
590366
590622
590888
591152
591424
591692
591966
592232
592498
592768
593032
593298
593552
593806
594062
594312
594570
594822
595074
595334
595588
595844
596100
596356
596510
596878
597138
597390
597640
597900
598154
598412
598682
598944
599210
599340
599744
600008
600270
600532
600792
601050
601312
601570
601832
602094
602356
602622
602884
603148
603410
603678
603942
604202
604468
604732
604994
605256
605518
605784
606048
606316
606588
606854
607124
607396
607664
607930
608198
608462
608730
608994
609260
609530
609790
610060
610330
610592
610858
611126
611390
611660
611922
612190
612460
612722
612998
613264
613532
613806
614076
614352
614626
614900
615176
615444
615724
616002
616278
616556
616824
617088
617358
617638
617924
618198
618462
618732
618996
619262
619530
619796
620062
620338
620602
620882
621150
621422
621700
621976
622262
622550
622824
623104
623382
623664
623942
624224
624496
624622
625040
625308
625580
625706
626104
626368
626628
626778
627166
627420
627686
627912
628192
628440
628694
628948
629218
629488
629760
630036
630308
630590
630874
631154
631432
631708
631992
632264
632542
632822
633094
633376
633654
633926
634202
634466
634726
634996
635258
635522
635790
636054
636320
636582
636848
637122
637386
637660
637926
638192
638470
638738
639008
639280
639544
639812
640076
640346
640604
640868
641136
641398
641668
641936
642206
642478
642742
643014
643284
643548
643820
644082
644346
644608
644876
645142
645404
645676
645938
646204
646476
646740
647012
647280
647544
647818
648088
648362
648640
648912
649192
649464
649730
650006
650272
650546
650822
651092
651368
651642
651916
652194
652464
652746
653024
653296
653584
653864
654138
654416
654686
654964
655238
655510
655786
656058
656326
656600
656866
657138
657416
657684
657964
658230
658504
658772
659046
659318
659584
659858
660122
660400
660674
660944
661220
661492
661768
662044
662318
662594
662868
663142
663420
663692
663968
664244
664514
664786
665060
665334
665614
665896
666172
666444
666712
666988
667270
667536
667810
668084
668344
668616
668884
669144
669406
669666
669932
670200
670466
670740
671016
671292
671570
671842
672120
672396
672666
672940
673212
673480
673754
674026
674292
674562
674832
675100
675372
675642
675914
676188
676472
676748
677030
677310
677588
677866
678144
678416
678694
678970
679246
679524
679794
680068
680344
680618
680896
681174
681450
681728
682010
682296
682580
682850
683130
683402
683676
683952
684222
684496
684770
685040
685320
685594
685870
686154
686432
686708
686988
687262
687540
687816
688086
688364
688634
688904
689178
689448
689720
689992
690258
690530
690796
691064
691336
691604
691874
692144
692418
692692
692962
693236
693502
693776
694044
694298
694582
694850
695124
695394
695664
695938
696206
696476
696746
697012
697284
697554
697816
697992
698346
698610
698870
699126
699388
699646
699908
700176
700446
700716
700990
701256
701522
701794
702058
702326
702592
702854
703118
703380
703640
703912
704178
704440
704710
704984
705252
705532
705664
706076
706354
706620
706880
707146
707408
707668
707940
708212
708480
708760
709036
709318
709602
709880
710162
710440
710722
711006
711160
711560
711836
712110
712388
712512
712918
713188
713456
713722
713988
714258
714528
714796
715070
715342
715618
715894
716166
716440
716714
716984
717260
717530
717804
718080
718350
718626
718900
719168
719442
719708
719972
720242
720506
720770
721040
721306
721566
721834
722104
722372
722644
722920
723188
723464
723734
724002
724274
724548
724816
725090
725360
725628
725902
726170
726436
726704
726966
727232
727498
727760
728028
728296
728562
728832
729104
729372
729652
729924
730196
730470
730746
731018
731294
731562
731832
732104
732378
732654
732930
733208
733484
733762
734042
734318
734598
734872
735154
735434
735712
735990
736270
736544
736824
737100
737368
737656
737932
738198
738482
738624
739016
739288
739552
739810
740078
740340
740606
740876
741142
741414
741680
741944
742212
742474
742736
743002
743262
743522
743786
744046
744310
744568
744828
745092
745352
745612
745878
746140
746388
746596
746884
747146
747410
747668
747926
748090
748426
748644
748898
749158
749416
749570
749950
750210
750480
750742
751004
751266
751530
751798
752068
752332
752600
752872
753138
753406
753668
753936
754198
754458
754720
754980
755246
755508
755770
756028
756288
756534
756784
757030
757276
757522
757768
758020
758270
758518
758768
759024
759284
759460
759796
760050
760298
760544
760796
760962
761308
761564
761812
762062
762268
762560
762816
763070
763326
763590
763846
764114
764376
764640
764902
765166
765434
765698
765966
766236
766502
766776
767044
767312
767582
767846
768108
768370
768632
768894
769158
769424
769688
769952
770222
770482
770742
771000
771254
771510
771760
772016
772270
772530
772798
773070
773344
773612
773882
774164
774436
774710
774984
775256
775526
775790
776062
776328
776592
776862
777124
777386
777652
777914
778176
778436
778700
778962
779220
779486
779746
780014
780278
780544
780806
781070
781340
781606
781866
782134
782396
782664
782936
783198
783468
783722
783986
784240
784498
784758
785012
785268
785528
785786
786048
786300
786558
786814
787070
787224
787576
787834
788080
788336
788584
788728
789092
789340
789594
789840
790088
790342
790592
790744
791104
791362
791616
791770
792118
792248
792624
792868
793112
793362
793608
793786
794120
794376
794638
794894
795160
795422
795682
795944
796206
796472
796740
797000
797268
797528
797792
798056
798318
798580
798842
799100
799360
799614
799876
800138
800392
800650
800896
801154
801404
801660
801918
802174
802440
802708
802968
803234
803498
803756
804020
804282
804540
804808
805070
805324
805578
805832
806088
806340
806588
806840
807080
807318
807552
807774
807996
808234
808468
808612
808948
809194
809432
809672
809916
810066
810422
810676
810926
811182
811440
811700
811964
812224
812484
812634
812992
813238
813386
813724
813960
814192
814416
814636
814854
815076
815292
815512
815728
815944
816154
816288
816564
816792
816954
817204
817404
817604
817800
817928
818166
818368
818570
818770
818972
819172
819378
819584
819794
820002
820208
820422
820566
820850
821074
821296
821518
821738
821964
822184
822410
822572
822830
823064
823284
823498
823708
823918
824136
824350
824556
824760
824966
825108
825378
825588
825796
826002
826210
826418
826626
826836
827046
827256
827464
827676
827878
828086
828235
828500
828710
828916
829088
829328
829530
829736
829940
830144
830348
830500
830754
830956
831160
831360
831560
831762
831968
832087
832362
832568
832772
832974
833172
833376
833580
833784
833988
834192
834396
834598
834802
834945
835210
835420
835628
835834
836038
836242
836446
836656
836860
837066
837268
837468
837674
837874
838016
838288
838496
838704
838908
839114
839320
839522
839724
839928
840128
840332
840534
840738
840948
841152
841358
841564
841768
841972
842102
842366
842592
842800
843004
843210
843418
843624
843836
844046
844256
844468
844682
844900
845122
845342
845566
845722
846020
846246
846472
846694
846918
847142
847366
847592
847816
848042
848266
848492
848626
848956
849182
849406
849626
849844
849992
850286
850510
850730
850948
851068
851366
851598
851818
852026
852242
852460
852676
852898
853116
853268
853560
853782
854000
854212
854376
854634
854844
855052
855260
855464
855672
855878
856086
856290
856494
856702
856900
857108
857312
857516
857714
857914
858112
858310
858440
858692
858900
859100
859294
859494
859700
859902
860104
860316
860532
860744
860960
861178
861392
861612
861838
862058
862282
862414
862736
862966
863186
863404
863624
863840
864054
864264
864476
864618
864898
865108
865316
865526
865738
865868
866172
866300
866616
866838
867060
867288
867514
867742
867972
868202
868434
868660
868892
869114
869334
869548
869760
869972
870126
870390
870602
870804
871006
871206
871406
871602
871800
871996
872188
872378
872570
872762
872964
873106
873378
873592
873794
873928
874208
874416
874622
874818
875024
875148
875410
875638
875846
876062
876202
876380
876644
876884
877110
877318
877522
877730
877940
878150
878360
878570
878778
878930
879202
879412
879622
879828
880032
880238
880442
880648
880856
881062
881266
881470
881678
881880
882084
882286
882490
882696
882896
883102
883304
883512
883716
883920
884124
884324
884524
884722
884926
885132
885336
885536
885740
885942
886144
886344
886548
886752
886954
887154
887360
887566
887772
887976
888182
888386
888596
888802
889014
889128
889266
889552
889798
889928
890194
890420
890554
890812
891030
891244
891444
891640
891840
892042
892246
892406
892668
892872
893084
893292
893502
893658
893926
894136
894346
894556
894766
894936
895184
895392
895598
895802
896008
896212
896420
896630
896838
897050
897186
897478
897696
897906
898120
898262
898536
898740
898942
899136
899334
899528
899722
899918
900116
900314
900508
900706
900908
901108
901312
901512
901716
901918
902122
902326
902534
902728
902932
903134
903338
903548
903750
903958
904164
904376
904590
904804
905014
905222
905436
905562
905856
906076
906288
906492
906700
906916
907052
907338
907552
907764
907976
908188
908398
908608
908814
909016
909212
909410
909606
909804
909998
910192
910388
910582
910778
910978
911174
911372
911574
911768
911960
912156
912354
912544
912740
912934
913120
913310
913496
913686
913880
914072
914204
914444
914648
914840
915026
915212
915400
915588
915782
915974
916168
916360
916546
916726
916906
917090
917276
917468
917656
917794
918034
918230
918424
918616
918810
919002
919198
919402
919606
919748
920022
920226
920434
920640
920846
920982
921262
921470
921672
921876
922078
922232
922494
922610
922886
923110
923316
923516
923718
923868
924124
924322
924526
924726
924922
925120
925318
925518
925716
925920
926122
926324
926524
926660
926938
927142
927348
927550
927754
927898
928166
928376
928590
928800
928932
929230
929378
929662
929874
930086
930296
930430
930720
930934
931144
931354
931568
931782
932002
932224
932448
932672
932896
933120
933340
933464
933768
933984
934194
934396
934596
934802
935002
935204
935404
935608
935816
935954
936090
936376
936620
936842
937046
937246
937450
937656
937794
938064
938190
938474
938682
938884
939074
939274
939478
939672
939874
940066
940268
940474
940670
940882
941018
941284
941490
941686
941888
942078
942274
942472
942660
942862
943056
943250
943448
943642
943844
944034
944240
944438
944638
944840
945034
945232
945442
945636
945842
946048
946186
946456
946666
946874
947098
947226
947526
947746
947950
948162
948294
948576
948792
948992
949200
949334
949602
949730
950000
950204
950402
950544
950788
950986
951178
951378
951576
951778
951994
952204
952346
952636
952852
953066
953286
953418
953712
953932
954142
954358
954488
954790
955002
955220
955434
955572
955870
956094
956310
956530
956750
956974
957200
957330
957650
957878
958098
958316
958536
958680
958984
959212
959432
959648
959868
960008
960312
960532
960746
960962
961088
961396
961614
961832
962050
962272
962494
962716
962942
963170
963400
963634
963868
964104
964342
964578
964816
965054
965286
965520
965752
965984
966216
966450
966682
966918
967150
967382
967612
967836
968064
968288
968512
968738
968960
969180
969304
969608
969828
970042
970252
970374
970516
970814
971052
971270
971484
971696
971912
972126
972344
972566
972794
973020
973250
973478
973706
973844
974164
974382
974604
974824
975046
975268
975494
975714
975942
976170
976398
976624
976852
977078
977308
977538
977770
978006
978240
978478
978712
978944
979178
979406
979632
979858
980084
980308
980528
980750
980976
981198
981422
981644
981866
982088
982306
982528
982748
982966
983088
983390
983616
983828
984036
984160
984436
984666
984880
985090
985300
985510
985678
985946
986164
986382
986602
986730
987038
987156
987468
987696
987910
988032
988328
988548
988760
988974
989094
989392
989610
989824
990040
990260
990482
990708
990934
991080
991394
991622
991852
992078
992306
992446
992768
993000
993224
993452
993678
993826
994138
994366
994594
994818
995048
995276
995406
995734
995962
996186
996408
996632
996858
997078
997302
997524
997750
997976
998200
998432
998662
998890
999120
999350
999580
999812
1000048
1000280
1000516
1000752
1000988
1001226
1001464
1001698
1001934
1002166
1002394
1002624
1002850
1003074
1003300
1003522
1003744
1003962
1004182
1004304
1004624
1004848
1005070
1005292
1005512
1005734
1005960
1006188
1006414
1006644
1006870
1007092
1007316
1007542
1007764
1007986
1008204
1008426
1008638
1008858
1009072
1009196
1009494
1009718
1009928
1010142
1010268
1010564
1010792
1011010
1011228
1011442
1011660
1011880
1012102
1012240
1012546
1012762
1012978
1013196
1013408
1013624
1013836
1014054
1014266
1014482
1014702
1014922
1015142
1015360
1015578
1015796
1016012
1016232
1016360
1016668
1016890
1017108
1017326
1017544
1017760
1017982
1018200
1018418
1018636
1018852
1019068
1019282
1019406
1019564
1019898
1020118
1020328
1020538
1020750
1020962
1021086
1021394
1021614
1021834
1022052
1022272
1022498
1022720
1022946
1023174
1023400
1023622
1023844
1024060
1024278
1024494
1024702
1024836
1025112
1025336
1025466
1025758
1025966
1026174
1026382
1026594
1026806
1027020
1027150
1027454
1027674
1027892
1028110
1028330
1028552
1028770
1028988
1029204
1029420
1029636
1029854
1030068
1030288
1030504
1030724
1030944
1031166
1031392
1031614
1031840
1032064
1032290
1032516
1032742
1032858
1033194
1033414
1033634
1033852
1034070
1034290
1034510
1034668
1034958
1035182
1035406
1035630
1035854
1036082
1036304
1036524
1036746
1036968
1037192
1037412
1037634
1037858
1038080
1038306
1038528
1038754
1038978
1039204
1039430
1039656
1039880
1040104
1040328
1040552
1040778
1041002
1041228
1041452
1041676
1041898
1042120
1042332
1042542
1042752
1042954
1043158
1043296
1043564
1043768
1043974
1044180
1044386
1044596
1044722
1045018
1045236
1045450
1045664
1045882
1046104
1046326
1046468
1046784
1047006
1047234
1047460
1047690
1047828
1048148
1048366
1048584
1048802
1049018
1049234
1049348
1049666
1049884
1050100
1050314
1050528
1050744
1050888
1051176
1051394
1051612
1051828
1052046
1052264
1052484
1052704
1052924
1053146
1053368
1053590
1053812
1054034
1054254
1054474
1054694
1054914
1055136
1055358
1055471
1055800
1056024
1056242
1056456
1056672
1056820
1057116
1057326
1057538
1057754
1057968
1058184
1058402
1058618
1058742
1059056
1059276
1059492
1059706
1059922
1060138
1060274
1060580
1060798
1061018
1061238
1061460
1061596
1061910
1062130
1062352
1062574
1062796
1063018
1063240
1063464
1063688
1063912
1064134
1064356
1064578
1064804
1065030
1065254
1065480
1065706
1065932
1066156
1066380
1066604
1066826
1067046
1067268
1067484
1067704
1067924
1068140
1068358
1068578
1068800
1069022
1069244
1069458
1069676
1069894
1070005
1070170
1070462
1070704
1070914
1071116
1071314
1071512
1071712
1071912
1072112
1072308
1072510
1072710
1072904
1073102
1073238
1073494
1073706
1073912
1074112
1074316
1074520
1074728
1074870
1075146
1075360
1075574
1075788
1076002
1076220
1076438
1076658
1076876
1077096
1077312
1077528
1077744
1077956
1078170
1078382
1078501
1078804
1079024
1079236
1079380
1079650
1079862
1080072
1080284
1080492
1080704
1080916
1081132
1081352
1081480
1081796
1082022
1082242
1082464
1082686
1082906
1083128
1083350
1083572
1083796
1084022
1084202
1084468
1084692
1084914
1085138
1085362
1085586
1085810
1086036
1086260
1086484
1086710
1086934
1087162
1087390
1087616
1087840
1088062
1088282
1088500
1088716
1088930
1089142
1089356
1089568
1089776
1089902
1090200
1090416
1090630
1090846
1091066
1091288
1091508
1091732
1091958
1092184
1092410
1092638
1092866
1093090
1093316
1093540
1093760
1093982
1094202
1094424
1094644
1094864
1095084
1095302
1095522
1095742
1095964
1096186
1096408
1096630
1096852
1097074
1097212
1097512
1097734
1097950
1098166
1098384
1098532
1098826
1099042
1099262
1099480
1099700
1099842
1100146
1100372
1100596
1100820
1101036
1101160
1101470
1101692
1101912
1102126
1102340
1102558
1102772
1102986
1103204
1103328
1103636
1103854
1104068
1104284
1104408
1104696
1104920
1105134
1105276
1105556
1105770
1105982
1106190
1106400
1106546
1106816
1107020
1107224
1107426
1107552
1107822
1108026
1108232
1108374
1108640
1108846
1109050
1109260
1109388
1109684
1109904
1110122
1110342
1110562
1110786
1111014
1111238
1111460
1111682
1111906
1112126
1112276
1112568
1112786
1113004
1113218
1113434
1113582
1113862
1114074
1114284
1114492
1114700
1114910
1115120
1115328
1115456
1115754
1115970
1116094
1116374
1116598
1116806
1117016
1117226
1117438
1117654
1117780
1118096
1118320
1118540
1118762
1118982
1119204
1119424
1119640
1119862
1120078
1120296
1120512
1120730
1120950
1121074
1121380
1121598
1121814
1122026
1122172
1122450
1122660
1122864
1123068
1123268
1123468
1123670
1123870
1124070
1124268
1124398
1124668
1124870
1125070
1125264
1125462
1125658
1125854
1126054
1126254
1126458
1126600
1126868
1127076
1127282
1127480
1127676
1127874
1128070
1128264
1128456
1128652
1128842
1129034
1129170
1129414
1129534
1129794
1129988
1130174
1130360
1130544
1130732
1130916
1131100
1131284
1131468
1131656
1131842
1132034
1132234
1132434
1132636
1132765
1133040
1133244
1133450
1133658
1133792
1134068
1134288
1134496
1134706
1134838
1135126
1135294
1135560
1135770
1135980
1136186
1136388
1136596
1136804
1136929
1137226
1137438
1137644
1137852
1137980
1138272
1138484
1138692
1138908
1139122
1139340
1139564
1139790
1140010
1140240
1140468
1140692
1140918
1141146
1141372
1141598
1141824
1142050
1142276
1142508
1142738
1142982
1143230
1143470
1143702
1143938
1144116
1144256
1144604
1144834
1145058
1145282
1145510
1145736
1145966
1146196
1146422
1146562
1146892
1147122
1147354
1147586
1147822
1147962
1148296
1148532
1148760
1148996
1149236
1149376
1149708
1149940
1150176
1150416
1150654
1150812
1151128
1151360
1151592
1151824
1152058
1152290
1152524
1152764
1152998
1153236
1153470
1153706
1153942
1154180
1154416
1154654
1154890
1155126
1155256
1155600
1155836
1156068
1156302
1156534
1156768
1157002
1157122
1157472
1157704
1157936
1158168
1158394
1158624
1158854
1159086
1159322
1159556
1159794
1160032
1160270
1160514
1160754
1160996
1161234
1161470
1161708
1161942
1162176
1162410
1162646
1162880
1163118
1163354
1163588
1163824
1164062
1164302
1164542
1164782
1165022
1165264
1165506
1165744
1165984
1166224
1166462
1166700
1166938
1167174
1167414
1167652
1167886
1168124
1168358
1168590
1168826
1169062
1169296
1169528
1169760
1169990
1170220
1170448
1170676
1170906
1171136
1171364
1171596
1171828
1172058
1172292
1172526
1172760
1172994
1173228
1173462
1173694
1173928
1174164
1174398
1174634
1174872
1175104
1175338
1175570
1175804
1176036
1176264
1176496
1176722
1176954
1177092
1177410
1177644
1177874
1178100
1178328
1178490
1178788
1179020
1179252
1179484
1179718
1179860
1180190
1180426
1180664
1180828
1181134
1181366
1181594
1181822
1182052
1182278
1182506
1182736
1182964
1183194
1183424
1183648
1183874
1184092
1184316
1184536
1184756
1184978
1185196
1185418
1185638
1185856
1186076
1186296
1186516
1186738
1186956
1187176
1187396
1187620
1187846
1188072
1188298
1188524
1188754
1188982
1189208
1189434
1189658
1189880
1190108
1190336
1190560
1190784
1191012
1191242
1191470
1191700
1191930
1192158
1192386
1192610
1192838
1193062
1193288
1193512
1193734
1193956
1194180
1194400
1194622
1194848
1195068
1195292
1195514
1195736
1195960
1196186
1196412
1196542
1196868
1197096
1197322
1197548
1197776
1198002
1198230
1198462
1198694
1198838
1199156
1199386
1199612
1199780
1200062
1200282
1200496
1200712
1200930
1201150
1201372
1201594
1201820
1202046
1202274
1202502
1202734
1202964
1203194
1203426
1203654
1203882
1204110
1204336
1204562
1204790
1205014
1205234
1205456
1205676
1205894
1206114
1206332
1206550
1206770
1206990
1207208
1207430
1207650
1207868
1208088
1208308
1208526
1208656
1208964
1209184
1209400
1209618
1209832
1210046
1210264
1210480
1210700
1210916
1211136
1211360
1211584
1211806
1212012
1212252
1212476
1212698
1212918
1213136
1213354
1213568
1213688
1213984
1214214
1214428
1214642
1214854
1215072
1215286
1215502
1215624
1215934
1216158
1216372
1216588
1216806
1217022
1217242
1217464
1217682
1217904
1218128
1218350
1218574
1218798
1219024
1219252
1219480
1219708
1219936
1220166
1220392
1220616
1220844
1221072
1221300
1221530
1221756
1221986
1222214
1222440
1222666
1222890
1223114
1223336
1223558
1223776
1223994
1224214
1224434
1224654
1224874
1225090
1225306
1225522
1225740
1225958
1226180
1226300
1226628
1226856
1227076
1227298
1227522
1227744
1227902
1228194
1228414
1228636
1228858
1229082
1229306
1229532
1229760
1229984
1230208
1230430
1230650
1230868
1231078
1231290
1231502
1231714
1231926
1232142
1232360
1232574
1232792
1233012
1233234
1233456
1233678
1233902
1234122
1234348
1234574
1234802
1235028
1235254
1235478
1235704
1235928
1236152
1236378
1236602
1236830
1237058
1237288
1237514
1237746
1237982
1238212
1238444
1238676
1238906
1239136
1239362
1239592
1239826
1240056
1240288
1240520
1240750
1240986
1241222
1241456
1241692
1241924
1242160
1242396
1242632
1242870
1243106
1243342
1243574
1243808
1244038
1244270
1244502
1244734
1244962
1245188
1245414
1245634
1245854
1246068
1246278
1246484
1246692
1246900
1247114
1247324
1247538
1247758
1247976
1248198
1248424
1248646
1248870
1249094
1249314
1249536
1249756
1249976
1250196
1250416
1250640
1250860
1251084
1251310
1251534
1251758
1251904
1252206
1252430
1252652
1252876
1253102
1253330
1253556
1253784
1254008
1254234
1254356
1254682
1254902
1255116
1255238
1255528
1255750
1255958
1256166
1256378
1256594
1256814
1257034
1257260
1257486
1257716
1257948
1258178
1258408
1258634
1258864
1259090
1259312
1259534
1259756
1259978
1260202
1260424
1260650
1260870
1261092
1261316
1261540
1261766
1261994
1262222
1262446
1262674
1262900
1263122
1263348
1263570
1263788
1264008
1264230
1264450
1264670
1264894
1265116
1265338
1265564
1265788
1266014
1266242
1266472
1266704
1266940
1267172
1267408
1267642
1267870
1268030
1268328
1268546
1268768
1268994
1269122
1269442
1269666
1269888
1270108
1270328
1270550
1270770
1270992
1271214
1271438
1271666
1271890
1272116
1272338
1272564
1272708
1273016
1273244
1273468
1273690
1273916
1274056
1274364
1274588
1274808
1275032
1275256
1275482
1275708
1275938
1276168
1276312
1276632
1276864
1277094
1277322
1277554
1277788
1278022
1278142
1278482
1278714
1278940
1279168
1279394
1279540
1279854
1280084
1280310
1280450
1280760
1280986
1281210
1281436
1281664
1281894
1282128
1282370
1282610
1282854
1283098
1283338
1283586
1283830
1284068
1284306
1284536
1284764
1284992
1285218
1285444
1285666
1285884
1286098
1286308
1286520
1286730
1286938
1287148
1287300
1287568
1287778
1287990
1288202
1288416
1288636
1288850
1289068
1289288
1289508
1289726
1289948
1290174
1290400
1290626
1290852
1291078
1291308
1291538
1291764
1291996
1292228
1292462
1292600
1292922
1293154
1293376
1293598
1293822
1293982
1294266
1294484
1294702
1294920
1295144
1295366
1295592
1295816
1296036
1296258
1296484
1296706
1296934
1297164
1297392
1297622
1297852
1298080
1298310
1298542
1298772
1299000
1299226
1299448
1299666
1299880
1300098
1300314
1300530
1300750
1300972
1301190
1301410
1301630
1301850
1302072
1302294
1302514
1302736
1302958
1303178
1303400
1303624
1303844
1304066
1304288
1304508
1304734
1304960
1305178
1305406
1305630
1305856
1306082
1306308
1306536
1306764
1306996
1307228
1307456
1307690
1307920
1308146
1308372
1308600
1308830
1309060
1309290
1309520
1309750
1309980
1310212
1310438
1310668
1310896
1311120
1311344
1311566
1311784
1312008
1312230
1312452
1312676
1312896
1313112
1313330
1313548
1313766
1313986
1314206
1314346
1314646
1314866
1315084
1315304
1315524
1315662
1315968
1316192
1316412
1316630
1316852
1317078
1317300
1317524
1317750
1317872
1318190
1318394
1318612
1318830
1319052
1319194
1319504
1319728
1319950
1320178
1320318
1320644
1320880
1321120
1321358
1321596
1321836
1322076
1322316
1322560
1322804
1323042
1323166
1323522
1323764
1324000
1324234
1324468
1324700
1324932
1325162
1325388
1325618
1325848
1326076
1326306
1326536
1326764
1326994
1327224
1327456
1327688
1327922
1328156
1328388
1328624
1328854
1329088
1329320
1329556
1329790
1330026
1330262
1330496
1330736
1330974
1331210
1331442
1331672
1331902
1332130
1332356
1332586
1332710
1333030
1333254
1333472
1333688
1333900
1334022
1334326
1334544
1334758
1334970
1335184
1335398
1335616
1335836
1335960
1336272
1336496
1336714
1336930
1337152
1337372
1337592
1337814
1338034
1338190
1338480
1338696
1338914
1339126
1339270
1339542
1339744
1339952
1340086
1340246
1340416
1340688
1340820
1341086
1341314
1341534
1341734
1341940
1342148
1342284
1342578
1342794
1343010
1343226
1343442
1343660
1343818
1344110
1344334
1344560
1344786
1345012
1345238
1345468
1345698
1345930
1346160
1346392
1346616
1346840
1347056
1347274
1347484
1347696
1347906
1348118
1348328
1348458
1348750
1348958
1349080
1349362
1349580
1349786
1349924
1350194
1350400
1350606
1350814
1351024
1351158
1351456
1351672
1351890
1352106
1352262
1352548
1352766
1352988
1353204
1353418
1353632
1353848
1353978
1354290
1354510
1354728
1354946
1355166
1355392
1355614
1355842
1356070
1356296
1356526
1356752
1356974
1357200
1357422
1357642
1357866
1358090
1358310
1358532
1358756
1358888
1359204
1359428
1359650
1359866
1360082
1360298
1360518
1360738
1360960
1361178
1361400
1361622
1361840
1362066
1362286
1362508
1362732
1362958
1363184
1363402
1363624
1363848
1364072
1364298
1364520
1364746
1364966
1365190
1365412
1365630
1365850
1366070
1366288
1366506
1366720
1366924
1367050
1367194
1367322
1367600
1367820
1368038
1368256
1368456
1368584
1368826
1369026
1369226
1369420
1369612
1369804
1369992
1370126
1370362
1370562
1370702
1370952
1371158
1371296
1371536
1371670
1371898
1372090
1372276
1372458
1372624
1372806
1372978
1373150
1373316
1373480
1373648
1373812
1373978
1374093
1374314
1374484
1374624
1374834
1375002
1375172
1375340
1375510
1375642
1375846
1376020
1376190
1376356
1376524
1376646
1376860
1377032
1377194
1377362
1377526
1377652
1377856
1378018
1378180
1378340
1378472
1378666
1378826
1378986
1379146
1379304
1379442
1379622
1379780
1379942
1380100
1380254
1380386
1380578
1380738
1380900
1381058
1381218
1381346
1381536
1381694
1381854
1382010
1382166
1382302
1382478
1382630
1382786
1382940
1383096
1383230
1383400
1383550
1383700
1383848
1384000
1384121
1384298
1384448
1384598
1384746
1384898
1385040
1385198
1385346
1385496
1385642
1385788
1385932
1386080
1386226
1386372
1386520
1386666
1386812
1386958
1387106
1387252
1387400
1387548
1387696
1387848
1387994
1388138
1388288
1388438
1388584
1388732
1388884
1389036
1389186
1389344
1389492
1389644
1389798
1389948
1390098
1390254
1390406
1390562
1390718
1390874
1391026
1391184
1391342
1391492
1391652
1391810
1391962
1392122
1392280
1392436
1392594
1392754
1392910
1393070
1393228
1393386
1393546
1393674
1393864
1394020
1394178
1394340
1394496
1394652
1394814
1394970
1395124
1395236
1395436
1395590
1395746
1395898
1396050
1396204
1396360
1396508
1396633
1396818
1396968
1397120
1397274
1397426
1397578
1397706
1397884
1398005
1398190
1398346
1398502
1398658
1398776
1398978
1399134
1399296
1399463
1399575
1399788
1399950
1400112
1400272
1400388
1400594
1400754
1400912
1401074
1401191
1401396
1401554
1401716
1401874
1402034
1402190
1402311
1402512
1402674
1402834
1402992
1403154
1403314
1403472
1403632
1403744
1403944
1404102
1404258
1404414
1404529
1404736
1404896
1405060
1405216
1405378
1405490
1405700
1405860
1406024
1406190
1406309
1406516
1406682
1406824
1407002
1407119
1407328
1407488
1407648
1407814
1407930
1408138
1408302
1408462
1408626
1408736
1408954
1409116
1409268
1409381
1409552
1409686
1409830
1409974
1410112
1410262
1410402
1410544
1410676
1410808
1410940
1411080
1411194
1411348
1411476
1411614
1411744
1411878
1412026
1412174
1412338
1412482
1412598
1412748
1412888
1413030
1413162
1413290
1413474
1413652
1413818
1413976
1414136
1414294
1414405
1414616
1414750
1414936
1415098
1415258
1415420
1415527
1415748
1415874
1416078
1416213
1416402
1416568
1416732
1416896
1417060
1417226
1417388
1417556
1417722
1417890
1418060
1418232
1418398
1418568
1418740
1418902
1419074
1419191
1419404
1419519
1419732
1419849
1420058
1420187
1420380
1420518
1420698
1420856
1421012
1421170
1421280
1421496
1421616
1421822
1421947
1422144
1422277
1422470
1422630
1422792
1422901
1423120
1423238
1423454
1423572
1423778
1423899
1424104
1424228
1424430
1424551
1424754
1424881
1425078
1425208
1425398
1425521
1425716
1425846
1426036
1426177
1426352
1426512
1426670
1426830
1426990
1427104
1427314
1427441
1427634
1427792
1427948
1428070
1428270
1428389
1428592
1428714
1428910
1429051
1429230
1429392
1429556
1429668
1429890
1430014
1430226
1430341
1430560
1430670
1430896
1431000
1431228
1431342
1431558
1431674
1431888
1432004
1432214
1432329
1432538
1432658
1432860
1432980
1433186
1433302
1433506
1433627
1433826
1433949
1434148
1434306
1434466
1434578
1434788
1434907
1435112
1435234
1435424
1435564
1435682
1435886
1436044
1436196
1436352
1436504
1436656
1436812
1436919
1437116
1437252
1437416
1437566
1437720
1437872
1437992
1438180
1438334
1438486
1438642
1438798
1438952
1439108
1439262
1439418
1439578
1439697
1439900
1440026
1440218
1440376
1440534
1440692
1440804
1441004
1441124
1441316
1441470
1441626
1441741
1441942
1442060
1442252
1442385
1442562
1442714
1442870
1442981
1443178
1443310
1443486
1443640
1443796
1443950
1444104
1444218
1444416
1444547
1444728
1444882
1445038
1445196
1445352
1445469
1445668
1445798
1445988
1446144
1446272
1446464
1446620
1446780
1446934
1447092
1447250
1447404
1447562
1447720
1447878
1448034
1448194
1448352
1448506
1448668
1448828
1448984
1449152
1449310
1449470
1449630
1449796
1449956
1450122
1450286
1450446
1450614
1450730
1450944
1451059
1451270
1451384
1451590
1451714
1451910
1452029
1452226
1452340
1452534
1452647
1452844
1452959
1453158
1453276
1453474
1453604
1453784
1453924
1454100
1454248
1454418
1454578
1454738
1454898
1455056
1455216
1455378
1455528
1455698
1455860
1456006
1456188
1456318
1456520
1456647
1456858
1456984
1457194
1457312
1457526
1457639
1457862
1458032
1458150
1458368
1458492
1458706
1458821
1459046
1459216
1459392
1459508
1459586
1459890
1460102
1460220
1460460
1460638
1460816
1460984
1461158
1461334
1461520
1461702
1461882
1462058
1462226
1462408
1462586
1462760
1462938
1463120
1463300
1463482
1463658
1463834
1463964
1464192
1464364
1464544
1464716
1464894
1465070
1465244
1465420
1465604
1465778
1465936
1466138
1466314
1466498
1466674
1466854
1466978
1467216
1467396
1467576
1467754
1467938
1468114
1468296
1468480
1468656
1468775
1469032
1469220
1469404
1469582
1469756
1469876
1470104
1470278
1470458
1470628
1470798
1470968
1471138
1471306
1471474
1471644
1471810
1471978
1472142
1472310
1472472
1472638
1472802
1472964
1473130
1473298
1473460
1473622
1473780
1473944
1474106
1474272
1474436
1474600
1474766
1474932
1475100
1475270
1475438
1475610
1475772
1475895
1476106
1476224
1476440
1476616
1476782
1476950
1477122
1477292
1477464
1477590
1477816
1477992
1478166
1478348
1478464
1478704
1478880
1479064
1479240
1479362
1479590
1479772
1479952
1480134
1480250
1480490
1480676
1480850
1481022
1481146
1481364
1481530
1481700
1481822
1482042
1482212
1482382
1482552
1482730
1482898
1483070
1483198
1483428
1483604
1483786
1483958
1484138
1484266
1484394
1484650
1484836
1485010
1485192
1485374
1485560
1485696
1485946
1486144
1486336
1486526
1486730
1486850
1487116
1487316
1487516
1487706
1487908
1488108
1488310
1488512
1488712
1488916
1489122
1489320
1489528
1489730
1489934
1490142
1490354
1490558
1490770
1490982
1491186
1491398
1491600
1491814
1492026
1492238
1492450
1492662
1492876
1493092
1493224
1493530
1493750
1493970
1494192
1494402
1494616
1494834
1495058
1495280
1495502
1495718
1495932
1496144
1496358
1496568
1496782
1496994
1497210
1497422
1497630
1497838
1498050
1498262
1498478
1498696
1498918
1499140
1499360
1499588
1499816
1500046
1500274
1500500
1500726
1500952
1501182
1501410
1501636
1501862
1502088
1502226
1502540
1502762
1502982
1503196
1503406
1503628
1503854
1504078
1504306
1504530
1504758
1504988
1505210
1505436
1505664
1505888
1506114
1506342
1506562
1506788
1507010
1507238
1507468
1507698
1507932
1508166
1508288
1508636
1508792
1509092
1509316
1509534
1509750
1509970
1510190
1510416
1510638
1510862
1511090
1511318
1511542
1511766
1511988
1512210
1512434
1512654
1512880
1513102
1513324
1513552
1513778
1514006
1514236
1514462
1514626
1514892
1515120
1515350
1515576
1515804
1516032
1516262
1516490
1516722
1516950
1517180
1517368
1517640
1517874
1518106
1518340
1518572
1518810
1519040
1519272
1519500
1519730
1519960
1520188
1520416
1520646
1520874
1521100
1521328
1521554
1521776
1522000
1522218
1522436
1522654
1522868
1523084
1523194
1523522
1523744
1523964
1524180
1524400
1524616
1524834
1525054
1525272
1525492
1525714
1525940
1526162
1526386
1526612
1526840
1527068
1527294
1527520
1527746
1527968
1528186
1528404
1528618
1528836
1529048
1529178
1529478
1529694
1529912
1530122
1530334
1530546
1530760
1530972
1531184
1531398
1531610
1531824
1532036
1532254
1532470
1532688
1532908
1533134
1533360
1533500
1533816
1534042
1534266
1534490
1534712
1534938
1535166
1535394
1535622
1535850
1536078
1536306
1536536
1536764
1536996
1537224
1537452
1537684
1537910
1538134
1538360
1538586
1538816
1539038
1539260
1539488
1539716
1539948
1540178
1540412
1540650
1540890
1541128
1541368
1541608
1541854
1542096
1542336
1542576
1542820
1543062
1543306
1543550
1543788
1544024
1544258
1544494
1544732
1544970
1545086
1545430
1545664
1545892
1546120
1546350
1546504
1546806
1547034
1547260
1547490
1547720
1547952
1548186
1548424
1548660
1548902
1549144
1549384
1549628
1549868
1550106
1550352
1550592
1550838
1551076
1551318
1551558
1551798
1552034
1552276
1552514
1552750
1552992
1553228
1553464
1553700
1553932
1554166
1554396
1554622
1554854
1555078
1555308
1555542
1555776
1556014
1556252
1556492
1556734
1556976
1557220
1557464
1557706
1557956
1558202
1558444
1558688
1558928
1559176
1559420
1559662
1559902
1560140
1560380
1560622
1560860
1561100
1561342
1561580
1561822
1562062
1562304
1562546
1562784
1563028
1563268
1563510
1563752
1563994
1564236
1564482
1564728
1564974
1565220
1565464
1565710
1565952
1566196
1566442
1566684
1566930
1567170
1567412
1567652
1567892
1568134
1568370
1568608
1568844
1569078
1569320
1569562
1569802
1570044
1570280
1570518
1570752
1570988
1571224
1571462
1571702
1571940
1572184
1572430
1572678
1572924
1573168
1573408
1573654
1573896
1574138
1574378
1574622
1574860
1575098
1575334
1575568
1575804
1576038
1576272
1576506
1576738
1576974
1577212
1577452
1577692
1577934
1578178
1578416
1578660
1578902
1579142
1579386
1579628
1579866
1580110
1580344
1580582
1580820
1581060
1581298
1581538
1581776
1582022
1582262
1582504
1582748
1582992
1583234
1583476
1583714
1583956
1584198
1584440
1584678
1584922
1585162
1585402
1585642
1585882
1586118
1586354
1586590
1586826
1587068
1587310
1587550
1587796
1588040
1588282
1588526
1588770
1589020
1589264
1589516
1589768
1590014
1590262
1590510
1590756
1591002
1591250
1591388
1591746
1591990
1592232
1592476
1592722
1592964
1593208
1593446
1593690
1593936
1594182
1594430
1594674
1594914
1595154
1595394
1595636
1595876
1596122
1596368
1596616
1596866
1597118
1597370
1597540
1597880
1598124
1598370
1598612
1598854
1599094
1599338
1599580
1599824
1600066
1600310
1600556
1600798
1601046
1601292
1601540
1601786
1602030
1602278
1602528
1602776
1603024
1603268
1603520
1603768
1604012
1604262
1604508
1604752
1605000
1605248
1605488
1605730
1605970
1606210
1606452
1606690
1606936
1607182
1607430
1607676
1607914
1608156
1608396
1608636
1608870
1609108
1609344
1609584
1609826
1610064
1610300
1610538
1610778
1611020
1611262
1611502
1611746
1611990
1612238
1612486
1612728
1612974
1613218
1613462
1613708
1613946
1614188
1614428
1614670
1614908
1615152
1615392
1615626
1615866
1616100
1616340
1616580
1616824
1617070
1617314
1617552
1617792
1618028
1618268
1618418
1618746
1618988
1619226
1619464
1619698
1619866
1620178
1620326
1620652
1620888
1621126
1621366
1621508
1621842
1622078
1622308
1622540
1622772
1623002
1623236
1623472
1623704
1623940
1624092
1624414
1624546
1624890
1625116
1625344
1625570
1625796
1626028
1626266
1626508
1626742
1626990
1627236
1627484
1627732
1627896
1628222
1628464
1628702
1628826
1629182
1629420
1629658
1629890
1630124
1630276
1630598
1630834
1631072
1631306
1631542
1631776
1632014
1632136
1632482
1632714
1632942
1633170
1633402
1633636
1633872
1634106
1634344
1634584
1634830
1635074
1635322
1635568
1635812
1636060
1636306
1636552
1636798
1637042
1637284
1637530
1637768
1638016
1638264
1638510
1638752
1638986
1639220
1639444
1639672
1639902
1640132
1640364
1640598
1640834
1641070
1641304
1641544
1641792
1642038
1642286
1642526
1642770
1643014
1643258
1643504
1643750
1643992
1644236
1644476
1644716
1644950
1645184
1645420
1645660
1645898
1646138
1646380
1646622
1646866
1647106
1647348
1647582
1647822
1648070
1648316
1648560
1648812
1649052
1649294
1649530
1649770
1650004
1650130
1650462
1650700
1650932
1651166
1651322
1651638
1651872
1652108
1652338
1652574
1652734
1653048
1653284
1653522
1653750
1653978
1654210
1654438
1654668
1654822
1655126
1655352
1655584
1655808
1656038
1656270
1656502
1656732
1656964
1657202
1657438
1657674
1657910
1658152
1658390
1658632
1658876
1659110
1659358
1659602
1659844
1660090
1660332
1660574
1660810
1661054
1661296
1661540
1661782
1662022
1662260
1662496
1662732
1662968
1663210
1663450
1663688
1663926
1664162
1664402
1664636
1664872
1665110
1665352
1665588
1665830
1666070
1666306
1666548
1666794
1667038
1667278
1667522
1667766
1668012
1668252
1668492
1668728
1668968
1669202
1669438
1669676
1669912
1670150
1670388
1670626
1670864
1671104
1671348
1671590
1671824
1672058
1672298
1672536
1672768
1673006
1673244
1673480
1673718
1673956
1674200
1674348
1674668
1674900
1675132
1675366
1675598
1675828
1676056
1676286
1676518
1676672
1676988
1677218
1677452
1677686
1677922
1678042
1678386
1678616
1678838
1679058
1679280
1679420
1679722
1679938
1680154
1680368
1680580
1680754
1681002
1681210
1681426
1681642
1681860
1682086
1682318
1682554
1682702
1683036
1683276
1683514
1683746
1683982
1684216
1684448
1684678
1684808
1685140
1685368
1685598
1685828
1685946
1686290
1686522
1686752
1686984
1687218
1687450
1687688
1687928
1688170
1688420
1688670
1688918
1689168
1689412
1689652
1689894
1690138
1690372
1690608
1690848
1691086
1691326
1691568
1691806
1692050
1692290
1692534
1692772
1693016
1693260
1693500
1693746
1693986
1694226
1694468
1694712
1694956
1695204
1695450
1695692
1695940
1696188
1696432
1696682
1696932
1697178
1697426
1697676
1697922
1698168
1698408
1698652
1698898
1699150
1699402
1699654
1699908
1700158
1700414
1700666
1700920
1701164
1701414
1701662
1701912
1702150
1702392
1702636
1702872
1703112
1703356
1703598
1703836
1704074
1704318
1704566
1704812
1705060
1705308
1705548
1705794
1706040
1706286
1706528
1706776
1707020
1707264
1707514
1707762
1708006
1708246
1708486
1708728
1708964
1709200
1709438
1709674
1709910
1710148
1710382
1710620
1710860
1711096
1711332
1711574
1711816
1712058
1712178
1712540
1712780
1713014
1713162
1713490
1713724
1713964
1714136
1714444
1714682
1714924
1715050
1715398
1715638
1715874
1716114
1716358
1716598
1716842
1717088
1717328
1717574
1717816
1718056
1718294
1718450
1718774
1719008
1719246
1719482
1719716
1719954
1720104
1720430
1720668
1720898
1721126
1721354
1721588
1721816
1722054
1722288
1722444
1722760
1722988
1723218
1723450
1723678
1723908
1724140
1724372
1724602
1724838
1725076
1725314
1725552
1725790
1726028
1726260
1726490
1726724
1726954
1727190
1727426
1727662
1727902
1728138
1728376
1728610
1728846
1729084
1729318
1729558
1729798
1730038
1730278
1730520
1730764
1730998
1731238
1731474
1731704
1731934
1732168
1732400
1732632
1732866
1733096
1733332
1733566
1733800
1734032
1734270
1734508
1734744
1734984
1735226
1735468
1735710
1735952
1736198
1736440
1736686
1736934
1737178
1737426
1737672
1737916
1738160
1738408
1738530
1738890
1739132
1739374
1739612
1739852
1740096
1740332
1740576
1740818
1740978
1741302
1741546
1741788
1741952
1742268
1742500
1742736
1742974
1743210
1743362
1743690
1743930
1744168
1744410
1744658
1744906
1745156
1745300
1745654
1745902
1746140
1746292
1746624
1746764
1747110
1747350
1747588
1747828
1748072
1748316
1748562
1748812
1749060
1749302
1749546
1749786
1750030
1750270
1750508
1750750
1750990
1751234
1751472
1751718
1751960
1752206
1752452
1752692
1752932
1753174
1753416
1753658
1753900
1754140
1754382
1754626
1754870
1755108
1755350
1755592
1755826
1756060
1756292
1756522
1756754
1756908
1757074
1757432
1757588
1757896
1758124
1758244
1758582
1758812
1759036
1759268
1759500
1759736
1759978
1760224
1760468
1760592
1760958
1761210
1761452
1761578
1761930
1762168
1762408
1762644
1762796
1763128
1763372
1763608
1763848
1764088
1764336
1764580
1764826
1765072
1765316
1765560
1765802
1766046
1766290
1766530
1766770
1767010
1767132
1767488
1767726
1767956
1768182
1768412
1768644
1768884
1769012
1769366
1769608
1769856
1770100
1770264
1770592
1770836
1771078
1771320
1771566
1771812
1772054
1772300
1772546
1772790
1773038
1773284
1773528
1773770
1774012
1774256
1774502
1774746
1774978
1775210
1775426
1775644
1775852
1776066
1776274
1776482
1776686
1776892
1777096
1777230
1777494
1777710
1777916
1778118
1778320
1778520
1778722
1778926
1779130
1779338
1779546
1779752
1779890
1780154
1780374
1780576
1780776
1780980
1781186
1781390
1781596
1781798
1782000
1782200
1782394
1782592
1782786
1782984
1783180
1783380
1783582
1783786
1783990
1784196
1784406
1784618
1784828
1785040
1785246
1785454
1785664
1785872
1786078
1786284
1786492
1786700
1786902
1787108
1787308
1787434
1787694
1787920
1788128
1788332
1788536
1788740
1788944
1789150
1789274
1789540
1789762
1789962
1790158
1790364
1790576
1790784
1790998
1791208
1791426
1791644
1791860
1792080
1792304
1792530
1792758
1792990
1793224
1793360
1793694
1793928
1794160
1794394
1794624
1794772
1795090
1795318
1795550
1795772
1796004
1796238
1796468
1796706
1796942
1797182
1797422
1797540
1797902
1798144
1798384
1798624
1798864
1799106
1799350
1799465
1799832
