peaks
78
306
526
752
976
1206
1426
1654
1894
2138
2376
2616
2860
3104
3334
3562
3796
4044
4286
4510
4744
4980
5208
5424
5638
5864
6096
6320
6534
6762
7002
7234
7454
7672
7890
8104
8312
8520
8734
8944
9150
9366
9586
9800
10018
10240
10464
10678
10902
11134
11364
11578
11786
11998
12214
12436
12652
12886
13124
13352
13564
13774
13988
14208
14428
14654
14888
15118
15336
15550
15774
16006
16234
16454
16680
16910
17132
17334
17534
17742
17958
18176
18304
18624
18754
19066
19262
19460
19674
19912
20146
20386
20634
20884
21118
21348
21584
21816
22036
22246
22466
22694
22924
23146
23372
23604
23842
24064
24274
24488
24704
24912
25114
25326
25554
25794
26024
26252
26486
26726
26956
27174
27396
27624
27850
28068
28280
28502
28734
28972
29204
29442
29694
29926
30150
30372
30602
30834
31062
31280
31510
31730
31942
32140
32332
32530
32738
32962
33190
33440
33686
33922
34142
34366
34602
34838
35066
35290
35526
35774
36000
36214
36438
36676
36914
37138
37346
37556
37772
37996
38222
38474
38730
38978
39218
39462
39700
39930
40150
40372
40598
40820
41044
41276
41514
41742
41962
42190
42424
42656
42884
43122
43368
43604
43832
44058
44290
44522
44720
44970
45192
45416
45634
45842
46042
46262
46502
46742
46974
47184
47398
47618
47838
48044
48246
48446
48642
48840
49058
49300
49540
49770
50012
50260
50362
50714
50852
51162
51382
51590
51794
52004
52222
52452
52680
52924
53182
53440
53682
53932
54184
54426
54654
54892
55136
55366
55588
55806
56034
56270
56498
56708
56924
57152
57276
57610
57738
58036
58248
58458
58670
58880
59108
59354
59592
59820
60054
60294
60524
60746
60984
61232
61472
61694
61900
62096
62286
62472
62658
62852
63050
63246
63446
63670
63916
64160
64400
64646
64894
65136
65362
65592
65824
66052
66292
66538
66780
67016
67254
67492
67722
67942
68166
68404
68646
68880
69092
69310
69540
69774
69996
70236
70488
70730
70948
71160
71376
71600
71824
72052
72298
72540
72772
73000
73240
73494
73730
73954
74188
74430
74670
74904
75128
75364
75606
75836
76052
76270
76500
76728
76944
77150
77352
77566
77781
78028
78256
78500
78746
78986
79214
79450
79688
79920
80146
80382
80622
80858
81086
81308
81538
81778
82012
82236
82460
82692
82926
83148
83360
83572
83794
84018
84236
84464
84710
84958
85196
85436
85684
85928
86158
86386
86622
86858
87084
87298
87522
87756
87990
88214
88452
88694
88932
89158
89378
89610
89850
90082
90314
90560
90806
91040
91262
91496
91734
91968
92190
92402
92624
92856
93086
93308
93540
93784
94022
94250
94470
94698
94934
95168
95394
95624
95864
96106
96338
96560
96790
97026
97258
97478
97698
97924
98148
98360
98568
98778
98990
99208
99428
99666
99910
100148
100376
100496
100838
100968
101270
101472
101682
101908
102140
102370
102608
102858
103108
103348
103588
103834
104086
104326
104554
104794
105042
105284
105516
105738
105972
106210
106440
106666
106900
107008
107148
107368
107590
107824
108068
108304
108528
108756
108988
109222
109446
109664
109890
110122
110350
110568
110796
111036
111268
111496
111720
111956
112198
112428
112650
112880
113112
113340
113562
113790
114028
114266
114498
114732
114972
115212
115436
115654
115786
116106
116238
116524
116728
116940
117168
117396
117618
117856
118100
118338
118564
118784
119010
119242
119462
119676
119898
120130
120360
120576
120804
121034
121262
121482
121710
121946
122182
122410
122638
122876
123108
123330
123556
123784
124020
124252
124478
124718
124958
125194
125414
125576
125872
126100
126318
126526
126738
126962
127186
127406
127630
127856
128086
128312
128532
128640
128986
129204
129410
129614
129824
130042
130264
130484
130712
130960
131192
131414
131634
131864
132106
132344
132576
132812
133050
133286
133506
133724
133952
134188
134416
134638
134868
135104
135332
135556
135792
136028
136256
136474
136702
136936
137170
137396
137620
137854
138092
138322
138548
138780
139014
139164
139474
139612
139932
140144
140348
140556
140772
141000
141220
141442
141674
141914
142142
142356
142572
142794
143022
143248
143466
143620
143922
144058
144368
144572
144780
144998
145220
145440
145668
145906
146150
146386
146610
146840
147074
147306
147528
147750
147982
148214
148442
148666
148900
149140
149366
149584
149806
150036
150266
150486
150702
150926
151148
151358
151554
151748
151946
152154
152368
152596
152846
153096
153326
153550
153790
154036
154276
154506
154746
154994
155232
155466
155710
155956
156194
156418
156652
156888
157120
157342
157564
157792
158022
158244
158466
158690
158918
159142
159358
159584
159812
159924
160250
160376
160668
160880
161086
161292
161508
161738
161966
162186
162408
162646
162890
163118
163340
163570
163806
164034
164248
164462
164682
164902
165116
165320
165530
165756
165978
166198
166414
166642
166878
167108
167326
167556
167790
168018
168240
168472
168714
168948
169168
169390
169618
169850
170076
170288
170502
170714
170920
171120
171326
171540
171756
171972
172206
172452
172694
172924
173150
173382
173496
173822
173950
174236
174438
174636
174836
175050
175280
175516
175742
175964
176202
176444
176680
176904
177138
177378
177606
177822
178050
178286
178516
178738
178962
179190
179416
179636
179850
180072
180300
180520
180734
180954
181180
181412
181634
181846
182066
182284
182498
182700
182896
183098
183310
183524
183740
183972
184220
184458
184686
184926
185166
185400
185626
185856
185970
186314
186450
186742
186946
187152
187358
187560
187774
187998
188220
188426
188620
188818
189026
189240
189460
189688
189920
190148
190372
190600
190838
191074
191298
191518
191750
191980
192204
192422
192654
192890
193118
193338
193560
193792
194022
194244
194460
194680
194900
195016
195304
195438
195678
195854
196024
196194
196374
196568
196766
196970
197182
197398
197606
197820
198040
198258
198466
198676
198888
199096
199294
199488
199674
199854
200034
200210
200386
200560
200732
200900
201066
201234
201396
201560
201724
201886
202042
202200
202356
202512
202666
202820
202974
203128
203282
203436
203588
203740
203894
204056
204226
204402
204582
204768
204958
205150
205350
205554
205762
205966
206182
206398
206614
206832
207058
207280
207500
207722
207938
208150
208348
208536
208722
208908
209100
209296
209494
209690
209886
210082
210268
210452
210632
210808
210984
211158
211330
211498
211670
211842
212016
212188
212362
212532
212702
212874
213044
213213
213378
213546
213710
213878
214046
214220
214392
214560
214728
214898
215066
215232
215402
215566
215740
215916
216094
216268
216442
216616
216788
216962
217136
217320
217512
217714
217928
218148
218358
218570
218790
219014
219238
219468
219702
219938
220168
220394
220628
220862
221086
221294
221506
221722
221938
222144
222338
222528
222714
222894
223068
223238
223412
223592
223788
223978
224170
224362
224552
224738
224918
225098
225284
225480
225688
225894
226114
226342
226572
226794
227010
227230
227452
227672
227880
228096
228322
228550
228768
228984
229210
229438
229668
229886
230100
230310
230520
230722
230920
231126
231338
231552
231758
231966
232172
232300
232574
232716
232958
233140
233316
233496
233680
233874
234078
234296
234534
234772
235002
235236
235348
235664
235856
236044
236234
236424
236520
236818
236948
237202
237382
237494
237776
237912
238168
238348
238466
238722
238906
239094
239292
239406
239706
239822
240110
240304
240504
240704
240916
241138
241366
241594
241822
242054
242284
242504
242722
242942
243160
243374
243584
243798
244024
244244
244454
244668
244892
245114
245328
245546
245656
245966
246162
246358
246568
246782
246994
247218
247454
247694
247906
248168
248408
248642
248864
249082
249312
249552
249790
250012
250236
250464
250692
250912
251130
251354
251574
251788
252002
252226
252456
252680
252888
253096
253314
253540
253760
253988
254224
254462
254686
254912
255144
255372
255592
255804
256022
256246
256464
256678
256896
257118
257340
257554
257768
257994
258218
258440
258646
258854
259072
259298
259524
259746
259976
260204
260426
260650
260878
261108
261222
261536
261738
261936
262130
262322
262520
262734
262956
263180
263414
263648
263880
264108
264340
264580
264820
265058
265290
265526
265756
265978
266206
266442
266678
266906
267130
267360
267594
267814
268018
268222
268430
268636
268842
269056
269286
269522
269750
269984
270218
270446
270668
270892
271116
271340
271560
271792
272022
272240
272452
272668
272898
273130
273360
273608
273856
274102
274326
274444
274752
274884
275162
275348
275534
275734
275948
276170
276410
276662
276908
277144
277380
277620
277734
278066
278200
278476
278674
278880
279098
279342
279590
279824
280046
280276
280514
280752
280982
281220
281468
281714
281952
282186
282424
282662
282880
283096
283328
283558
283790
284014
284250
284490
284718
284938
285158
285382
285604
285818
286038
286250
286452
286650
286844
287048
287272
287506
287746
288002
288262
288510
288750
288988
289234
289478
289714
289940
290170
290402
290626
290844
291072
291310
291538
291758
291984
292220
292454
292676
292894
293118
293344
293570
293792
294024
294244
294458
294670
294898
295134
295364
295590
295830
296080
296328
296556
296786
297026
297144
297480
297610
297920
298138
298354
298576
298814
299052
299286
299516
299756
299998
300236
300470
300708
300944
301178
301408
301632
301866
302106
302336
302562
302794
302910
303230
303362
303630
303832
304036
304240
304448
304680
304928
305164
305390
305616
305854
305980
306166
306522
306748
306966
307178
307386
307604
307826
308044
308258
308476
308698
308914
309124
309338
309558
309778
309994
310214
310442
310668
310890
311110
311334
311556
311776
311990
312214
312446
312676
312906
313154
313388
313618
313856
314104
314352
314588
314832
315080
315316
315550
315790
316036
316284
316522
316762
317014
317256
317490
317726
317962
318192
318412
318638
318872
319102
319322
319546
319774
319998
320218
320436
320658
320874
321086
321300
321518
321734
321946
322160
322376
322600
322814
323036
323258
323476
323690
323910
324132
324352
324572
324796
325022
325244
325468
325698
325932
326158
326374
326598
326822
327038
327250
327458
327666
327870
328066
328248
328456
328660
328884
329114
329346
329596
329840
330072
330304
330536
330764
330982
331188
331394
331608
331830
332054
332298
332526
332750
332978
333220
333468
333714
333954
334184
334412
334632
334856
335090
335338
335584
335822
336064
336298
336512
336714
336910
337104
337292
337474
337656
337834
338010
338188
338378
338578
338812
339066
339318
339558
339804
340054
340310
340552
340794
341040
341286
341524
341754
341996
342240
342486
342724
342964
343216
343462
343702
343940
344176
344392
344592
344784
344974
345172
345382
345606
345856
346116
346366
346608
346860
347116
347362
347598
347842
348090
348338
348576
348816
349060
349302
349534
349770
350014
350254
350480
350710
350940
351164
351388
351618
351860
352100
352338
352576
352818
353054
353286
353524
353770
354006
354238
354456
354664
354870
355078
355296
355532
355766
355992
356222
356458
356682
356900
357122
357352
357580
357804
358036
358278
358510
358744
358984
359228
359466
359696
359934
360168
360392
360614
360840
361066
361290
361514
361738
361972
362206
362444
362684
362928
363172
363416
363658
363902
364026
364364
364504
364820
365040
365272
365508
365742
365984
366232
366472
366706
366942
367176
367400
367624
367850
368074
368292
368512
368734
368960
369182
369406
369630
369854
370078
370302
370524
370740
370950
371160
371372
371582
371792
371996
372206
372418
372626
372838
373056
373270
373484
373704
373928
374146
374368
374588
374810
375028
375242
375458
375674
375888
376094
376310
376526
376742
376958
377178
377402
377628
377862
378090
378314
378540
378760
378980
379200
379418
379634
379852
380072
380292
380504
380718
380932
381144
381354
381562
381774
381982
382186
382386
382588
382788
382986
383184
383388
383598
383812
384026
384244
384466
384686
384902
385122
385344
385562
385780
385998
386214
386426
386642
386862
387078
387292
387506
387722
387936
388148
388364
388576
388784
389002
389218
389432
389646
389864
390076
390288
390504
390718
390930
391140
391354
391570
391784
391996
392214
392430
392642
392854
393070
393288
393502
393714
393928
394140
394350
394560
394772
394982
395186
395394
395600
395804
396004
396208
396408
396608
396808
397012
397214
397418
397620
397828
398038
398244
398450
398660
398872
399082
399288
399496
399704
399910
400114
400324
400540
400754
400972
401186
401400
401608
401822
402034
402242
402452
402664
402872
403074
403282
403488
403694
403896
404104
404314
404518
404724
404936
405146
405354
405562
405774
405988
406198
406410
406624
406836
407040
407246
407456
407664
407868
408070
408274
408480
408682
408886
409096
409312
409528
409744
409970
410194
410420
410646
410870
411096
411326
411556
411788
412018
412252
412478
412706
412936
413164
413396
413626
413858
414090
414316
414540
414764
414982
415202
415428
415648
415870
416096
416318
416536
416756
416970
417190
417408
417624
417842
418064
418282
418502
418720
418934
419152
419366
419576
419790
420004
420214
420426
420634
420844
421056
421272
421484
421702
421922
422140
422358
422576
422790
423004
423224
423444
423664
423884
424102
424316
424526
424738
424944
425150
425360
425566
425770
425972
426172
426372
426574
426774
426978
427180
427386
427594
427800
428008
428218
428430
428642
428852
429060
429268
429478
429688
429894
430102
430308
430512
430712
430914
431112
431312
431510
431712
431916
432116
432320
432430
432724
432922
433114
433306
433500
433698
433896
434094
434298
434502
434708
434914
435122
435302
435540
435742
435942
436142
436340
436540
436740
436850
437140
437338
437532
437726
437920
438040
438316
438510
438704
438898
439092
439290
439488
439686
439886
440086
440290
440494
440700
440904
441104
441302
441500
441696
441894
442094
442294
442498
442702
442906
443114
443320
443524
443730
443936
444144
444352
444558
444768
444978
445190
445402
445614
445826
446040
446254
446464
446674
446886
447096
447302
447506
447710
447914
448118
448322
448524
448726
448930
449130
449330
449530
449730
449930
450128
450328
450532
450736
450944
451154
451362
451570
451780
451990
452200
452408
452620
452832
453040
453248
453452
453654
453856
454056
454254
454454
454652
454852
455052
455250
455440
455624
455798
455970
456136
456304
456468
456632
456796
456956
457114
457270
457426
457587
457739
457890
458040
458190
458342
458494
458644
458794
458944
459090
459238
459388
459534
459682
459830
459980
460136
460302
460482
460674
460884
461108
461322
461542
461778
462010
462232
462466
462704
462938
463164
463392
463624
463848
464082
464326
464558
464778
465004
465234
465452
465658
465860
466068
466282
466492
466700
466920
467142
467358
467564
467774
467992
468212
468430
468646
468868
469092
469302
469512
469722
469936
470150
470362
470570
470782
470996
471202
471408
471614
471826
472040
472252
472456
472660
472874
473090
473302
473516
473732
473948
474154
474352
474542
474734
474928
475058
475328
475466
475726
475914
476104
476300
476414
476714
476854
477110
477304
477502
477702
477912
478124
478338
478552
478774
478996
479212
479424
479632
479842
480052
480264
480466
480662
480852
481040
481232
481432
481640
481760
482064
482192
482472
482668
482866
483072
483274
483474
483670
483864
484056
484252
484456
484668
484878
485084
485294
485506
485720
485934
486152
486364
486562
486750
486932
487108
487282
487452
487620
487786
487950
488112
488274
488436
488596
488756
488914
489072
489234
489400
489580
489780
489990
490222
490458
490694
490926
491162
491402
491636
491862
492092
492324
492548
492768
492992
493220
493448
493668
493884
494106
494326
494538
494748
494964
495178
495388
495600
495820
496036
496240
496438
496632
496820
497014
497214
497426
497630
497836
498050
498272
498496
498714
498928
499148
499368
499580
499786
500004
500222
500434
500640
500854
501074
501184
501490
501694
501906
502114
502314
502512
502720
502930
503138
503340
503542
503754
503964
504168
504370
504582
504800
505006
505206
505412
505622
505834
506034
506236
506444
506658
506868
507070
507268
507472
507680
507886
508088
508298
508514
508730
508938
509138
509346
509560
509672
509974
510104
510348
510536
510718
510894
511066
511236
511404
511570
511742
511924
512128
512360
512594
512834
513086
513340
513588
513838
514098
514342
514574
514816
515068
515298
515526
515760
516000
516240
516476
516730
516988
517244
517488
517738
517990
518236
518466
518704
518942
519180
519406
519634
519874
520114
520344
520566
520796
521026
521248
521466
521694
521926
522158
522378
522604
522834
523056
523274
523496
523724
523946
524160
524382
524602
524814
525022
525232
525448
525662
525872
526074
526284
526490
526690
526886
527088
527304
527536
527762
527982
528216
528454
528680
528902
529126
529350
529562
529778
529996
530220
530438
530654
530878
531112
531340
531562
531788
532012
532230
532438
532654
532884
533110
533332
533552
533782
534016
534242
534464
534696
534920
535132
535346
535574
535680
535808
536018
536230
536356
536668
536796
537092
537284
537480
537682
537888
538090
538302
538526
538754
538982
539216
539454
539684
539906
540138
540366
540586
540800
541022
541250
541474
541690
541914
542142
542370
542588
542808
543036
543262
543482
543694
543914
544136
544350
544558
544774
544996
545224
545446
545662
545888
546118
546342
546560
546788
547024
547246
547462
547684
547912
548144
548366
548588
548822
549060
549282
549502
549726
549954
550176
550394
550618
550842
551058
551272
551498
551730
551952
552166
552390
552614
552832
553046
553268
553496
553726
553946
554170
554404
554644
554872
555094
555324
555560
555788
556008
556236
556470
556698
556918
557148
557380
557608
557826
558056
558292
558518
558738
558962
559192
559414
559630
559852
560078
560300
560516
560740
560966
561188
561406
561632
561862
562086
562302
562528
562760
562988
563210
563434
563660
563890
564112
564330
564556
564782
564996
565212
565436
565658
565876
566088
566312
566538
566756
566972
567074
567206
567422
567644
567860
568080
568306
568530
568748
568966
569188
569412
569628
569844
570066
570290
570512
570726
570838
571170
571304
571598
571804
572014
572230
572444
572662
572892
573128
573348
573566
573792
574020
574240
574456
574684
574916
575138
575354
575578
575798
576012
576228
576456
576684
576904
577124
577356
577588
577750
578044
578262
578472
578674
578874
579088
579318
579550
579772
579998
580230
580458
580676
580900
581124
581348
581564
581782
582008
582236
582454
582674
582902
583132
583354
583574
583802
584026
584240
584448
584560
584872
585004
585278
585472
585674
585890
586108
586330
586572
586698
587044
587170
587484
587698
587902
588114
588338
588572
588798
589020
589252
589488
589712
589934
590164
590398
590620
590842
591072
591296
591512
591726
591948
592174
592394
592608
592830
593058
593288
593516
593752
593992
594226
594450
594676
594906
595140
595366
595590
595822
596058
596288
596512
596746
596974
597194
597416
597644
597872
598088
598302
598522
598744
598962
599180
599406
599638
599866
600092
600330
600564
600792
601018
601254
601492
601722
601948
602182
602414
602638
602860
603092
603328
603554
603772
603998
604222
604440
604654
604876
605100
605314
605470
605750
605966
606174
606378
606590
606810
607028
607246
607480
607718
607948
608172
608406
608646
608874
609096
609318
609542
609762
609980
610210
610442
610666
610884
611116
611350
611578
611802
612032
612268
612494
612716
612946
613180
613412
613640
613874
614106
614326
614546
614774
615006
615230
615454
615682
615906
616122
616336
616562
616794
617016
617236
617468
617706
617934
618156
618386
618618
618846
619062
619280
619498
619712
619920
620136
620356
620580
620796
621012
621238
621468
621692
621910
622134
622362
622582
622794
623022
623252
623478
623698
623928
624166
624400
624624
624852
625080
625306
625520
625736
625964
626196
626420
626640
626868
627102
627328
627542
627764
627986
628200
628412
628632
628856
629070
629282
629506
629740
629966
630188
630420
630658
630882
631098
631322
631546
631762
631978
632204
632438
632664
632884
633112
633342
633562
633784
634016
634250
634474
634692
634914
635134
635348
635564
635786
636012
636230
636444
636670
636898
637124
637342
637568
637800
638024
638240
638462
638684
638900
639112
639324
639546
639768
639986
640208
640444
640674
640894
641116
641340
641564
641782
642002
642226
642446
642660
642880
643108
643334
643550
643768
643990
644212
644426
644638
644860
645076
645288
645500
645722
645940
646054
646370
646508
646804
646940
647218
647418
647622
647832
648040
648250
648468
648694
648914
649132
649358
649586
649806
650026
650252
650476
650694
650906
651130
651354
651572
651786
652010
652238
652456
652678
652910
653136
653352
653572
653800
654026
654244
654456
654676
654902
655128
655350
655578
655812
656046
656270
656492
656722
656952
657176
657400
657630
657858
658078
658302
658534
658762
658982
659198
659418
659640
659856
660068
660280
660498
660710
660922
661142
661370
661592
661810
662032
662258
662476
662692
662912
663140
663358
663574
663798
664024
664246
664466
664692
664924
665150
665368
665590
665814
666034
666250
666476
666700
666918
667134
667354
667578
667792
668000
668214
668434
668650
668864
669086
669316
669542
669760
669986
670218
670436
670650
670872
671098
671318
671536
671760
671994
672220
672444
672672
672904
673128
673348
673570
673798
674024
674244
674466
674698
674928
675152
675374
675606
675838
676060
676282
676510
676742
676960
677176
677402
677630
677850
678064
678288
678514
678738
678954
679182
679410
679638
679860
680086
680316
680546
680766
680986
681214
681444
681666
681882
682108
682336
682558
682774
682992
683216
683446
683668
683884
684112
684344
684566
684784
685012
685238
685462
685678
685898
686124
686348
686568
686790
687018
687242
687462
687684
687912
688140
688360
688580
688804
689028
689246
689466
689694
689924
690146
690358
690580
690806
691024
691240
691470
691700
691918
692130
692348
692570
692784
693000
693224
693454
693678
693896
694124
694356
694580
694800
695026
695262
695494
695718
695944
696174
696398
696614
696834
697060
697284
697498
697710
697936
698160
698376
698586
698802
699022
699236
699444
699656
699770
700094
700218
700472
700718
700918
701122
701328
701548
701776
701996
702216
702448
702680
702788
703118
703332
703538
703740
703940
704152
704372
704594
704814
705044
705280
705516
705744
705972
706206
706432
706654
706880
707110
707338
707558
707786
708020
708250
708476
708682
708890
709100
709312
709536
709758
709992
710242
710484
710724
710970
711090
711440
711574
711888
712108
712322
712540
712770
713000
713224
713450
713684
713918
714148
714376
714610
714838
715054
715280
715510
715734
715952
716182
716408
716628
716844
717074
717306
717534
717756
717992
718228
718456
718682
718916
719150
719364
719562
719754
719944
720142
720352
720594
720852
721102
721350
721606
721860
722102
722328
722560
722796
723026
723254
723494
723734
723966
724200
724444
724680
724908
725148
725388
725624
725852
726086
726322
726554
726778
727008
727246
727484
727714
727942
728180
728414
728640
728870
729104
729344
729582
729810
730048
730284
730514
730736
730970
731204
731426
731648
731870
732094
732312
732532
732762
732998
733224
733452
733688
733924
734150
734372
734598
734830
735052
735278
735516
735750
735974
736194
736424
736652
736874
737094
737324
737558
737778
737996
738226
738456
738676
738896
739124
739358
739580
739802
740034
740268
740494
740728
740964
741204
741436
741668
741910
742144
742366
742594
742820
743038
743256
743480
743704
743920
744134
744356
744582
744800
745018
745244
745470
745692
745910
746134
746364
746588
746804
747038
747272
747496
747712
747938
748162
748380
748592
748814
749042
749154
749276
749486
749714
749946
750176
750400
750626
750856
751082
751300
751524
751752
751974
752190
752416
752642
752860
753076
753296
753528
753756
753974
754202
754430
754648
754866
755092
755320
755538
755752
755972
756198
756418
756638
756866
757098
757322
757540
757774
758010
758240
758464
758698
758932
759156
759374
759596
759826
760050
760266
760492
760720
760942
761158
761374
761596
761814
762028
762250
762474
762694
762906
763128
763350
763566
763776
763996
764218
764430
764640
764858
765076
765292
765504
765726
765950
766172
766390
766612
766846
767072
767294
767526
767754
767978
768198
768420
768648
768876
769102
769330
769564
769798
770022
770244
770474
770702
770922
771140
771368
771592
771808
772020
772246
772474
772694
772912
773134
773360
773580
773800
774028
774260
774482
774698
774924
775154
775374
775588
775750
776048
776264
776472
776690
776912
777128
777344
777568
777796
778022
778240
778456
778684
778910
779130
779346
779570
779796
780014
780230
780454
780682
780898
781110
781330
781554
781774
781992
782220
782452
782678
782900
783128
783358
783578
783794
783910
784232
784360
784652
784854
785060
785262
785470
785684
785912
786130
786348
786568
786796
787020
787238
787460
787692
787918
788138
788362
788594
788822
789044
789266
789498
789728
789944
790162
790388
790612
790828
791044
791272
791504
791730
791952
792186
792424
792650
792872
793100
793328
793548
793760
793980
794202
794418
794634
794854
795074
795288
795500
795718
795938
796154
796364
796588
796814
797036
797254
797476
797700
797922
798140
798368
798600
798826
799048
799282
799516
799742
799964
800194
800430
800658
800872
801098
801324
801546
801760
801978
802200
802416
802630
802848
803074
803304
803522
803744
803974
804208
804432
804656
804890
805118
805340
805560
805786
806008
806228
806442
806664
806882
807094
807304
807518
807736
807854
808156
808362
808566
808766
808966
809178
809398
809616
809834
810062
810294
810516
810740
810970
811202
811422
811644
811876
812108
812330
812550
812780
813010
813230
813444
813666
813892
814106
814320
814546
814772
814992
815208
815436
815668
815890
816106
816332
816558
816778
816992
817218
817446
817666
817874
818090
818310
818522
818734
818958
819188
819412
819634
819868
820102
820326
820538
820764
820992
821216
821438
821668
821898
822120
822342
822454
822576
822794
823012
823228
823450
823676
823896
824110
824332
824558
824774
824982
825198
825420
825638
825850
826076
826302
826520
826728
826948
827176
827394
827608
827828
828058
828292
828512
828732
828964
829194
829416
829634
829862
830090
830310
830528
830752
830978
831192
831406
831630
831852
832072
832284
832506
832730
832948
833158
833376
833598
833818
834036
834260
834488
834710
834922
835138
835358
835580
835794
836008
836230
836458
836680
836896
837122
837346
837572
837788
838006
838230
838452
838664
838880
839104
839326
839542
839756
839980
840204
840422
840632
840848
841068
841282
841490
841704
841926
842142
842350
842568
842794
843012
843228
843448
843674
843892
844106
844332
844560
844778
844994
845218
845442
845658
845876
846102
846332
846554
846776
847008
847240
847464
847680
847906
848132
848350
848566
848782
849006
849230
849446
849662
849888
850118
850338
850560
850786
851014
851232
851454
851688
851918
852138
852352
852568
852790
853002
853212
853422
853648
853874
854092
854310
854538
854760
854974
855188
855410
855634
855860
856078
856302
856530
856750
856960
857176
857400
857614
857824
858036
858256
858472
858684
858894
859120
859346
859564
859780
860008
860238
860462
860682
860906
861134
861360
861576
861794
862018
862244
862460
862676
862900
863124
863340
863554
863774
863994
864208
864416
864636
864858
865072
865280
865498
865714
865930
866140
866352
866572
866798
867014
867232
867462
867694
867908
868130
868356
868588
868814
869034
869260
869492
869720
869934
870142
870358
870574
870790
871008
871232
871464
871686
871906
872136
872370
872594
872812
873036
873264
873490
873706
873924
874144
874364
874580
874792
875012
875240
875462
875678
875908
876138
876362
876582
876810
877040
877262
877478
877700
877924
878142
878354
878572
878794
879022
879238
879456
879676
879904
880124
880342
880568
880794
881008
881218
881432
881652
881768
882078
882282
882486
882688
882892
883114
883346
883576
883782
883976
884162
884344
884520
884696
884866
885034
885198
885364
885528
885694
885858
886020
886182
886344
886506
886668
886830
886990
887150
887308
887464
887620
887776
887932
888090
888248
888418
888600
888806
889030
889252
889488
889738
889980
890236
890502
890758
890980
891196
891420
891650
891886
892146
892418
892688
892948
893218
893492
893748
893994
894250
894506
894752
894994
895242
895490
895724
895966
896208
896448
896558
896686
896916
897172
897422
897650
897866
898078
898286
898502
898610
898744
898966
899200
899452
899708
899954
900190
900434
900670
900896
901128
901358
901590
901814
902046
902286
902528
902762
902996
903240
903488
903704
903904
904102
904300
904496
904694
904896
905096
905286
905470
905654
905842
906026
906212
906404
906606
906828
907080
907334
907578
907838
908104
908362
908602
908856
909120
909382
909630
909882
910136
910392
910636
910860
911096
911338
911580
911810
912048
912278
912504
912728
912976
913230
913482
913718
913966
914212
914454
914686
914926
915176
915426
915666
915902
916144
916392
916632
916862
917098
917336
917560
917784
918016
918252
918480
918712
918948
919184
919410
919634
919862
920084
920300
920524
920748
920970
921180
921380
921572
921758
921940
922120
922288
922476
922654
922832
923010
923190
923368
923550
923658
923910
924088
924264
924438
924610
924786
924976
925186
925408
925648
925898
926156
926402
926650
926910
927158
927392
927634
927876
928118
928348
928586
928836
929086
929320
929560
929672
929806
930032
930278
930520
930750
930988
931238
931486
931720
931964
932214
932454
932682
932916
933156
933392
933614
933852
934088
934310
934528
934756
934988
935212
935430
935660
935900
936134
936362
936596
936834
937064
937298
937542
937790
938024
938256
938488
938716
938938
939168
939402
939626
939842
940070
940304
940536
940762
940992
941224
941450
941672
941902
942140
942374
942600
942824
943048
943266
943486
943720
943960
944190
944416
944650
944886
945110
945328
945552
945778
945998
946212
946440
946672
946906
947132
947366
947604
947720
947848
948072
948318
948568
948804
949026
949254
949484
949708
949928
950156
950386
950614
950836
951058
951278
951492
951716
951950
952176
952402
952632
952860
953086
953318
953550
953778
954000
954228
954464
954690
954912
955142
955378
955604
955824
956048
956278
956504
956722
956952
957186
957412
957630
957862
958098
958324
958540
958762
958990
959216
959436
959670
959916
960158
960386
960618
960850
961074
961302
961538
961768
961994
962226
962462
962690
962916
963146
963380
963610
963832
964062
964300
964524
964748
964976
965206
965432
965672
965910
966136
966366
966604
966838
967064
967294
967528
967758
967984
968222
968462
968696
968930
969172
969410
969638
969864
970098
970332
970554
970782
971008
971234
971458
971690
971920
972148
972368
972598
972834
973062
973290
973524
973756
973974
974192
974414
974636
974850
975068
975292
975518
975736
975956
976186
976420
976646
976870
977102
977336
977560
977780
978004
978226
978442
978666
978890
979108
979318
979538
979766
979996
980220
980450
980686
980914
981134
981358
981584
981798
982018
982246
982472
982690
982908
983134
983354
983568
983786
984010
984232
984452
984676
984910
985144
985364
985584
985814
986046
986270
986490
986718
986946
987170
987388
987614
987838
988054
988268
988490
988716
988940
989158
989388
989624
989856
990078
990304
990534
990756
990976
991206
991434
991654
991868
992090
992314
992536
992754
992986
993218
993440
993660
993888
994116
994336
994554
994782
995010
995228
995452
995680
995906
996122
996342
996572
996796
997010
997228
997450
997668
997874
998090
998312
998528
998738
998950
999168
999378
999586
999800
1000020
1000238
1000452
1000670
1000892
1001116
1001336
1001552
1001782
1002014
1002236
1002450
1002676
1002902
1003122
1003340
1003562
1003792
1004016
1004232
1004456
1004682
1004904
1005116
1005334
1005546
1005756
1005964
1006180
1006406
1006630
1006848
1007072
1007296
1007524
1007742
1007966
1008190
1008418
1008634
1008846
1009062
1009280
1009494
1009702
1009924
1010150
1010368
1010582
1010808
1011036
1011256
1011474
1011704
1011912
1012108
1012292
1012474
1012652
1012828
1013004
1013178
1013350
1013520
1013692
1013866
1014038
1014210
1014382
1014556
1014732
1014908
1015084
1015262
1015446
1015652
1015862
1016076
1016284
1016486
1016680
1016868
1017056
1017242
1017444
1017652
1017888
1018138
1018396
1018642
1018900
1019162
1019426
1019674
1019922
1020172
1020416
1020644
1020866
1021102
1021338
1021572
1021816
1022070
1022330
1022578
1022812
1023060
1023312
1023562
1023796
1024036
1024290
1024544
1024780
1025012
1025260
1025514
1025758
1025988
1026232
1026478
1026712
1026926
1027146
1027382
1027616
1027842
1028072
1028310
1028540
1028760
1028992
1029232
1029468
1029690
1029914
1030150
1030390
1030620
1030838
1031070
1031316
1031560
1031788
1032018
1032260
1032498
1032724
1032948
1033188
1033424
1033644
1033860
1034092
1034340
1034562
1034766
1034972
1035188
1035410
1035626
1035846
1036092
1036318
1036520
1036712
1036900
1037084
1037264
1037442
1037618
1037794
1037972
1038158
1038352
1038576
1038826
1039088
1039306
1039514
1039722
1039928
1040144
1040392
1040638
1040858
1041062
1041260
1041450
1041638
1041826
1042012
1042198
1042402
1042624
1042870
1043144
1043422
1043692
1043944
1044208
1044470
1044720
1044956
1045196
1045444
1045678
1045888
1046084
1046290
1046522
1046760
1046994
1047222
1047472
1047726
1047968
1048182
1048384
1048590
1048814
1049050
1049276
1049512
1049630
1049764
1049996
1050232
1050478
1050732
1050980
1051210
1051436
1051548
1051680
1051904
1052114
1052310
1052500
1052686
1052866
1053044
1053224
1053406
1053590
1053710
1053964
1054108
1054340
1054524
1054722
1054944
1055156
1055358
1055556
1055776
1056014
1056256
1056484
1056716
1056956
1057196
1057424
1057648
1057888
1058130
1058368
1058594
1058830
1059070
1059300
1059516
1059726
1059958
1060200
1060422
1060626
1060824
1061040
1061270
1061496
1061702
1061902
1062094
1062280
1062460
1062642
1062826
1063020
1063220
1063456
1063724
1063982
1064224
1064488
1064748
1064998
1065238
1065486
1065734
1065974
1066220
1066474
1066720
1066956
1067192
1067438
1067684
1067920
1068154
1068394
1068634
1068862
1069090
1069330
1069568
1069800
1070038
1070278
1070510
1070732
1070958
1071188
1071420
1071642
1071862
1072092
1072328
1072552
1072776
1073014
1073256
1073486
1073714
1073948
1074180
1074406
1074630
1074864
1075102
1075330
1075548
1075770
1075996
1076216
1076428
1076652
1076886
1077120
1077342
1077570
1077808
1078046
1078270
1078486
1078722
1078950
1079168
1079374
1079586
1079814
1080050
1080284
1080490
1080688
1080886
1081080
1081270
1081466
1081660
1081846
1082030
1082212
1082394
1082578
1082770
1082970
1083184
1083410
1083636
1083850
1084080
1084320
1084560
1084798
1085044
1085296
1085534
1085780
1086028
1086270
1086502
1086746
1087002
1087248
1087486
1087728
1087976
1088216
1088446
1088686
1088928
1089162
1089390
1089616
1089850
1090080
1090304
1090530
1090758
1090984
1091198
1091420
1091654
1091888
1092120
1092362
1092608
1092850
1093086
1093330
1093578
1093812
1094040
1094252
1094460
1094666
1094882
1095122
1095366
1095600
1095850
1096112
1096364
1096604
1096852
1097098
1097332
1097566
1097810
1098054
1098288
1098520
1098754
1098992
1099218
1099440
1099664
1099894
1100116
1100336
1100564
1100792
1101016
1101236
1101468
1101706
1101936
1102170
1102408
1102648
1102884
1103114
1103348
1103582
1103812
1104040
1104276
1104520
1104760
1104994
1105236
1105482
1105716
1105948
1106186
1106426
1106658
1106894
1107134
1107368
1107598
1107836
1108062
1108278
1108498
1108724
1108952
1109170
1109400
1109638
1109874
1110104
1110338
1110572
1110798
1111018
1111248
1111482
1111714
1111940
1112176
1112416
1112652
1112880
1113104
1113368
1113602
1113832
1114066
1114300
1114526
1114754
1114984
1115208
1115426
1115650
1115888
1116116
1116332
1116554
1116780
1117004
1117222
1117452
1117686
1117914
1118138
1118372
1118606
1118832
1119056
1119288
1119520
1119742
1119966
1120192
1120412
1120632
1120864
1121096
1121314
1121532
1121756
1121980
1122198
1122426
1122662
1122894
1123112
1123334
1123558
1123788
1124008
1124230
1124460
1124690
1124916
1125144
1125378
1125616
1125842
1126072
1126306
1126544
1126772
1127004
1127246
1127486
1127720
1127956
1128194
1128428
1128654
1128882
1129112
1129342
1129570
1129802
1130038
1130266
1130490
1130716
1130940
1131154
1131378
1131604
1131832
1132054
1132278
1132510
1132734
1132956
1133184
1133412
1133638
1133854
1134080
1134314
1134542
1134760
1134982
1135208
1135434
1135668
1135910
1136146
1136372
1136600
1136830
1137052
1137270
1137494
1137726
1137950
1138172
1138402
1138632
1138856
1139080
1139310
1139540
1139762
1139988
1140214
1140440
1140660
1140884
1141112
1141332
1141550
1141774
1142002
1142226
1142438
1142648
1142848
1143042
1143234
1143436
1143658
1143892
1144126
1144378
1144628
1144872
1145132
1145386
1145634
1145866
1146108
1146346
1146574
1146808
1147046
1147282
1147510
1147736
1147968
1148204
1148428
1148652
1148884
1149120
1149348
1149578
1149816
1150046
1150272
1150508
1150744
1150978
1151200
1151426
1151656
1151878
1152100
1152332
1152562
1152782
1153012
1153248
1153474
1153692
1153920
1154154
1154380
1154598
1154822
1155046
1155264
1155474
1155694
1155918
1156030
1156148
1156356
1156582
1156816
1157052
1157274
1157496
1157724
1157950
1158168
1158396
1158626
1158858
1159082
1159312
1159548
1159780
1160002
1160222
1160452
1160680
1160906
1161134
1161372
1161606
1161830
1162058
1162290
1162518
1162734
1162956
1163180
1163402
1163622
1163840
1164070
1164298
1164522
1164746
1164976
1165202
1165418
1165634
1165862
1166094
1166316
1166540
1166770
1166996
1167216
1167428
1167650
1167878
1168100
1168318
1168544
1168774
1168998
1169214
1169436
1169666
1169888
1170098
1170320
1170548
1170774
1170994
1171212
1171438
1171658
1171874
1172098
1172332
1172560
1172784
1173014
1173254
1173480
1173702
1173932
1174164
1174388
1174606
1174836
1175064
1175286
1175498
1175718
1175946
1176166
1176376
1176586
1176806
1177024
1177238
1177456
1177682
1177912
1178134
1178348
1178572
1178798
1179024
1179240
1179464
1179694
1179922
1180140
1180358
1180586
1180816
1181036
1181252
1181478
1181710
1181932
1182148
1182374
1182606
1182826
1183040
1183264
1183496
1183726
1183944
1184168
1184398
1184626
1184842
1185056
1185280
1185514
1185736
1185946
1186172
1186394
1186616
1186826
1187042
1187264
1187490
1187708
1187924
1188154
1188382
1188600
1188812
1188932
1189258
1189394
1189664
1189848
1189980
1190218
1190396
1190572
1190750
1190944
1191172
1191408
1191624
1191832
1192032
1192236
1192448
1192664
1192876
1193102
1193340
1193576
1193820
1194070
1194316
1194544
1194780
1195018
1195250
1195474
1195712
1195946
1196170
1196390
1196624
1196862
1197094
1197320
1197556
1197798
1198030
1198262
1198508
1198750
1198984
1199220
1199458
1199698
1199924
1200154
1200386
1200618
1200840
1201072
1201310
1201546
1201774
1202012
1202260
1202496
1202726
1202964
1203206
1203432
1203650
1203880
1204120
1204352
1204584
1204824
1205066
1205302
1205542
1205784
1206022
1206248
1206482
1206722
1206958
1207184
1207422
1207668
1207898
1208124
1208354
1208592
1208818
1209046
1209284
1209526
1209760
1209994
1210234
1210470
1210694
1210926
1211162
1211394
1211620
1211856
1212096
1212334
1212568
1212804
1213048
1213288
1213514
1213748
1213980
1214212
1214442
1214678
1214910
1215138
1215372
1215612
1215844
1216072
1216302
1216538
1216766
1216986
1217208
1217436
1217660
1217876
1218100
1218332
1218562
1218782
1219012
1219240
1219460
1219680
1219906
1220130
1220348
1220568
1220800
1221032
1221254
1221488
1221724
1221950
1222166
1222394
1222626
1222852
1223072
1223306
1223542
1223776
1223998
1224228
1224458
1224680
1224904
1225138
1225376
1225606
1225842
1226076
1226312
1226536
1226764
1226996
1227224
1227448
1227678
1227906
1228136
1228362
1228598
1228834
1229062
1229288
1229522
1229758
1229978
1230202
1230428
1230658
1230880
1231090
1231310
1231540
1231766
1231986
1232218
1232452
1232664
1232860
1233054
1233252
1233458
1233672
1233910
1234178
1234442
1234698
1234962
1235220
1235470
1235724
1235974
1236214
1236460
1236708
1236948
1237178
1237418
1237658
1237888
1238124
1238368
1238600
1238826
1239058
1239292
1239524
1239750
1239984
1240222
1240446
1240668
1240896
1241128
1241352
1241578
1241816
1242054
1242284
1242514
1242748
1242980
1243206
1243434
1243666
1243896
1244118
1244344
1244578
1244816
1245048
1245280
1245518
1245752
1245974
1246210
1246446
1246676
1246900
1247128
1247358
1247580
1247798
1248028
1248258
1248482
1248696
1248918
1249142
1249362
1249584
1249818
1250054
1250280
1250514
1250750
1250976
1251196
1251426
1251662
1251888
1252108
1252338
1252572
1252806
1253030
1253264
1253502
1253732
1253956
1254194
1254432
1254658
1254878
1255106
1255334
1255550
1255764
1255986
1256212
1256432
1256646
1256868
1257092
1257308
1257522
1257744
1257974
1258194
1258414
1258642
1258874
1259102
1259328
1259558
1259794
1260020
1260246
1260484
1260722
1260954
1261178
1261410
1261640
1261866
1262086
1262316
1262548
1262776
1262998
1263226
1263456
1263684
1263906
1264136
1264370
1264602
1264818
1265036
1265264
1265482
1265700
1265928
1266158
1266386
1266606
1266828
1267048
1267270
1267490
1267706
1267940
1268176
1268406
1268632
1268868
1269110
1269342
1269582
1269822
1270056
1270282
1270518
1270758
1270988
1271222
1271458
1271692
1271916
1272142
1272374
1272608
1272828
1273052
1273282
1273508
1273730
1273952
1274186
1274418
1274636
1274856
1275088
1275320
1275546
1275770
1276006
1276240
1276462
1276680
1276908
1277136
1277358
1277574
1277796
1278022
1278246
1278464
1278690
1278924
1279150
1279366
1279590
1279816
1280032
1280248
1280474
1280706
1280928
1281148
1281376
1281606
1281830
1282044
1282266
1282490
1282710
1282926
1283148
1283374
1283598
1283818
1284046
1284274
1284500
1284724
1284952
1285186
1285418
1285640
1285864
1286092
1286316
1286532
1286752
1286974
1287192
1287408
1287632
1287854
1288070
1288286
1288510
1288738
1288958
1289180
1289414
1289648
1289872
1290086
1290312
1290542
1290766
1290980
1291204
1291438
1291668
1291792
1292116
1292336
1292552
1292760
1292976
1293202
1293428
1293646
1293870
1294104
1294342
1294570
1294800
1295038
1295270
1295490
1295708
1295930
1296148
1296260
1296574
1296782
1296994
1297198
1297404
1297618
1297840
1298066
1298282
1298510
1298744
1298980
1299204
1299426
1299662
1299898
1300126
1300350
1300584
1300824
1301050
1301270
1301498
1301730
1301956
1302172
1302400
1302626
1302846
1303062
1303288
1303526
1303758
1303980
1304210
1304442
1304664
1304878
1305102
1305336
1305570
1305786
1306010
1306242
1306464
1306682
1306908
1307142
1307376
1307604
1307828
1308058
1308286
1308506
1308728
1308954
1309180
1309396
1309610
1309836
1310064
1310288
1310504
1310734
1310966
1311192
1311412
1311640
1311872
1312094
1312316
1312546
1312780
1313002
1313216
1313442
1313668
1313890
1314110
1314338
1314570
1314792
1315008
1315232
1315460
1315682
1315900
1316126
1316358
1316578
1316794
1317024
1317258
1317484
1317706
1317936
1318172
1318396
1318616
1318846
1319080
1319306
1319526
1319756
1319990
1320214
1320436
1320666
1320896
1321120
1321334
1321562
1321792
1322016
1322232
1322460
1322694
1322924
1323142
1323368
1323598
1323822
1324036
1324260
1324492
1324724
1324946
1325168
1325402
1325638
1325862
1326080
1326306
1326538
1326764
1326980
1327204
1327434
1327660
1327882
1328104
1328330
1328560
1328784
1329008
1329242
1329478
1329702
1329926
1330162
1330400
1330622
1330832
1331054
1331286
1331510
1331730
1331958
1332190
1332420
1332640
1332864
1333094
1333320
1333540
1333758
1333986
1334210
1334426
1334652
1334876
1335098
1335312
1335528
1335752
1335970
1336188
1336404
1336618
1336830
1337042
1337270
1337508
1337734
1337956
1338174
1338426
1338648
1338868
1339098
1339326
1339552
1339768
1339996
1340228
1340454
1340672
1340898
1341134
1341366
1341586
1341806
1342032
1342260
1342480
1342696
1342926
1343158
1343380
1343598
1343832
1344070
1344302
1344524
1344754
1344988
1345214
1345432
1345660
1345894
1346118
1346334
1346558
1346788
1347014
1347230
1347450
1347676
1347902
1348124
1348346
1348576
1348812
1349042
1349264
1349492
1349724
1349948
1350162
1350380
1350606
1350826
1351038
1351262
1351494
1351718
1351936
1352162
1352394
1352626
1352844
1353068
1353296
1353514
1353732
1353964
1354202
1354438
1354660
1354892
1355124
1355350
1355578
1355812
1356044
1356270
1356496
1356724
1356952
1357170
1357382
1357602
1357820
1358036
1358254
1358484
1358718
1358940
1359162
1359388
1359616
1359836
1360052
1360278
1360502
1360722
1360944
1361178
1361410
1361636
1361866
1362108
1362344
1362572
1362798
1363028
1363256
1363478
1363700
1363934
1364166
1364386
1364604
1364832
1365058
1365278
1365488
1365708
1365934
1366152
1366366
1366588
1366812
1367038
1367252
1367470
1367694
1367918
1368136
1368350
1368574
1368800
1369018
1369230
1369454
1369678
1369896
1370110
1370330
1370556
1370774
1370988
1371210
1371440
1371662
1371876
1372098
1372324
1372550
1372762
1372984
1373216
1373444
1373666
1373892
1374124
1374356
1374576
1374798
1375024
1375248
1375462
1375678
1375906
1376136
1376356
1376582
1376810
1377038
1377262
1377486
1377722
1377962
1378188
1378394
1378600
1378802
1379010
1379216
1379418
1379626
1379828
1380018
1380198
1380378
1380554
1380726
1380896
1381064
1381232
1381400
1381568
1381734
1381900
1382064
1382228
1382394
1382560
1382728
1382904
1383082
1383272
1383480
1383708
1383932
1384176
1384430
1384686
1384928
1385154
1385374
1385596
1385844
1386112
1386390
1386642
1386874
1387104
1387332
1387590
1387870
1388144
1388400
1388538
1388876
1389016
1389300
1389514
1389766
1390020
1390264
1390524
1390778
1391028
1391264
1391520
1391650
1391970
1392176
1392404
1392638
1392868
1393078
1393282
1393476
1393668
1393854
1394042
1394240
1394446
1394666
1394918
1395192
1395452
1395724
1395996
1396250
1396474
1396708
1396958
1397198
1397450
1397712
1397968
1398234
1398498
1398754
1398988
1399220
1399462
1399708
1399952
1400212
1400326
1400476
1400730
1400990
1401264
1401516
1401750
1401970
1402202
1402448
1402694
1402950
1403214
1403476
1403724
1403974
1404228
1404476
1404718
1404964
1405210
1405450
1405628
1405948
1406184
1406414
1406652
1406898
1407144
1407384
1407638
1407864
1408080
1408290
1408508
1408750
1408982
1409210
1409454
1409710
1409944
1410172
1410416
1410656
1410892
1411126
1411372
1411606
1411824
1412030
1412248
1412470
1412680
1412876
1413070
1413258
1413444
1413626
1413814
1414014
1414220
1414426
1414626
1414820
1415010
1415196
1415378
1415558
1415738
1415920
1416110
1416302
1416500
1416716
1416934
1417146
1417354
1417576
1417820
1418078
1418330
1418588
1418846
1419100
1419350
1419608
1419864
1420116
1420358
1420606
1420858
1421114
1421358
1421604
1421854
1422100
1422330
1422572
1422820
1423064
1423298
1423542
1423786
1424032
1424260
1424494
1424742
1424988
1425226
1425456
1425700
1425946
1426182
1426410
1426644
1426882
1427118
1427340
1427558
1427790
1428028
1428254
1428470
1428692
1428916
1429128
1429328
1429524
1429716
1429904
1430086
1430266
1430444
1430618
1430792
1430972
1431160
1431354
1431574
1431824
1432068
1432330
1432604
1432868
1433120
1433376
1433634
1433768
1434106
1434346
1434586
1434818
1435056
1435314
1435572
1435822
1436078
1436338
1436594
1436830
1437070
1437316
1437554
1437798
1438040
1438274
1438506
1438738
1438972
1439208
1439432
1439668
1439900
1440132
1440354
1440584
1440816
1441040
1441264
1441496
1441728
1441954
1442184
1442426
1442656
1442884
1443112
1443350
1443592
1443832
1444072
1444312
1444546
1444772
1445006
1445242
1445472
1445698
1445926
1446150
1446368
1446588
1446816
1447040
1447262
1447482
1447706
1447922
1448132
1448316
1448570
1448784
1448998
1449216
1449434
1449646
1449860
1450076
1450292
1450504
1450724
1450948
1451168
1451384
1451600
1451828
1452054
1452276
1452488
1452702
1452918
1453134
1453338
1453538
1453742
1453948
1454154
1454366
1454594
1454818
1455040
1455264
1455502
1455734
1455970
1456206
1456446
1456686
1456916
1457144
1457370
1457594
1457812
1458034
1458260
1458478
1458696
1458916
1459140
1459358
1459562
1459758
1459948
1460134
1460318
1460498
1460678
1460860
1461044
1461234
1461344
1461628
1461752
1462010
1462196
1462378
1462562
1462748
1462936
1463132
1463330
1463524
1463718
1463908
1464100
1464304
1464536
1464788
1465038
1465274
1465514
1465750
1465988
1466228
1466476
1466716
1466952
1467200
1467448
1467682
1467906
1468146
1468384
1468616
1468840
1469076
1469320
1469540
1469754
1469972
1470196
1470428
1470656
1470884
1471124
1471362
1471590
1471818
1472052
1472284
1472506
1472728
1472956
1473184
1473406
1473628
1473852
1474072
1474292
1474516
1474744
1474970
1475194
1475418
1475646
1475870
1476090
1476308
1476512
1476710
1476910
1477116
1477326
1477532
1477750
1477980
1478200
1478416
1478648
1478886
1479118
1479338
1479564
1479800
1480028
1480250
1480470
1480696
1480920
1481134
1481352
1481578
1481810
1482038
1482262
1482494
1482734
1482970
1483206
1483454
1483698
1483934
1484174
1484406
1484646
1484878
1485108
1485348
1485584
1485806
1486040
1486270
1486492
1486708
1486934
1487154
1487370
1487582
1487798
1488012
1488222
1488428
1488640
1488848
1489052
1489256
1489464
1489668
1489870
1490074
1490282
1490488
1490692
1490898
1491108
1491314
1491528
1491746
1491962
1492178
1492392
1492602
1492812
1493018
1493230
1493440
1493644
1493852
1494062
1494268
1494468
1494670
1494870
1495068
1495264
1495458
1495652
1495846
1496038
1496230
1496424
1496614
1496806
1496998
1497194
1497386
1497580
1497774
1497970
1498166
1498360
1498552
1498746
1498940
1499134
1499326
1499522
1499714
1499908
1500100
1500294
1500490
1500684
1500878
1501078
1501280
1501482
1501596
1501894
1502022
1502290
1502478
1502664
1502850
1503044
1503242
1503440
1503638
1503840
1504040
1504236
1504438
1504638
1504838
1505034
1505234
1505436
1505638
1505838
1506040
1506240
1506434
1506532
1506824
1507008
1507186
1507358
1507522
1507686
1507844
1508000
1508154
1508306
1508460
1508616
1508772
1508928
1509086
1509246
1509406
1509568
1509732
1509898
1510060
1510222
1510386
1510554
1510720
1510888
1511058
1511234
1511424
1511660
1511922
1512190
1512438
1512696
1512974
1513254
1513538
1513822
1514110
1514394
1514678
1514960
1515242
1515526
1515794
1516078
1516350
1516614
1516878
1517150
1517416
1517668
1517912
1518166
1518424
1518670
1518916
1519170
1519412
1519672
1519932
1520182
1520438
1520706
1520954
1521188
1521432
1521676
1521910
1522136
1522374
1522620
1522860
1523104
1523356
1523616
1523850
1524094
1524344
1524586
1524830
1525080
1525332
1525588
1525832
1526072
1526324
1526574
1526822
1527080
1527322
1527544
1527770
1527992
1528202
1528404
1528602
1528800
1529000
1529210
1529416
1529610
1529802
1529990
1530172
1530350
1530538
1530740
1530950
1531158
1531394
1531638
1531858
1532068
1532276
1532504
1532734
1532952
1533172
1533398
1533636
1533856
1534068
1534272
1534480
1534692
1534900
1535100
1535306
1535522
1535770
1535990
1536200
1536398
1536592
1536782
1536978
1537214
1537456
1537704
1537968
1538238
1538498
1538752
1539012
1539268
1539516
1539764
1540018
1540272
1540514
1540766
1541022
1541274
1541526
1541786
1542038
1542292
1542558
1542814
1543064
1543316
1543570
1543822
1544070
1544330
1544586
1544832
1544962
1545306
1545440
1545768
1545986
1546212
1546446
1546682
1546914
1547162
1547402
1547640
1547882
1548126
1548364
1548600
1548848
1549086
1549320
1549560
1549790
1550020
1550262
1550494
1550722
1550960
1551194
1551420
1551648
1551884
1552122
1552352
1552590
1552828
1553056
1553280
1553510
1553734
1553962
1554194
1554420
1554652
1554880
1555108
1555340
1555564
1555792
1556024
1556242
1556450
1556654
1556850
1557038
1557226
1557410
1557592
1557774
1557960
1558158
1558354
1558556
1558764
1558972
1559176
1559388
1559606
1559820
1560028
1560238
1560464
1560686
1560912
1561132
1561356
1561596
1561816
1562026
1562238
1562456
1562694
1562940
1563170
1563392
1563504
1563848
1563982
1564270
1564462
1564656
1564870
1565120
1565364
1565590
1565826
1566062
1566294
1566536
1566778
1567032
1567280
1567522
1567754
1567986
1568232
1568480
1568722
1568956
1569200
1569446
1569690
1569936
1570180
1570414
1570664
1570906
1571146
1571400
1571650
1571896
1572150
1572398
1572644
1572898
1573004
1573150
1573384
1573618
1573862
1574094
1574320
1574534
1574744
1574960
1575182
1575396
1575616
1575834
1576044
1576250
1576460
1576664
1576864
1577062
1577258
1577452
1577642
1577832
1578016
1578192
1578364
1578538
1578714
1578900
1579090
1579286
1579498
1579704
1579918
1580128
1580354
1580590
1580832
1581066
1581290
1581512
1581736
1581960
1582190
1582412
1582632
1582862
1583102
1583336
1583532
1583798
1584024
1584138
1584466
1584602
1584898
1585098
1585302
1585516
1585744
1585976
1586218
1586488
1586760
1587022
1587278
1587512
1587744
1587966
1588182
1588406
1588632
1588848
1589058
1589270
1589490
1589746
1589994
1590226
1590456
1590692
1590918
1591136
1591356
1591576
1591794
1592008
1592230
1592454
1592674
1592894
1593118
1593338
1593560
1593784
1594000
1594218
1594434
1594646
1594864
1595080
1595292
1595500
1595706
1595904
1596102
1596292
1596480
1596658
1596834
1597010
1597188
1597368
1597556
1597748
1597950
1598168
1598396
1598618
1598838
1599066
1599180
1599502
1599626
1599914
1600118
1600320
1600526
1600736
1600944
1601166
1601394
1601618
1601850
1602102
1602328
1602542
1602760
1603002
1603246
1603492
1603732
1603976
1604242
1604498
1604740
1604974
1605226
1605482
1605728
1605968
1606218
1606462
1606698
1606938
1607170
1607396
1607616
1607850
1608078
1608300
1608536
1608770
1608996
1609206
1609416
1609530
1609818
1610008
1610190
1610362
1610530
1610702
1610890
1611110
1611314
1611540
1611800
1612062
1612302
1612546
1612804
1613056
1613302
1613538
1613790
1614040
1614280
1614530
1614788
1615042
1615282
1615524
1615772
1616020
1616254
1616498
1616750
1616994
1617228
1617470
1617714
1617950
1618182
1618424
1618664
1618896
1619122
1619356
1619584
1619800
1620008
1620216
1620420
1620618
1620810
1621006
1621214
1621432
1621652
1621862
1622086
1622320
1622554
1622782
1623012
1623238
1623464
1623688
1623910
1624148
1624388
1624630
1624742
1625086
1625328
1625570
1625810
1626048
1626302
1626546
1626784
1627034
1627294
1627544
1627798
1628048
1628288
1628536
1628776
1629004
1629250
1629502
1629744
1630002
1630252
1630480
1630712
1630956
1631196
1631422
1631656
1631882
1632100
1632298
1632546
1632756
1632966
1633180
1633394
1633598
1633806
1634010
1634210
1634410
1634614
1634816
1635018
1635220
1635418
1635614
1635806
1635998
1636152
1636364
1636540
1636716
1636890
1637062
1637234
1637408
1637590
1637796
1637996
1638210
1638426
1638650
1638878
1639094
1639314
1639530
1639754
1639978
1640204
1640412
1640614
1640820
1641032
1641238
1641450
1641666
1641882
1642002
1642296
1642490
1642676
1642862
1643062
1643284
1643514
1643742
1643972
1644194
1644416
1644644
1644876
1645128
1645372
1645614
1645850
1646086
1646326
1646568
1646810
1647048
1647292
1647542
1647792
1648030
1648278
1648530
1648772
1649002
1649228
1649454
1649692
1649916
1650134
1650350
1650572
1650796
1651020
1651236
1651448
1651668
1651892
1652112
1652326
1652540
1652766
1652992
1653214
1653430
1653644
1653864
1654080
1654290
1654494
1654698
1654908
1655120
1655332
1655548
1655780
1656016
1656258
1656492
1656732
1656974
1657216
1657448
1657688
1657922
1658156
1658384
1658614
1658852
1659088
1659320
1659552
1659794
1660036
1660270
1660504
1660738
1660966
1661186
1661402
1661622
1661842
1662076
1662310
1662538
1662764
1662996
1663226
1663454
1663686
1663924
1664162
1664396
1664632
1664872
1665100
1665328
1665440
1665562
1665774
1666006
1666238
1666480
1666712
1666946
1667176
1667402
1667624
1667858
1668088
1668314
1668536
1668758
1668970
1669178
1669384
1669588
1669792
1669992
1670192
1670388
1670580
1670768
1670954
1671136
1671316
1671496
1671676
1671852
1672032
1672212
1672392
1672564
1672736
1672912
1673086
1673262
1673436
1673610
1673788
1673964
1674140
1674312
1674482
1674650
1674812
1674972
1675132
1675290
1675446
1675600
1675750
1675902
1676054
1676204
1676352
1676502
1676652
1676802
1676954
1677112
1677264
1677424
1677588
1677760
1677942
1678138
1678338
1678550
1678792
1679044
1679300
1679544
1679816
1680104
1680386
1680658
1680914
1681170
1681442
1681710
1681980
1682226
1682478
1682736
1682998
1683264
1683512
1683754
1683998
1684252
1684502
1684748
1684998
1685242
1685486
1685726
1685964
1686216
1686464
1686712
1686950
1687176
1687416
1687662
1687830
1688138
1688352
1688574
1688804
1689038
1689276
1689510
1689754
1689998
1690250
1690490
1690726
1690966
1691212
1691456
1691688
1691918
1692152
1692394
1692632
1692864
1693100
1693340
1693580
1693812
1694048
1694294
1694538
1694774
1695012
1695260
1695508
1695744
1695978
1696218
1696470
1696722
1696962
1697196
1697442
1697692
1697934
1698172
1698402
1698640
1698896
1699154
1699400
1699640
1699884
1700134
1700372
1700602
1700834
1701072
1701312
1701542
1701774
1702020
1702266
1702514
1702770
1703022
1703264
1703498
1703736
1703974
1704204
1704430
1704662
1704892
1705128
1705362
1705606
1705852
1706094
1706340
1706588
1706834
1707072
1707318
1707564
1707806
1708054
1708304
1708554
1708788
1709028
1709272
1709510
1709742
1709980
1710222
1710462
1710696
1710930
1711170
1711410
1711650
1711892
1712144
1712396
1712644
1712890
1713140
1713396
1713650
1713912
1714176
1714434
1714690
1714952
1715210
1715460
1715714
1715974
1716236
1716484
1716740
1716990
1717234
1717482
1717732
1717976
1718220
1718478
1718728
1718976
1719226
1719480
1719726
1719976
1720236
1720494
1720754
1721016
1721262
1721512
1721776
1722038
1722292
1722554
1722810
1723058
1723312
1723568
1723814
1724054
1724298
1724542
1724778
1725016
1725256
1725492
1725716
1725940
1726166
1726386
1726594
1726800
1727012
1727232
1727460
1727686
1727930
1728180
1728432
1728676
1728928
1729184
1729434
1729682
1729930
1730182
1730430
1730678
1730928
1731178
1731422
1731662
1731904
1732144
1732380
1732616
1732842
1733072
1733318
1733568
1733820
1734064
1734312
1734564
1734806
1735050
1735298
1735546
1735786
1736030
1736278
1736518
1736768
1737016
1737262
1737508
1737754
1737996
1738226
1738462
1738700
1738934
1739162
1739394
1739632
1739866
1740090
1740316
1740550
1740790
1741026
1741268
1741514
1741762
1742012
1742262
1742508
1742756
1743006
1743260
1743518
1743768
1744014
1744264
1744510
1744758
1745006
1745250
1745498
1745746
1745982
1746222
1746462
1746694
1746918
1747144
1747370
1747592
1747710
1748040
1748260
1748476
1748688
1748906
1749126
1749342
1749566
1749810
1750042
1750268
1750496
1750726
1750954
1751184
1751424
1751666
1751914
1752166
1752412
1752654
1752900
1753152
1753394
1753640
1753896
1754144
1754398
1754660
1754910
1755160
1755408
1755654
1755894
1756148
1756404
1756654
1756908
1757164
1757412
1757666
1757914
1758162
1758426
1758680
1758928
1759106
1759430
1759670
1759912
1760158
1760398
1760646
1760904
1761166
1761422
1761676
1761926
1762172
1762422
1762676
1762924
1763170
1763416
1763658
1763902
1764150
1764392
1764632
1764876
1765122
1765358
1765594
1765836
1766070
1766298
1766530
1766770
1767008
1767246
1767490
1767736
1767978
1768224
1768476
1768714
1768960
1769208
1769450
1769694
1769948
1770200
1770450
1770704
1770960
1771206
1771454
1771702
1771950
1772202
1772456
1772706
1772958
1773210
1773466
1773724
1773978
1774228
1774486
1774738
1774988
1775246
1775502
1775764
1776020
1776268
1776528
1776790
1777044
1777298
1777562
1777820
1778080
1778332
1778582
1778710
1778842
1779090
1779380
1779654
1779918
1780186
1780444
1780692
1780944
1781194
1781436
1781686
1781940
1782192
1782458
1782728
1782976
1783224
1783470
1783712
1783964
1784210
1784458
1784720
1784980
1785226
1785476
1785720
1785964
1786210
1786448
1786686
1786930
1787168
1787406
1787650
1787892
1788136
1788382
1788620
1788860
1789104
1789346
1789586
1789824
1790054
1790286
1790520
1790748
1790976
1791208
1791432
1791652
1791874
1792096
1792312
1792528
1792748
1792970
1793186
1793408
1793638
1793864
1794088
1794320
1794552
1794776
1795000
1795224
1795448
1795670
1795892
1796118
1796342
1796564
1796794
1797024
1797250
1797484
1797716
1797944
1798174
1798406
1798636
1798866
1799104
1799340
1799574
1799816
