peaks
228
468
718
972
1216
1472
1728
1996
2278
2544
2800
3060
3324
3584
3820
4076
4332
4580
4832
5100
5340
5586
5842
6098
6346
6604
6862
7118
7364
7622
7874
8120
8380
8632
8876
9130
9386
9636
9892
10154
10412
10660
10922
11184
11436
11692
11946
12198
12446
12702
12954
13210
13456
13706
13962
14212
14460
14716
14970
15224
15474
15730
15988
16238
16498
16756
17006
17258
17512
17770
18018
18274
18524
18774
19016
19268
19518
19762
20012
20262
20502
20742
20986
21230
21466
21710
21952
22192
22438
22682
22920
23162
23402
23640
23878
24120
24360
24596
24842
25084
25324
25568
25816
26064
26306
26550
26798
27040
27280
27524
27770
28010
28258
28508
28756
29002
29252
29500
29744
29994
30242
30486
30736
30984
31224
31474
31726
31968
32214
32464
32706
32956
33204
33446
33694
33942
34188
34430
34682
34938
35180
35432
35680
35922
36166
36418
36666
36910
37156
37406
37652
37890
38140
38388
38630
38876
39118
39356
39590
39832
40076
40314
40560
40804
41042
41284
41530
41776
42014
42268
42522
42768
43014
43262
43506
43750
43884
44236
44472
44708
44946
45178
45312
45658
45892
46126
46366
46598
46828
47064
47298
47530
47766
48000
48232
48468
48708
48948
49184
49426
49670
49910
50152
50396
50640
50878
51122
51366
51608
51848
52094
52340
52492
52828
53070
53306
53540
53784
54022
54260
54502
54748
54994
55234
55486
55736
55982
56236
56492
56742
56998
57256
57510
57764
58016
58260
58500
58748
58992
59228
59470
59708
59940
60176
60414
60646
60878
61122
61362
61596
61840
62086
62330
62572
62822
63076
63318
63564
63810
64050
64298
64542
64782
65024
65272
65520
65756
66004
66246
66482
66720
66958
67196
67430
67670
67912
68148
68390
68634
68878
69118
69372
69622
69872
70124
70376
70626
70864
71114
71358
71596
71846
72090
72330
72576
72820
73064
73304
73554
73800
74038
74286
74534
74778
75020
75268
75514
75758
76004
76252
76498
76650
76984
77222
77454
77694
77930
78160
78398
78634
78868
79104
79346
79588
79818
80060
80302
80536
80776
81016
81254
81488
81730
81974
82212
82456
82698
82940
83178
83424
83668
83910
84154
84398
84642
84876
85112
85356
85596
85846
86104
86354
86612
86872
87124
87382
87632
87888
88138
88366
88600
88840
89076
89310
89544
89712
90020
90252
90486
90712
90938
91160
91380
91604
91826
92048
92268
92488
92708
92936
93154
93380
93600
93826
94046
94272
94486
94698
94910
95120
95326
95530
95732
95934
96138
96342
96548
96756
96966
97180
97392
97604
97812
98024
98234
98448
98662
98880
99094
99306
99516
99722
99928
100132
100334
100532
100730
100930
101126
101324
101518
101712
101908
102102
102296
102492
102686
102882
103076
103272
103466
103658
103850
104044
104236
104428
104544
104814
105004
105128
105390
105580
105706
105966
106156
106284
106540
106730
106858
107110
107302
107432
107682
107872
107996
108254
108442
108566
108820
109006
109132
109378
109560
109684
109930
110112
110242
110476
110656
110838
111018
111198
111376
111556
111734
111916
112096
112276
112460
112646
112772
113022
113210
113372
113588
113778
113966
114084
114346
114538
114694
114924
115118
115312
115508
115706
115838
116120
116330
116452
116750
116964
117078
117388
117602
117812
118020
118230
118346
118660
118870
118982
119298
119510
119624
119936
120148
120264
120578
120788
121006
121224
121442
121668
121896
122128
122362
122604
122850
123082
123328
123454
123800
124032
124264
124500
124726
124964
125200
125434
125674
125920
126168
126284
126652
126898
127134
127380
127620
127736
128096
128340
128574
128804
129038
129270
129494
129658
129958
130210
130460
130578
130936
131184
131416
131654
131888
132122
132354
132594
132830
133066
133300
133548
133794
134036
134276
134526
134778
135016
135134
135508
135750
135990
136230
136472
136708
136950
137194
137434
137684
137932
138178
138418
138664
138906
139136
139376
139610
139842
140072
140304
140536
140762
140988
141206
141424
141646
141862
142080
142296
142512
142726
142942
143160
143378
143598
143814
144028
144246
144462
144672
144884
145098
145308
145514
145726
145938
146144
146350
146564
146774
146978
147184
147392
147598
147798
148002
148208
148410
148610
148812
149012
149210
149408
149606
149804
150004
150204
150402
150604
150804
151006
151208
151410
151612
151814
152018
152220
152424
152630
152836
153046
153252
153460
153666
153870
154076
154284
154492
154698
154904
155112
155324
155532
155740
155956
156168
156380
156596
156818
157038
157256
157482
157706
157932
158158
158382
158616
158844
159068
159294
159516
159732
159946
160172
160402
160634
160860
161092
161326
161552
161786
162018
162246
162482
162634
162956
163190
163424
163656
163886
164004
164356
164584
164826
165066
165296
165538
165780
166024
166270
166520
166772
167028
167286
167540
167794
168048
168304
168558
168812
169090
169352
169596
169836
170088
170332
170584
170836
171084
171336
171592
171838
172086
172334
172578
172812
173052
173288
173520
173762
174004
174232
174466
174700
174940
175180
175426
175676
175922
176166
176416
176662
176912
177160
177410
177660
177900
178144
178390
178636
178874
179118
179360
179600
179834
180072
180310
180540
180776
181006
181234
181456
181686
181914
182138
182366
182596
182826
183062
183300
183532
183766
184006
184238
184466
184700
184926
185150
185382
185606
185832
186060
186294
186536
186780
187016
187268
187518
187768
188022
188286
188550
188806
189062
189320
189566
189806
190056
190306
190550
190790
191034
191276
191514
191758
192006
192250
192492
192744
193000
193250
193504
193756
194010
194258
194512
194766
195020
195280
195544
195810
196080
196336
196590
196858
197130
197408
197690
197950
198218
198492
198770
199036
199304
199540
199808
200078
200340
200612
200890
201164
201428
201700
201980
202238
202514
202792
203050
203326
203606
203882
204156
204446
204734
205008
205282
205542
205814
206088
206352
206620
206890
207158
207430
207712
207986
208246
208526
208812
209088
209354
209634
209912
210182
210444
210716
210986
211250
211514
211772
212030
212292
212548
212800
213054
213308
213568
213820
214076
214330
214590
214842
215090
215332
215580
215838
216094
216350
216604
216856
217110
217368
217616
217862
218108
218358
218478
218838
219084
219330
219572
219814
220058
220302
220548
220784
221032
221276
221516
221754
221996
222226
222456
222692
222928
223158
223392
223626
223856
224088
224326
224562
224802
225038
225274
225512
225752
225996
226236
226476
226712
226950
227188
227426
227660
227894
228126
228354
228580
228804
229030
229252
229474
229694
229916
230140
230358
230578
230804
231024
231242
231464
231686
231906
232126
232348
232566
232786
233004
233224
233442
233660
233880
234100
234316
234534
234754
234976
235194
235412
235636
235862
236078
236292
236506
236728
236956
237190
237428
237668
237906
238142
238378
238610
238840
239074
239304
239530
239760
239988
240218
240452
240688
240916
241148
241384
241624
241854
242090
242326
242556
242786
243014
243254
243496
243738
243982
244228
244480
244732
244982
245236
245490
245738
245998
246254
246504
246760
247020
247282
247536
247794
248050
248310
248562
248822
249080
249334
249586
249842
250098
250346
250596
250846
251094
251346
251596
251844
252094
252334
252578
252818
253052
253300
253552
253798
254040
254286
254530
254776
255014
255258
255502
255746
255982
256224
256462
256704
256942
257188
257434
257676
257920
258170
258418
258658
258904
259148
259384
259620
259864
260104
260340
260582
260714
261054
261294
261534
261770
262006
262246
262490
262730
262984
263238
263494
263748
264006
264266
264528
264782
265040
265296
265548
265798
266050
266308
266536
266782
267024
267260
267508
267760
268016
268276
268538
268810
269096
269370
269628
269904
270180
270446
270716
270990
271256
271514
271782
272056
272312
272576
272846
273134
273396
273668
273942
274216
274474
274746
275012
275272
275526
275792
276056
276308
276566
276836
277106
277380
277640
277918
278186
278450
278702
278966
279232
279500
279762
280018
280278
280550
280818
281082
281352
281632
281910
282182
282444
282718
282996
283272
283538
283804
284074
284348
284604
284868
285134
285404
285666
285932
286202
286462
286718
286982
287240
287490
287748
288010
288262
288514
288774
289034
289286
289540
289802
290060
290312
290574
290834
291088
291340
291598
291856
292110
292358
292618
292880
293140
293398
293666
293934
294192
294452
294724
294994
295264
295518
295784
296048
296318
296582
296848
297124
297396
297662
297940
298216
298496
298766
299034
299308
299580
299842
300110
300378
300644
300898
301162
301426
301688
301940
302200
302462
302726
302980
303244
303508
303764
304014
304272
304530
304776
305028
305286
305542
305790
306046
306304
306558
306816
307078
307342
307600
307858
308116
308380
308646
308902
309166
309430
309680
309942
310208
310462
310714
310978
311244
311510
311768
312026
312288
312556
312832
313110
313394
313670
313934
314206
314480
314752
315012
315274
315538
315798
316046
316306
316570
316830
317084
317352
317522
317896
318026
318158
318432
318706
318964
319234
319512
319784
320054
320340
320640
320902
321184
321470
321640
322022
322298
322562
322810
323068
323326
323576
323832
324098
324362
324618
324890
325166
325434
325704
325978
326258
326526
326804
327086
327370
327640
327920
328200
328480
328748
329028
329308
329586
329854
330128
330408
330682
330946
331220
331490
331744
332014
332278
332544
332802
333066
333340
333610
333876
334152
334430
334698
334966
335240
335512
335774
336046
336316
336594
336860
337120
337390
337650
337904
338158
338414
338670
338920
339176
339438
339694
339950
340220
340488
340746
341004
341266
341524
341776
342030
342272
342508
342742
342978
343220
343464
343702
343940
344180
344416
344648
344888
345130
345366
345606
345844
346082
346318
346564
346810
347050
347290
347540
347800
348038
348288
348544
348696
349046
349298
349550
349790
350032
350278
350522
350766
351018
351264
351504
351748
351998
352242
352486
352736
352986
353228
353476
353724
353966
354204
354446
354684
354918
355160
355404
355646
355886
356126
356368
356598
356834
357072
357302
357538
357774
358008
358242
358484
358724
358966
359204
359444
359676
359910
360150
360384
360616
360852
361088
361322
361552
361790
362024
362252
362488
362724
362960
363198
363434
363672
363904
364142
364380
364624
364868
365112
365368
365630
365894
366150
366410
366618
366956
367224
367494
367772
368066
368344
368614
368916
369220
369498
369794
370094
370386
370674
370974
371272
371562
371864
372170
372466
372764
373074
373380
373678
373990
374304
374606
374918
375226
375530
375842
376148
376450
376762
377088
377394
377708
378030
378338
378658
378980
379298
379616
379944
380100
380546
381124
381462
381794
382120
382430
382754
383090
383414
383740
384060
384374
384694
385062
385410
385742
386082
386438
386784
387134
387480
387826
388172
388512
388856
389200
389536
389874
390206
390530
390850
391152
391446
391752
392062
392384
392726
393082
393398
393736
394048
394350
394770
395134
395482
395832
396186
396524
396864
397200
397520
397826
398118
398398
398680
398964
399250
399524
399814
400100
400388
400678
400966
401262
401550
401838
402136
402424
402698
402978
403264
403538
403812
404096
404378
404648
404920
405198
405480
405752
406028
406302
406572
406842
407122
407400
407668
407938
408214
408482
408746
409020
409290
409558
409816
410080
410346
410610
410866
411128
411394
411660
411850
412164
412436
412698
412956
413214
413472
413730
413982
414238
414496
414756
415008
415268
415532
415794
416050
416308
416570
416834
417096
417356
417620
417884
418150
418410
418676
418948
419216
419480
419740
420010
420278
420542
420806
421068
421334
421598
421864
422124
422382
422646
422910
423164
423418
423682
423934
424188
424448
424712
424980
425254
425526
425796
426058
426328
426594
426860
427122
427384
427646
427906
428166
428426
428684
428940
429194
429456
429716
429978
430240
430504
430766
431026
431278
431536
431796
432052
432310
432562
432814
433076
433344
433602
433850
434110
434370
434628
434874
435128
435386
435636
435886
436140
436396
436644
436900
437158
437414
437666
437816
438178
438436
438694
438942
439186
439432
439682
439924
440178
440430
440680
440928
441182
441440
441700
441960
442216
442480
442746
443012
443272
443536
443798
444062
444314
444570
444830
445088
445336
445594
445850
446102
446352
446610
446870
447134
447392
447648
447908
448170
448428
448684
448946
449210
449464
449728
449996
450262
450522
450788
451058
451324
451580
451844
452106
452358
452610
452860
453110
453358
453612
453868
454120
454376
454636
454898
455160
455318
455670
455928
456182
456430
456682
456940
457192
457444
457566
457954
458100
458476
458740
459002
459262
459510
459770
460034
460296
460552
460816
461080
461340
461600
461868
462136
462402
462664
462932
463200
463466
463714
463970
464220
464464
464706
464958
465210
465474
465752
466024
466288
466558
466836
467116
467398
467666
467942
468222
468502
468768
469042
469320
469590
469858
470132
470412
470580
470946
471212
471486
471754
472014
472282
472554
472826
473090
473368
473650
473932
474204
474488
474716
475054
475328
475608
475886
476164
476428
476702
476980
477254
477518
477786
478058
478326
478586
478844
479112
479376
479634
479890
480154
480420
480678
480940
481210
481482
481748
482014
482286
482560
482830
483094
483368
483644
483916
484176
484442
484712
484980
485240
485504
485772
486040
486290
486550
486816
487084
487342
487610
487880
488148
488406
488678
488952
489228
489494
489770
490048
490328
490602
490872
491150
491428
491696
491956
492222
492490
492760
493014
493278
493544
493810
494074
494334
494608
494888
495164
495430
495702
495980
496264
496526
496802
497074
497342
497602
497874
498146
498418
498678
498952
499230
499500
499760
500028
500290
500546
500814
501082
501344
501600
501860
501986
502378
502534
502892
503152
503408
503660
503922
504186
504454
504714
504982
505258
505534
505808
506078
506354
506628
506902
507174
507438
507704
507970
508230
508496
508766
509038
509314
509578
509850
510122
510396
510660
510924
511194
511468
511740
512002
512272
512536
512804
513068
513340
513614
513876
514144
514418
514690
514950
515218
515492
515762
516020
516282
516546
516806
517062
517322
517584
517840
518094
518356
518620
518878
519138
519404
519666
519924
520188
520454
520716
520968
521230
521492
521744
521984
522228
522462
522706
522946
523184
523420
523660
523894
524122
524352
524582
524812
525042
525266
525436
525722
525944
526162
526380
526604
526826
527042
527258
527480
527700
527918
528138
528360
528584
528810
529036
529264
529486
529710
529934
530158
530386
530616
530842
531070
531292
531518
531744
531966
532188
532408
532630
532848
533068
533286
533504
533720
533936
534150
534364
534578
534790
535000
535212
535424
535636
535848
535998
536276
536488
536702
536916
537132
537346
537560
537780
538002
538222
538444
538674
538904
539140
539374
539608
539850
540082
540318
540554
540790
541020
541258
541494
541732
541972
542208
542446
542684
542920
543160
543398
543632
543864
544100
544328
544562
544792
545020
545242
545468
545696
545926
546156
546380
546616
546854
547088
547332
547584
547834
548072
548326
548582
548834
549110
549408
549712
550038
550346
550650
550958
551256
551560
551874
552190
552500
552804
553106
553408
553718
554016
554306
554596
554874
555160
555444
555730
556006
556290
556576
556828
557106
557368
557652
557922
558204
558484
558762
559062
559338
559610
559886
560166
560434
560708
560980
561250
561506
561774
562046
562314
562582
562856
563126
563388
563672
563970
564262
564560
564842
565130
565338
565698
566012
566294
566464
566848
567160
567466
567758
568036
568322
568614
568908
569198
569494
569794
570092
570382
570692
570992
571284
571572
571868
572154
572432
572716
572996
573264
573546
573828
574100
574380
574662
574936
575198
575482
575762
576034
576322
576618
576902
577182
577476
577764
578048
578332
578624
578920
579218
579496
579786
580084
580370
580664
580948
581234
581532
581830
582128
582406
582686
582968
583248
583522
583796
584076
584350
584618
584894
585178
585446
585724
586016
586286
586554
586834
587112
587382
587662
587950
588224
588500
588788
589094
589360
589646
589934
590216
590492
590780
591064
591344
591634
591928
592216
592388
592772
593056
593318
593576
593832
594092
594352
594620
594896
595170
595442
595720
596004
596272
596546
596830
597104
597370
597646
597942
598218
598494
598790
599068
599338
599616
599898
600180
600450
600726
601008
601284
601554
601832
602108
602372
602644
602918
603182
603442
603708
603972
604228
604494
604758
605018
605278
605544
605808
606066
606328
606594
606860
607114
607378
607650
607912
608170
608428
608690
608956
609214
609476
609744
610014
610278
610546
610818
611094
611364
611622
611888
612152
612408
612662
612926
613186
613438
613700
613956
614208
614470
614738
615010
615274
615546
615826
616104
616372
616652
616938
617226
617504
617786
617944
618298
618596
618884
619166
619440
619710
619986
620266
620538
620812
621100
621384
621656
621938
622214
622480
622756
623038
623302
623570
623844
624106
624368
624636
624898
625156
625420
625686
625942
626198
626460
626724
626980
627154
627504
627764
628024
628288
628552
628804
629066
629334
629610
629876
630154
630306
630702
630974
631248
631522
631800
632078
632348
632620
632896
633174
633454
633728
634008
634290
634568
634852
635124
635406
635692
635962
636236
636512
636786
637050
637320
637598
637862
638130
638406
638670
638936
639206
639476
639738
640006
640274
640538
640806
641066
641322
641582
641860
642128
642404
642692
642976
643240
643514
643794
644078
644352
644628
644906
645180
645444
645714
645982
646250
646508
646768
647024
647278
647526
647778
648038
648292
648542
648790
649048
649300
649548
649790
650040
650288
650536
650782
651042
651298
651552
651800
652058
652318
652570
652816
653068
653320
653562
653810
654058
654304
654546
654784
655020
655268
655516
655764
656010
656254
656494
656734
656970
657210
657448
657684
657916
658150
658380
658604
658836
659062
659280
659508
659732
659956
660176
660400
660632
660862
661100
661348
661600
661858
662116
662376
662636
662896
663162
663422
663684
663944
664204
664458
664720
664976
665228
665470
665718
665958
666192
666434
666678
666912
667152
667390
667622
667860
668096
668328
668562
668804
669042
669284
669524
669762
670004
670126
670478
670720
670958
671188
671420
671654
671888
672122
672362
672600
672832
673078
673320
673560
673802
674040
674280
674524
674762
675004
675242
675478
675712
675948
676072
676414
676644
676874
677096
677328
677554
677788
678022
678250
678486
678722
678948
679190
679428
679664
679904
680150
680386
680626
680862
681108
681352
681600
681848
682100
682360
682620
682890
683156
683428
683708
683994
684276
684556
684846
685142
685432
685714
686006
686304
686586
686868
687164
687452
687734
688026
688318
688600
688892
689192
689474
689762
690050
690332
690622
690912
691200
691488
691782
692078
692370
692668
692972
693274
693574
693874
694180
694494
694798
695104
695406
695700
695974
696266
696574
696866
697150
697448
697748
698040
698336
698642
698948
699248
699556
699870
700178
700486
700798
701106
701414
701730
702038
702340
702644
702958
703272
703590
703892
704206
704528
704844
705150
705446
705748
706054
706354
706650
706950
707254
707556
707856
708180
708488
708794
709094
709388
709692
709990
710282
710584
710888
711178
711476
711774
712076
712388
712700
713016
713322
713662
713990
714328
714648
714964
715272
715578
715886
716198
716512
716818
717128
717436
717734
718036
718348
718660
718954
719262
719592
719914
720212
720516
720820
721122
721412
721704
721990
722268
722550
722848
723174
723488
723788
724090
724404
724730
725058
725392
725710
726024
726344
726650
726946
727254
727560
727862
728168
728484
728802
729120
729468
729824
730154
730484
730810
731130
731430
731734
732044
732348
732648
732944
733252
733558
733862
734168
734468
734776
735082
735382
735686
735988
736294
736592
736882
737180
737476
737766
738062
738364
738652
738942
739236
739526
739816
740096
740384
740686
740974
741264
741552
741844
742134
742420
742714
743004
743302
743588
743884
744188
744506
744818
745134
745454
745758
746062
746392
746722
747070
747420
747758
748100
748440
748772
749098
749396
749678
749952
750234
750516
750796
751080
751352
751632
751910
752180
752454
752730
753004
753284
753568
753840
754118
754394
754660
754932
755208
755472
755740
756008
756282
756542
756810
757072
757344
757616
757878
758146
758414
758688
758950
759218
759484
759758
760028
760298
760560
760826
761092
761354
761612
761872
762138
762398
762662
762926
763180
763440
763690
763938
764192
764446
764700
764958
765224
765488
765748
766004
766268
766532
766796
767064
767332
767596
767866
768134
768400
768662
768922
769184
769438
769694
769946
770198
770450
770704
770950
771206
771458
771710
771850
772210
772460
772712
772962
773204
773450
773700
773952
774206
774456
774714
774974
775236
775492
775760
776026
776286
776550
776818
777080
777344
777612
777880
778140
778404
778670
778922
779184
779444
779704
779960
780218
780480
780744
781006
781262
781528
781786
782040
782298
782556
782812
783062
783314
783566
783816
784064
784320
784582
784848
785116
785380
785650
785924
786190
786458
786732
787002
787270
787536
787808
788086
788370
788654
788930
789208
789492
789772
790042
790314
790590
790870
791146
791410
791678
791948
792216
792474
792748
793018
793286
793550
793816
794078
794330
794598
794868
795138
795400
795660
795924
796182
796444
796694
796948
797210
797474
797734
798000
798268
798534
798790
799056
799324
799492
799848
800110
800376
800596
800904
801162
801422
801690
801956
802224
802482
802746
803018
803290
803560
803824
804090
804358
804622
804882
805142
805410
805674
805932
806188
806448
806702
806956
807212
807466
807712
807962
808212
808456
808706
808956
809200
809450
809696
809936
810188
810444
810700
810950
811210
811478
811750
812022
812288
812562
812838
813116
813398
813672
813944
814212
814488
814762
815038
815314
815592
815874
816142
816414
816686
816952
817220
817482
817742
818008
818274
818536
818798
819068
819338
819600
819872
820148
820416
820682
820960
821236
821502
821766
822038
822294
822556
822830
823102
823368
823638
823916
824192
824464
824736
825016
825302
825590
825870
826156
826442
826726
827008
827276
827550
827830
828110
828378
828658
828928
829194
829460
829742
830022
830300
830568
830850
831128
831406
831672
831944
832216
832476
832746
833018
833292
833552
833818
834088
834364
834642
834906
835184
835464
835740
836008
836278
836556
836834
837114
837390
837660
837938
838218
838482
838748
839018
839286
839546
839808
840078
840342
840598
840866
841132
841390
841642
841908
842172
842430
842698
842970
843232
843490
843758
844022
844278
844546
844816
845078
845338
845604
845870
846126
846390
846660
846926
847184
847450
847720
847990
848254
848514
848772
849028
849284
849544
849802
850052
850296
850538
850776
851026
851278
851532
851788
852036
852294
852560
852832
853090
853348
853614
853884
854156
854420
854684
854954
855226
855496
855758
855926
856290
856556
856812
857072
857336
857590
857844
858108
858378
858638
858902
859180
859458
859726
860002
860284
860558
860828
861106
861386
861654
861930
862208
862484
862752
863032
863302
863566
863838
864118
864400
864670
864946
865226
865506
865782
866054
866336
866626
866904
867178
867460
867744
868032
868308
868594
868874
869156
869436
869704
869982
870136
870520
870788
871060
871330
871588
871856
872130
872400
872666
872944
873228
873512
873794
874082
874358
874626
874904
875184
875468
875738
876020
876304
876588
876860
877144
877428
877716
878006
878280
878556
878842
879124
879394
879672
879954
880232
880500
880780
881060
881330
881602
881876
882156
882426
882698
882976
883256
883526
883806
884090
884370
884638
884916
885198
885468
885734
886006
886278
886546
886814
887084
887358
887620
887892
888170
888444
888706
888976
889252
889528
889790
890050
890322
890592
890854
891128
891406
891688
891956
892230
892500
892764
893028
893298
893554
893812
894062
894308
894554
894804
895070
895342
895618
895882
896150
896426
896704
896972
897242
897520
897790
898062
898338
898620
898906
899188
899468
899756
900042
900314
900588
900866
901148
901434
901712
901986
902268
902556
902834
903110
903392
903680
903948
904216
904490
904766
905034
905304
905578
905850
906112
906390
906664
906930
907212
907488
907756
908034
908318
908594
908878
909164
909446
909724
910008
910288
910556
910828
911100
911364
911638
911916
912202
912488
912764
913052
913342
913632
913912
914192
914476
914758
915044
915322
915600
915876
916156
916438
916714
916988
917254
917526
917800
918074
918346
918608
918880
919154
919418
919688
919964
920234
920494
920760
921034
921306
921566
921834
922108
922376
922632
922902
923170
923426
923690
923960
924226
924488
924758
925030
925296
925564
925840
926116
926378
926652
926922
927194
927454
927718
927988
928262
928526
928794
929070
929350
929626
929894
930168
930448
930726
931006
931284
931554
931830
932104
932378
932638
932904
933174
933436
933690
933946
934208
934464
934712
934966
935222
935480
935726
935986
936248
936506
936762
937032
937296
937554
937816
938086
938356
938618
938880
939150
939416
939674
939940
940206
940478
940732
940992
941250
941500
941758
942020
942276
942534
942794
943054
943306
943558
943816
944072
944322
944568
944818
945066
945304
945546
945784
946016
946254
946498
946750
947012
947274
947530
947792
948062
948338
948612
948876
949150
949428
949708
949974
950248
950526
950800
951068
951332
951608
951880
952142
952404
952680
952948
953204
953466
953730
953982
954236
954498
954756
955012
955276
955536
955794
956058
956314
956572
956836
957098
957352
957616
957884
958154
958410
958678
958948
959220
959478
959746
960018
960290
960552
960818
961084
961360
961632
961904
962174
962440
962712
962984
963254
963512
963778
964046
964310
964578
964844
965100
965362
965628
965892
966150
966406
966674
966934
967190
967346
967708
967954
968204
968460
968710
968864
969212
969462
969706
969960
970218
970470
970726
970994
971260
971522
971794
972074
972356
972634
972918
973206
973490
973762
974044
974328
974610
974890
975160
975440
975722
975992
976270
976540
976804
977074
977346
977620
977886
978154
978434
978712
978982
979254
979532
979810
980074
980342
980616
980884
981146
981418
981690
981960
982224
982494
982766
983030
983302
983576
983842
984110
984382
984658
984924
985194
985466
985740
986004
986270
986536
986802
987060
987326
987598
987868
988130
988400
988678
988952
989216
989486
989764
990046
990322
990588
990868
991144
991422
991686
991956
992228
992504
992770
993034
993232
993378
993504
993752
993928
994064
994258
994412
994696
994970
995270
995562
995844
996114
996392
996674
996958
997230
997506
997774
998030
998294
998552
998802
999060
999322
999580
999832
1000092
1000350
1000600
1000860
1001122
1001382
1001636
1001904
1002166
1002416
1002672
1002930
1003182
1003442
1003704
1003970
1004232
1004494
1004762
1005032
1005296
1005558
1005824
1006094
1006362
1006620
1006892
1007162
1007434
1007710
1007978
1008246
1008522
1008800
1009078
1009350
1009622
1009900
1010178
1010456
1010736
1011012
1011278
1011554
1011830
1012100
1012360
1012626
1012894
1013152
1013406
1013664
1013924
1014178
1014436
1014692
1014950
1015202
1015462
1015726
1015978
1016232
1016496
1016766
1017032
1017292
1017560
1017830
1018088
1018354
1018630
1018900
1019166
1019442
1019718
1019992
1020262
1020536
1020810
1021074
1021344
1021616
1021890
1022150
1022420
1022696
1022968
1023232
1023498
1023770
1024038
1024292
1024556
1024814
1025064
1025318
1025564
1025812
1026056
1026304
1026548
1026794
1027034
1027276
1027522
1027766
1028022
1028274
1028522
1028780
1029032
1029286
1029540
1029788
1030022
1030258
1030498
1030738
1030986
1031140
1031490
1031742
1031998
1032262
1032532
1032800
1033078
1033346
1033604
1033866
1034126
1034396
1034666
1034948
1035238
1035534
1035832
1036136
1036440
1036746
1037048
1037336
1037620
1037904
1038188
1038472
1038746
1039020
1039300
1039580
1039852
1040134
1040410
1040678
1040950
1041226
1041488
1041756
1042028
1042286
1042552
1042818
1043078
1043342
1043614
1043876
1044146
1044418
1044686
1044964
1045228
1045490
1045758
1046026
1046286
1046550
1046816
1047072
1047332
1047588
1047840
1048096
1048370
1048630
1048894
1049160
1049426
1049686
1049950
1050210
1050468
1050728
1050984
1051232
1051480
1051728
1051970
1052208
1052444
1052690
1052942
1053202
1053458
1053714
1053974
1054236
1054492
1054750
1055002
1055258
1055510
1055760
1056010
1056260
1056506
1056764
1057026
1057294
1057560
1057830
1058100
1058370
1058630
1058906
1059180
1059446
1059708
1059982
1060254
1060512
1060774
1061040
1061302
1061556
1061818
1062076
1062332
1062590
1062846
1063098
1063354
1063612
1063864
1064120
1064378
1064640
1064894
1065156
1065422
1065688
1065948
1066216
1066484
1066752
1067014
1067284
1067552
1067812
1068072
1068326
1068582
1068834
1069078
1069320
1069570
1069816
1070068
1070306
1070550
1070792
1071036
1071278
1071514
1071748
1071980
1072210
1072434
1072658
1072880
1073096
1073314
1073528
1073738
1073950
1074164
1074372
1074582
1074792
1075008
1075226
1075444
1075672
1075902
1076138
1076382
1076640
1076908
1077180
1077456
1077730
1078004
1078280
1078556
1078828
1079100
1079368
1079630
1079886
1080140
1080390
1080640
1080888
1081130
1081368
1081598
1081842
1082078
1082318
1082550
1082786
1083022
1083260
1083502
1083744
1083982
1084224
1084462
1084698
1084932
1085162
1085398
1085632
1085866
1086102
1086342
1086580
1086806
1087042
1087276
1087508
1087746
1087986
1088222
1088460
1088700
1088940
1089176
1089414
1089654
1089892
1090130
1090364
1090598
1090832
1091068
1091290
1091516
1091742
1091970
1092190
1092412
1092634
1092858
1093086
1093302
1093526
1093752
1093976
1094196
1094412
1094638
1094874
1095104
1095340
1095580
1095822
1096064
1096306
1096546
1096784
1097018
1097254
1097492
1097732
1097970
1098212
1098456
1098704
1098958
1099208
1099462
1099712
1099964
1100218
1100470
1100724
1100972
1101214
1101450
1101692
1101922
1102160
1102394
1102622
1102842
1103078
1103306
1103534
1103758
1103982
1104202
1104430
1104654
1104878
1105032
1105332
1105548
1105770
1105992
1106210
1106434
1106664
1106890
1107118
1107344
1107568
1107798
1108030
1108258
1108494
1108732
1108970
1109204
1109442
1109682
1109920
1110160
1110402
1110644
1110882
1111126
1111364
1111606
1111846
1112086
1112326
1112562
1112802
1113042
1113280
1113520
1113762
1114006
1114246
1114492
1114734
1114978
1115218
1115454
1115694
1115930
1116160
1116398
1116638
1116874
1117106
1117340
1117574
1117802
1118034
1118268
1118496
1118726
1118960
1119190
1119422
1119658
1119898
1120130
1120366
1120596
1120828
1121064
1121296
1121524
1121756
1121990
1122218
1122452
1122672
1122896
1123126
1123354
1123586
1123824
1124068
1124322
1124582
1124848
1125116
1125388
1125666
1125946
1126250
1126548
1126840
1127124
1127404
1127684
1127964
1128228
1128504
1128780
1129050
1129308
1129584
1129858
1130092
1130356
1130624
1130878
1131138
1131406
1131664
1131924
1132196
1132460
1132730
1133016
1133284
1133446
1133810
1134086
1134356
1134640
1134912
1135190
1135344
1135716
1135996
1136268
1136552
1136854
1137136
1137422
1137704
1137998
1138290
1138586
1138884
1139184
1139484
1139774
1140068
1140364
1140662
1140962
1141262
1141550
1141846
1142140
1142434
1142706
1142992
1143278
1143546
1143830
1144110
1144366
1144626
1144904
1145184
1145452
1145740
1146024
1146298
1146584
1146868
1147144
1147432
1147730
1148004
1148286
1148558
1148830
1149098
1149356
1149630
1149890
1150148
1150410
1150686
1150962
1151246
1151532
1151818
1152108
1152394
1152684
1152966
1153244
1153530
1153814
1154092
1154372
1154628
1154892
1155164
1155428
1155712
1155978
1156242
1156516
1156792
1157054
1157330
1157612
1157884
1158160
1158436
1158700
1158976
1159250
1159524
1159808
1160104
1160396
1160686
1160958
1161242
1161534
1161832
1162108
1162390
1162678
1162966
1163248
1163516
1163764
1164052
1164314
1164564
1164832
1165102
1165372
1165638
1165904
1166180
1166436
1166694
1166958
1167218
1167482
1167746
1168006
1168264
1168522
1168780
1169032
1169284
1169548
1169818
1170090
1170360
1170618
1170892
1171170
1171444
1171702
1171974
1172250
1172530
1172790
1173074
1173344
1173596
1173874
1174144
1174402
1174672
1174936
1175194
1175460
1175730
1175984
1176250
1176522
1176788
1177044
1177314
1177586
1177852
1178104
1178368
1178630
1178890
1179148
1179416
1179684
1179954
1180234
1180528
1180810
1181082
1181366
1181652
1181932
1182212
1182496
1182778
1183052
1183314
1183568
1183828
1184102
1184360
1184632
1184910
1185182
1185436
1185702
1185972
1186228
1186484
1186758
1187038
1187304
1187576
1187864
1188134
1188398
1188676
1188950
1189206
1189474
1189742
1190012
1190274
1190552
1190824
1191088
1191350
1191626
1191904
1192166
1192436
1192706
1192970
1193224
1193496
1193770
1194038
1194308
1194578
1194840
1195108
1195372
1195642
1195920
1196196
1196484
1196774
1196928
1197270
1197552
1197828
1198098
1198368
1198628
1198880
1199148
1199416
1199690
1199940
1200214
1200500
1200782
1201046
1201314
1201586
1201856
1202120
1202386
1202654
1202924
1203184
1203444
1203706
1203974
1204222
1204488
1204752
1205006
1205258
1205520
1205782
1206044
1206302
1206568
1206836
1207096
1207364
1207640
1207912
1208172
1208440
1208712
1208984
1209240
1209504
1209768
1210024
1210280
1210550
1210818
1211072
1211334
1211600
1211866
1212122
1212386
1212652
1212920
1213178
1213446
1213716
1213978
1214244
1214516
1214784
1215046
1215318
1215598
1215876
1216158
1216430
1216714
1216992
1217264
1217538
1217828
1218108
1218368
1218634
1218914
1219168
1219440
1219712
1219866
1220240
1220510
1220784
1221054
1221312
1221578
1221852
1222126
1222388
1222662
1222934
1223210
1223478
1223752
1224030
1224296
1224562
1224834
1225108
1225372
1225638
1225912
1226196
1226470
1226736
1227014
1227300
1227572
1227846
1228130
1228420
1228698
1228964
1229240
1229518
1229808
1230082
1230356
1230640
1230920
1231190
1231466
1231746
1232022
1232290
1232562
1232838
1233104
1233376
1233656
1233830
1234164
1234446
1234724
1234984
1235244
1235508
1235778
1236036
1236304
1236576
1236840
1237106
1237384
1237650
1237910
1238180
1238456
1238716
1238972
1239244
1239518
1239796
1239952
1240336
1240616
1240888
1241150
1241420
1241692
1241968
1242238
1242508
1242786
1243066
1243332
1243600
1243870
1244138
1244398
1244662
1244936
1245206
1245468
1245722
1245984
1246254
1246524
1246778
1247048
1247318
1247580
1247840
1248108
1248378
1248642
1248902
1249172
1249446
1249700
1249954
1250210
1250454
1250696
1250944
1251186
1251422
1251664
1251904
1252136
1252374
1252616
1252850
1253094
1253342
1253574
1253808
1254042
1254280
1254512
1254750
1254976
1255206
1255434
1255660
1255894
1256126
1256348
1256580
1256810
1257038
1257266
1257500
1257734
1257972
1258206
1258440
1258684
1258930
1259174
1259410
1259656
1259906
1260156
1260404
1260648
1260904
1261158
1261418
1261662
1261918
1262174
1262426
1262670
1262928
1263180
1263332
1263676
1263928
1264176
1264412
1264658
1264908
1265150
1265400
1265654
1265910
1266160
1266428
1266698
1266956
1267226
1267506
1267774
1268042
1268310
1268580
1268840
1269110
1269382
1269650
1269914
1270190
1270466
1270748
1271032
1271304
1271584
1271868
1272144
1272420
1272692
1272972
1273250
1273518
1273794
1274060
1274324
1274604
1274886
1275162
1275428
1275700
1275974
1276232
1276498
1276768
1277040
1277296
1277566
1277834
1278100
1278342
1278610
1278878
1279146
1279400
1279668
1279936
1280192
1280442
1280706
1280966
1281212
1281480
1281750
1282018
1282278
1282560
1282856
1283116
1283394
1283672
1283944
1284208
1284474
1284744
1285002
1285250
1285510
1285764
1286036
1286312
1286592
1286852
1287124
1287390
1287664
1287924
1288194
1288462
1288726
1288984
1289250
1289520
1289782
1290042
1290316
1290598
1290878
1291150
1291450
1291730
1292008
1292276
1292556
1292828
1293104
1293386
1293670
1293958
1294242
1294504
1294772
1295040
1295300
1295568
1295840
1296108
1296370
1296628
1296894
1297162
1297424
1297674
1297928
1298184
1298444
1298704
1298976
1299244
1299502
1299768
1300036
1300306
1300568
1300832
1301100
1301362
1301616
1301888
1302152
1302424
1302678
1302944
1303206
1303466
1303720
1303984
1304244
1304506
1304764
1305030
1305292
1305556
1305812
1306076
1306336
1306586
1306840
1307096
1307348
1307588
1307846
1308106
1308364
1308616
1308870
1309120
1309358
1309608
1309860
1310102
1310354
1310610
1310764
1311104
1311352
1311594
1311840
1312088
1312328
1312574
1312820
1312972
1313310
1313554
1313804
1314042
1314296
1314550
1314804
1315050
1315312
1315574
1315836
1316094
1316362
1316632
1316900
1317158
1317422
1317680
1317930
1318192
1318452
1318714
1318974
1319236
1319494
1319744
1320002
1320260
1320514
1320772
1321016
1321258
1321504
1321750
1321990
1322236
1322480
1322724
1322956
1323194
1323424
1323654
1323888
1324120
1324348
1324584
1324818
1325054
1325284
1325518
1325746
1325976
1326204
1326438
1326670
1326910
1327154
1327402
1327644
1327892
1328148
1328408
1328670
1328928
1329190
1329456
1329722
1329980
1330238
1330492
1330746
1331000
1331254
1331508
1331760
1332010
1332254
1332518
1332784
1333044
1333314
1333594
1333874
1334146
1334422
1334706
1334972
1335236
1335498
1335748
1335998
1336244
1336500
1336750
1337006
1337264
1337512
1337754
1338008
1338256
1338502
1338754
1338996
1339250
1339500
1339742
1339992
1340240
1340492
1340742
1340994
1341250
1341508
1341758
1342012
1342266
1342522
1342776
1343032
1343290
1343546
1343790
1344042
1344296
1344548
1344800
1345052
1345300
1345554
1345808
1346050
1346306
1346558
1346810
1347066
1347322
1347582
1347828
1348080
1348332
1348588
1348846
1349100
1349354
1349602
1349858
1350110
1350364
1350618
1350868
1351122
1351378
1351626
1351878
1352130
1352376
1352620
1352854
1353010
1353342
1353572
1353806
1354050
1354296
1354448
1354788
1355028
1355272
1355520
1355766
1356018
1356272
1356524
1356780
1357030
1357282
1357538
1357790
1358038
1358288
1358534
1358782
1359028
1359272
1359514
1359758
1360002
1360240
1360490
1360736
1360982
1361226
1361478
1361728
1361974
1362216
1362464
1362712
1362960
1363202
1363456
1363706
1363952
1364206
1364456
1364706
1364952
1365202
1365450
1365700
1365940
1366186
1366432
1366676
1366918
1367160
1367404
1367642
1367882
1368124
1368366
1368606
1368842
1369084
1369328
1369566
1369806
1370048
1370290
1370528
1370774
1371016
1371254
1371496
1371740
1371982
1372222
1372464
1372708
1372950
1373196
1373436
1373674
1373906
1374144
1374374
1374620
1374868
1375112
1375350
1375592
1375830
1376068
1376308
1376550
1376792
1377036
1377274
1377520
1377770
1378020
1378264
1378510
1378760
1379004
1379244
1379490
1379740
1379980
1380226
1380476
1380722
1380964
1381214
1381468
1381712
1381960
1382210
1382462
1382706
1382960
1383212
1383456
1383710
1383954
1384194
1384448
1384694
1384940
1385178
1385420
1385660
1385894
1386142
1386384
1386622
1386866
1387116
1387356
1387606
1387854
1388092
1388342
1388492
1388838
1389072
1389306
1389548
1389790
1390034
1390276
1390522
1390764
1391002
1391246
1391484
1391720
1391956
1392190
1392420
1392654
1392890
1393126
1393360
1393588
1393818
1394050
1394280
1394510
1394738
1394970
1395202
1395430
1395658
1395890
1396126
1396364
1396596
1396838
1397078
1397310
1397554
1397788
1398022
1398256
1398492
1398724
1398950
1399182
1399410
1399644
1399870
1400104
1400338
1400568
1400802
1401036
1401272
1401502
1401740
1401976
1402212
1402448
1402684
1402920
1403146
1403388
1403626
1403860
1404098
1404340
1404576
1404824
1405070
1405312
1405562
1405814
1406058
1406302
1406548
1406792
1407030
1407278
1407526
1407766
1407998
1408232
1408476
1408710
1408944
1409172
1409410
1409650
1409884
1410130
1410374
1410620
1410862
1411124
1411276
1411614
1411856
1412106
1412344
1412582
1412818
1413062
1413308
1413548
1413790
1414036
1414278
1414526
1414766
1415014
1415262
1415512
1415754
1416004
1416254
1416494
1416740
1416984
1417224
1417460
1417700
1417938
1418168
1418406
1418642
1418868
1419096
1419336
1419572
1419804
1420046
1420284
1420522
1420756
1420992
1421230
1421462
1421700
1421936
1422174
1422406
1422644
1422882
1423120
1423350
1423504
1423806
1424048
1424282
1424520
1424754
1424986
1425218
1425456
1425696
1425928
1426170
1426412
1426648
1426888
1427128
1427366
1427606
1427844
1428084
1428316
1428556
1428796
1429030
1429272
1429518
1429758
1429994
1430228
1430468
1430704
1430934
1431170
1431406
1431642
1431878
1432112
1432352
1432588
1432824
1433064
1433300
1433532
1433770
1434004
1434228
1434460
1434700
1434940
1435184
1435426
1435660
1435902
1436142
1436370
1436606
1436838
1437064
1437296
1437526
1437750
1437972
1438194
1438420
1438640
1438870
1439096
1439318
1439546
1439778
1440002
1440228
1440454
1440686
1440856
1441150
1441370
1441596
1441824
1442052
1442220
1442510
1442734
1442966
1443194
1443422
1443660
1443898
1444146
1444390
1444638
1444892
1445144
1445388
1445640
1445894
1446150
1446400
1446654
1446910
1447166
1447422
1447682
1447936
1448178
1448414
1448652
1448888
1449130
1449370
1449608
1449846
1450076
1450312
1450550
1450784
1451014
1451258
1451496
1451736
1451982
1452226
1452478
1452732
1452982
1453230
1453484
1453736
1453990
1454242
1454492
1454742
1454982
1455228
1455478
1455724
1455970
1456210
1456458
1456700
1456944
1457186
1457434
1457678
1457920
1458164
1458412
1458658
1458906
1459154
1459404
1459652
1459900
1460142
1460382
1460628
1460868
1461120
1461384
1461630
1461874
1462136
1462388
1462628
1462876
1463122
1463368
1463610
1463858
1464108
1464354
1464606
1464858
1465108
1465362
1465616
1465874
1466138
1466400
1466656
1466900
1467154
1467398
1467634
1467872
1468112
1468356
1468600
1468856
1469110
1469366
1469620
1469880
1470034
1470390
1470642
1470896
1471142
1471394
1471636
1471888
1472140
1472380
1472638
1472892
1473142
1473392
1473648
1473900
1474144
1474398
1474650
1474896
1475144
1475396
1475642
1475896
1476144
1476394
1476646
1476896
1477142
1477394
1477640
1477882
1478124
1478362
1478608
1478850
1479096
1479340
1479584
1479832
1480080
1480328
1480576
1480820
1481074
1481324
1481580
1481838
1482080
1482338
1482592
1482846
1483092
1483346
1483600
1483846
1484088
1484338
1484584
1484824
1485068
1485310
1485548
1485788
1486032
1486280
1486540
1486796
1487048
1487304
1487558
1487810
1488062
1488310
1488568
1488816
1489066
1489318
1489566
1489810
1490054
1490300
1490542
1490778
1491024
1491260
1491494
1491738
1491982
1492222
1492464
1492712
1492958
1493196
1493446
1493686
1493918
1494162
1494406
1494646
1494892
1495134
1495376
1495610
1495850
1496088
1496320
1496556
1496794
1496946
1497268
1497496
1497722
1497954
1498184
1498412
1498648
1498886
1499118
1499362
1499598
1499848
1500100
1500348
1500594
1500836
1501080
1501324
1501568
1501810
1502046
1502290
1502530
1502778
1503022
1503262
1503492
1503732
1503972
1504218
1504460
1504698
1504850
1505178
1505406
1505638
1505870
1506102
1506340
1506574
1506808
1507038
1507272
1507508
1507738
1507974
1508214
1508458
1508704
1508944
1509176
1509408
1509642
1509876
1510108
1510346
1510582
1510816
1511054
1511290
1511526
1511760
1511996
1512234
1512468
1512702
1512936
1513164
1513394
1513624
1513856
1514078
1514306
1514534
1514760
1514992
1515222
1515450
1515682
1515906
1516134
1516364
1516594
1516826
1517056
1517282
1517514
1517744
1517968
1518192
1518420
1518638
1518862
1519082
1519302
1519522
1519744
1519966
1520194
1520424
1520660
1520898
1521134
1521358
1521586
1521812
1522040
1522254
1522464
1522682
1522902
1523132
1523356
1523574
1523798
1524030
1524264
1524496
1524720
1524954
1525180
1525408
1525642
1525876
1526116
1526364
1526622
1526886
1527036
1527396
1527646
1527888
1528126
1528356
1528586
1528820
1529058
1529292
1529524
1529764
1529998
1530238
1530476
1530722
1530966
1531214
1531458
1531710
1531964
1532218
1532470
1532722
1532966
1533216
1533470
1533724
1533974
1534224
1534468
1534718
1534966
1535214
1535462
1535704
1535942
1536182
1536418
1536654
1536884
1537120
1537354
1537584
1537812
1538048
1538276
1538508
1538736
1538960
1539180
1539404
1539626
1539844
1540058
1540278
1540486
1540694
1540900
1541106
1541312
1541518
1541722
1541924
1542128
1542330
1542532
1542732
1542932
1543128
1543326
1543526
1543722
1543916
1544112
1544310
1544504
1544700
1544896
1545092
1545286
1545480
1545672
1545864
1546056
1546246
1546434
1546626
1546818
1547010
1547200
1547392
1547584
1547776
1547970
1548160
1548352
1548544
1548736
1548926
1549118
1549308
1549502
1549694
1549884
1550074
1550262
1550448
1550632
1550814
1550994
1551176
1551358
1551538
1551716
1551894
1552074
1552252
1552428
1552602
1552778
1552952
1553128
1553304
1553478
1553652
1553826
1554000
1554174
1554348
1554524
1554696
1554868
1554984
1555218
1555390
1555504
1555736
1555910
1556024
1556256
1556428
1556542
1556774
1556946
1557060
1557290
1557466
1557578
1557816
1557992
1558164
1558346
1558518
1558694
1558870
1559044
1559220
1559334
1559578
1559756
1559866
1560112
1560290
1560400
1560646
1560824
1561000
1561176
1561350
1561464
1561702
1561876
1561988
1562222
1562396
1562506
1562744
1562918
1563028
1563268
1563444
1563554
1563796
1563974
1564084
1564330
1564510
1564620
1564872
1565052
1565164
1565410
1565590
1565702
1565950
1566130
1566240
1566490
1566668
1566780
1567028
1567208
1567320
1567574
1567756
1567868
1568126
1568308
1568420
1568682
1568868
1568978
1569244
1569430
1569542
1569804
1569990
1570102
1570374
1570568
1570680
1570962
1571158
1571360
1571556
1571752
1571870
1572148
1572346
1572468
1572736
1572934
1573060
1573328
1573526
1573654
1573918
1574112
1574260
1574496
1574688
1574882
1575074
1575268
1575394
1575660
1575860
1575982
1576250
1576444
1576562
1576826
1577018
1577138
1577400
1577588
1577716
1577968
1578156
1578328
1578532
1578716
1578904
1579024
1579290
1579482
1579638
1579880
1580078
1580276
1580474
1580674
1580792
1581074
1581276
1581398
1581680
1581878
1581998
1582268
1582474
1582586
1582876
1583074
1583184
1583462
1583654
1583774
1584034
1584222
1584334
1584596
1584788
1584898
1585174
1585368
1585562
1585756
1585954
1586074
1586372
1586580
1586702
1587002
1587208
1587330
1587622
1587830
1588040
1588252
1588482
1588596
1588934
1589162
1589390
1589618
1589846
1590068
1590296
1590528
1590762
1590990
1591228
1591464
1591702
1591934
1592174
1592412
1592650
1592886
1593122
1593362
1593604
1593844
1594082
1594328
1594576
1594822
1595062
1595312
1595558
1595796
1596040
1596282
1596524
1596762
1597006
1597254
1597500
1597742
1597990
1598240
1598484
1598734
1598984
1599238
1599486
1599732
1599976
1600224
1600466
1600710
1600954
1601192
1601436
1601672
1601916
1602162
1602406
1602654
1602906
1603152
1603404
1603660
1603910
1604156
1604406
1604650
1604892
1605130
1605370
1605608
1605854
1606090
1606324
1606560
1606710
1607034
1607272
1607506
1607738
1607884
1608166
1608418
1608650
1608876
1609102
1609328
1609554
1609784
1610010
1610240
1610470
1610700
1610926
1611152
1611374
1611594
1611816
1612042
1612272
1612496
1612722
1612944
1613158
1613374
1613590
1613808
1614022
1614238
1614454
1614668
1614878
1615090
1615300
1615508
1615724
1615938
1616154
1616368
1616582
1616794
1617004
1617216
1617430
1617648
1617864
1618080
1618294
1618508
1618724
1618942
1619162
1619384
1619606
1619828
1620052
1620278
1620510
1620742
1620972
1621202
1621430
1621662
1621892
1622116
1622340
1622554
1622786
1623020
1623252
1623486
1623722
1623958
1624188
1624420
1624658
1624892
1625128
1625364
1625598
1625832
1626072
1626306
1626542
1626782
1627022
1627266
1627502
1627746
1627992
1628234
1628486
1628734
1628976
1629214
1629456
1629700
1629938
1630170
1630412
1630648
1630884
1631122
1631360
1631588
1631826
1632062
1632294
1632532
1632768
1633006
1633242
1633480
1633716
1633956
1634188
1634426
1634664
1634898
1635130
1635368
1635602
1635836
1636074
1636312
1636544
1636780
1637016
1637252
1637486
1637722
1637958
1638194
1638424
1638658
1638892
1639124
1639362
1639598
1639836
1640064
1640302
1640544
1640780
1641016
1641258
1641500
1641732
1641974
1642214
1642442
1642674
1642898
1643124
1643346
1643566
1643790
1644016
1644234
1644454
1644670
1644890
1645106
1645322
1645536
1645750
1645968
1646180
1646394
1646604
1646818
1647026
1647236
1647446
1647654
1647866
1648076
1648282
1648492
1648702
1648916
1649126
1649334
1649540
1649744
1649950
1650156
1650362
1650566
1650768
1650976
1651178
1651378
1651584
1651794
1651998
1652200
1652404
1652608
1652808
1653014
1653216
1653416
1653614
1653806
1653998
1654188
1654380
1654568
1654760
1654948
1655138
1655328
1655518
1655710
1655900
1656092
1656286
1656482
1656682
1656880
1657080
1657280
1657482
1657686
1657888
1658096
1658302
1658510
1658710
1658916
1659128
1659340
1659546
1659754
1659958
1660164
1660374
1660576
1660776
1660976
1661178
1661386
1661582
1661780
1661978
1662170
1662362
1662554
1662746
1662938
1663134
1663332
1663532
1663736
1663946
1664160
1664382
1664608
1664836
1665066
1665300
1665536
1665772
1666004
1666236
1666474
1666706
1666930
1667166
1667400
1667628
1667862
1668094
1668324
1668564
1668798
1669034
1669272
1669508
1669754
1669998
1670242
1670482
1670728
1670966
1671204
1671444
1671684
1671928
1672164
1672390
1672616
1672846
1673072
1673210
1673504
1673742
1673974
1674194
1674422
1674648
1674874
1675106
1675340
1675574
1675812
1676040
1676262
1676484
1676710
1676932
1677158
1677378
1677595
1677740
1678024
1678236
1678454
1678670
1678890
1679108
1679324
1679540
1679758
1679974
1680190
1680408
1680630
1680850
1681072
1681292
1681516
1681738
1681964
1682190
1682412
1682642
1682872
1683098
1683328
1683554
1683774
1684004
1684230
1684456
1684680
1684822
1685108
1685340
1685560
1685776
1685994
1686206
1686422
1686642
1686860
1687076
1687294
1687512
1687732
1687948
1688168
1688390
1688608
1688830
1689052
1689274
1689492
1689710
1689930
1690152
1690372
1690596
1690816
1690954
1691236
1691466
1691682
1691904
1692122
1692342
1692564
1692786
1693008
1693222
1693446
1693666
1693890
1694114
1694256
1694546
1694782
1695014
1695252
1695486
1695720
1695956
1696190
1696426
1696666
1696904
1697146
1697392
1697632
1697878
1698122
1698372
1698614
1698866
1699116
1699360
1699608
1699854
1700092
1700340
1700582
1700816
1701050
1701292
1701536
1701786
1702024
1702272
1702518
1702754
1703002
1703248
1703486
1703734
1703976
1704226
1704482
1704724
1704964
1705204
1705444
1705684
1705926
1706172
1706420
1706660
1706902
1707142
1707382
1707620
1707858
1708100
1708334
1708466
1708810
1709050
1709290
1709522
1709758
1709990
1710222
1710458
1710694
1710936
1711172
1711402
1711640
1711874
1712106
1712340
1712572
1712796
1713022
1713246
1713470
1713694
1713916
1714136
1714352
1714564
1714782
1714998
1715212
1715422
1715638
1715848
1716058
1716280
1716500
1716720
1716936
1717164
1717388
1717610
1717840
1718068
1718292
1718518
1718746
1718976
1719120
1719404
1719638
1719862
1720082
1720302
1720526
1720750
1720976
1721118
1721400
1721642
1721866
1722090
1722316
1722540
1722752
1722968
1723192
1723410
1723630
1723856
1724082
1724306
1724536
1724766
1725002
1725234
1725474
1725714
1725862
1726192
1726432
1726674
1726906
1727148
1727388
1727628
1727872
1728118
1728358
1728608
1728858
1729100
1729354
1729608
1729860
1730110
1730360
1730614
1730860
1731110
1731354
1731600
1731842
1732082
1732328
1732564
1732806
1733048
1733292
1733536
1733776
1734018
1734260
1734498
1734740
1734984
1735226
1735466
1735704
1735936
1736164
1736420
1736652
1736888
1737036
1737320
1737572
1737806
1738042
1738274
1738504
1738744
1738976
1739206
1739440
1739682
1739914
1740142
1740366
1740586
1740802
1741022
1741244
1741466
1741686
1741898
1742114
1742322
1742538
1742750
1742964
1743180
1743394
1743608
1743824
1744042
1744256
1744466
1744688
1744912
1745140
1745378
1745604
1745828
1745972
1746258
1746498
1746724
1746946
1747178
1747410
1747630
1747850
1748076
1748300
1748520
1748744
1748972
1749202
1749432
1749656
1749880
1750104
1750324
1750542
1750756
1750970
1751188
1751406
1751622
1751840
1752056
1752276
1752482
1752692
1752906
1753110
1753314
1753520
1753732
1753944
1754156
1754366
1754578
1754788
1755000
1755212
1755424
1755636
1755848
1756060
1756272
1756484
1756694
1756904
1757126
1757350
1757586
1757816
1758038
1758266
1758496
1758724
1758956
1759188
1759412
1759636
1759868
1760100
1760330
1760558
1760786
1761010
1761234
1761458
1761682
1761908
1762130
1762350
1762574
1762798
1763024
1763236
1763452
1763670
1763886
1764102
1764314
1764526
1764738
1764952
1765162
1765374
1765588
1765792
1766002
1766214
1766426
1766634
1766842
1767056
1767268
1767476
1767688
1767900
1768114
1768330
1768550
1768768
1768984
1769198
1769422
1769646
1769866
1770082
1770298
1770516
1770738
1770964
1771188
1771414
1771642
1771866
1772092
1772320
1772534
1772762
1772982
1773198
1773416
1773640
1773866
1774094
1774320
1774442
1774762
1774984
1775212
1775440
1775664
1775888
1776118
1776348
1776584
1776818
1777056
1777292
1777532
1777772
1778020
1778264
1778504
1778750
1778994
1779232
1779468
1779698
1779922
1780142
1780364
1780584
1780798
1781012
1781228
1781444
1781654
1781868
1782082
1782290
1782496
1782710
1782922
1783132
1783346
1783558
1783770
1783986
1784200
1784414
1784632
1784850
1785072
1785286
1785502
1785718
1785932
1786146
1786362
1786578
1786796
1787012
1787226
1787456
1787686
1787924
1788166
1788414
1788668
1788918
1789170
1789424
1789678
1789922
1790168
1790410
1790644
1790876
1791106
1791334
1791560
1791790
1792030
1792272
1792498
1792720
1792954
1793174
1793398
1793626
1793846
1794072
1794304
1794530
1794750
1794986
1795208
1795446
1795686
1795930
1796176
1796414
1796660
1796906
1797144
1797378
1797612
1797846
1798082
1798320
1798564
1798818
1799082
1799350
1799616
1799882
