peaks
284
612
930
1258
1588
1904
2230
2556
2878
3196
3520
3842
4158
4480
4804
5124
5454
5792
6118
6448
6786
7120
7442
7774
8104
8424
8752
9084
9406
9736
10066
10388
10712
11048
11372
11692
12022
12356
12670
12992
13316
13636
13956
14290
14618
14948
15290
15626
15954
16286
16618
16942
17274
17606
17928
18258
18598
18926
19254
19586
19918
20244
20578
20916
21248
21576
21914
22246
22568
22896
23216
23542
23878
24212
24540
24880
25212
25534
25874
26210
26530
26856
27194
27528
27858
28198
28538
28866
29202
29544
29876
30202
30538
30872
31192
31526
31864
32192
32522
32860
33190
33512
33846
34180
34502
34830
35170
35494
35830
36172
36502
36840
37184
37514
37846
38184
38520
38846
39180
39514
39836
40154
40478
40802
41134
41474
41810
42138
42478
42820
43150
43488
43828
44156
44486
44830
45170
45494
45826
46162
46496
46824
47156
47492
47814
48150
48488
48814
49142
49482
49818
50142
50466
50798
51118
51448
51784
52112
52434
52764
53100
53426
53754
54088
54428
54754
55092
55434
55762
56096
56436
56764
57094
57434
57770
58094
58430
58770
59100
59438
59772
60106
60436
60776
61114
61442
61780
62118
62440
62774
63112
63442
63776
64112
64444
64764
65086
65410
65728
66056
66390
66716
67044
67374
67702
68024
68356
68696
69022
69362
69702
70030
70368
70704
71030
71354
71684
72008
72330
72662
72988
73314
73652
73988
74310
74630
74954
75272
75588
75916
76246
76572
76908
77240
77558
77886
78218
78544
78872
79206
79534
79858
80194
80526
80848
81170
81500
81832
82148
82470
82804
83132
83454
83788
84118
84438
84764
85094
85416
85740
86070
86398
86720
87054
87392
87720
88052
88392
88728
89056
89392
89732
90060
90386
90718
91054
91372
91702
92032
92352
92676
93004
93330
93652
93990
94328
94654
94978
95310
95644
95964
96290
96620
96946
97276
97616
97952
98280
98618
98950
99274
99604
99940
100266
100594
100926
101256
101568
101892
102226
102550
102876
103210
103534
103856
104182
104506
104822
105146
105472
105792
106124
106458
106788
107114
107444
107766
108090
108424
108754
109082
109422
109752
110080
110412
110740
111054
111378
111712
112042
112360
112692
113028
113354
113680
114014
114340
114658
114990
115322
115646
115980
116318
116650
116988
117330
117660
117998
118336
118668
118996
119328
119660
119982
120308
120642
120966
121286
121616
121948
122266
122598
122930
123258
123588
123926
124252
124578
124910
125246
125564
125896
126232
126558
126892
127234
127566
127898
128244
128580
128902
129238
129578
129904
130236
130574
130900
131232
131568
131896
132220
132558
132888
133206
133526
133860
134190
134526
134862
135192
135530
135870
136198
136536
136876
137200
137536
137866
138192
138510
138850
139194
139528
139876
140222
140554
140888
141230
141568
141892
142220
142556
142886
143218
143552
143874
144200
144530
144850
145168
145490
145808
146116
146434
146756
147068
147378
147684
147988
148280
148574
148862
149136
149402
149668
149938
150210
150486
150784
151098
151404
151716
152038
152358
152660
152972
153284
153586
153894
154214
154536
154848
155176
155518
155852
156170
156492
156818
157134
157454
157776
158102
158408
158718
159028
159340
159648
159968
160296
160624
160940
161266
161600
161924
162256
162590
162918
163252
163594
163922
164252
164584
164904
165204
165490
165766
166036
166302
166564
166820
167074
167328
167578
167822
168064
168304
168544
168780
169016
169250
169482
169714
169942
170170
170402
170624
170846
171064
171282
171494
171708
171920
172134
172350
172566
172784
173002
173224
173444
173668
173898
174136
174392
174660
174934
175226
175532
175846
176156
176474
176796
177112
177432
177740
178040
178330
178612
178896
179170
179434
179696
179968
180256
180554
180854
181180
181508
181818
182136
182454
182750
183050
183360
183664
183982
184312
184622
184940
185262
185564
185866
186180
186498
186812
187146
187482
187784
188090
188388
188668
188954
189236
189508
189772
190040
190318
190620
190928
191240
191566
191892
192214
192554
192896
193230
193574
193916
194246
194588
194930
195256
195580
195912
196242
196562
196896
197230
197556
197898
198240
198568
198908
199244
199576
199916
200252
200568
200890
201218
201546
201888
202242
202582
202932
203284
203620
203958
204298
204632
204962
205298
205626
205948
206278
206612
206928
207256
207588
207906
208234
208568
208892
209206
209530
209852
210174
210502
210826
211144
211466
211790
212106
212452
212802
213144
213508
213870
214216
214564
214898
215238
215568
215896
216222
216542
216870
217190
217510
217840
218168
218486
218812
219138
219444
219754
220062
220358
220648
220948
221240
221524
221808
222088
222360
222628
222888
223142
223392
223638
223878
224118
224362
224604
224848
225094
225342
225590
225842
226092
226340
226588
226842
227108
227398
227694
228002
228324
228654
228978
229310
229646
229972
230290
230620
230956
231286
231636
231994
232342
232694
233044
233382
233726
234070
234396
234730
235072
235406
235744
236092
236420
236758
237092
237416
237744
238078
238398
238722
239050
239376
239678
239984
240302
240614
240944
241290
241624
241976
242332
242662
242998
243332
243644
243970
244302
244620
244956
245304
245626
245934
246242
246538
246816
247096
247366
247634
247908
248190
248504
248840
249162
249502
249844
250178
250514
250860
251196
251534
251882
252222
252564
252908
253246
253586
253930
254260
254598
254952
255298
255644
255986
256322
256662
257010
257352
257694
258042
258382
258736
259086
259426
259778
260130
260470
260812
261144
261468
261800
262138
262474
262828
263176
263520
263864
264200
264536
264874
265206
265536
265874
266204
266526
266856
267182
267494
267806
268118
268424
268746
269096
269436
269764
270108
270454
270792
271132
271474
271804
272142
272488
272822
273150
273480
273796
274118
274436
274754
275074
275412
275756
276090
276430
276776
277108
277456
277804
278154
278518
278872
279228
279600
279964
280328
280680
281018
281346
281674
281994
282322
282636
282956
283274
283586
283906
284220
284530
284846
285156
285458
285772
286084
286382
286688
286998
287298
287602
287910
288214
288508
288806
289110
289406
289708
290018
290318
290622
290928
291232
291528
291816
292104
292388
292680
292976
293272
293586
293924
294260
294584
294916
295244
295550
295868
296192
296520
296854
297200
297548
297896
298238
298580
298910
299246
299584
299914
300248
300580
300912
301252
301588
301926
302262
302590
302924
303248
303574
303904
304226
304554
304888
305214
305544
305882
306204
306534
306862
307182
307510
307836
308158
308486
308804
309122
309444
309758
310066
310384
310692
310984
311278
311572
311860
312152
312442
312716
312988
313256
313520
313780
314038
314298
314564
314842
315128
315442
315774
316092
316430
316772
317100
317432
317762
318084
318412
318748
319074
319390
319720
320056
320376
320702
321032
321352
321664
321990
322328
322660
322996
323338
323670
324006
324338
324668
324992
325314
325632
325948
326262
326576
326894
327216
327532
327854
328180
328498
328818
329146
329470
329794
330128
330460
330780
331112
331442
331766
332094
332420
332738
333062
333386
333706
334038
334364
334676
334996
335312
335618
335934
336248
336550
336860
337170
337476
337776
338078
338382
338680
338986
339304
339608
339916
340230
340536
340826
341110
341386
341662
341944
342256
342570
342900
343236
343558
343884
344216
344522
344822
345134
345462
345790
346138
346494
346832
347184
347534
347870
348216
348558
348894
349230
349568
349896
350226
350556
350880
351208
351534
351848
352166
352474
352774
353086
353408
353720
354036
354360
354678
355000
355330
355660
355982
356320
356664
356986
357316
357660
357986
358314
358652
358978
359298
359622
359948
360260
360594
360946
361272
361606
361946
362264
362582
362914
363242
363560
363892
364236
364558
364870
365162
365446
365720
365988
366250
366510
366766
367024
367290
367574
367896
368234
368554
368892
369250
369602
369948
370302
370660
371002
371350
371702
372042
372382
372726
373058
373390
373726
374052
374390
374734
375070
375416
375766
376106
376452
376800
377142
377488
377834
378176
378524
378860
379196
379536
379866
380194
380530
380860
381184
381512
381834
382154
382476
382794
383116
383446
383766
384082
384382
384674
384964
385262
385566
385880
386228
386582
386926
387280
387632
387976
388324
388674
389014
389364
389718
390066
390420
390770
391116
391468
391812
392162
392516
392866
393218
393566
393904
394250
394602
394948
395300
395652
396000
396346
396682
397020
397358
397696
398030
398364
398696
399030
399368
399698
400024
400352
400674
401000
401326
401650
401974
402294
402606
402922
403234
403538
403842
404148
404452
404762
405064
405360
405648
405930
406208
406482
406752
407014
407278
407548
407848
408152
408466
408804
409144
409480
409826
410166
410500
410842
411174
411508
411854
412192
412532
412874
413210
413556
413898
414232
414578
414924
415266
415612
415952
416298
416644
416980
417324
417662
418000
418344
418680
419024
419358
419686
420020
420350
420678
421008
421334
421664
421992
422314
422638
422958
423286
423612
423942
424286
424614
424944
425274
425596
425924
426254
426578
426906
427232
427556
427882
428204
428524
428848
429164
429482
429800
430106
430408
430704
430988
431268
431548
431828
432108
432396
432688
432988
433280
433562
433842
434116
434382
434652
434914
435174
435432
435686
435944
436204
436468
436738
437012
437302
437612
437934
438254
438578
438914
439246
439568
439890
440218
440550
440874
441204
441546
441882
442204
442538
442878
443216
443538
443876
444216
444548
444868
445204
445546
445880
446214
446556
446888
447212
447552
447892
448222
448562
448902
449228
449566
449906
450230
450558
450884
451202
451522
451868
452222
452552
452902
453256
453598
453934
454282
454622
454952
455294
455630
455948
456280
456616
456938
457272
457606
457926
458248
458580
458902
459212
459526
459852
460176
460514
460856
461196
461532
461882
462228
462558
462894
463228
463544
463866
464186
464488
464802
465118
465426
465722
466030
466348
466662
466990
467334
467670
468006
468350
468690
469020
469368
469716
470054
470396
470744
471078
471410
471754
472094
472424
472758
473108
473458
473796
474144
474496
474834
475174
475518
475846
476172
476506
476838
477156
477482
477818
478150
478476
478814
479146
479466
479802
480140
480462
480786
481120
481448
481770
482102
482432
482756
483094
483432
483760
484098
484434
484756
485092
485428
485752
486086
486432
486764
487098
487440
487770
488108
488450
488782
489116
489450
489778
490094
490424
490756
491082
491392
491714
492040
492360
492704
493052
493392
493742
494090
494430
494762
495106
495452
495786
496130
496478
496816
497160
497506
497840
498182
498524
498858
499200
499546
499886
500228
500572
500908
501250
501588
501920
502262
502596
502930
503268
503600
503934
504264
504600
504940
505268
505608
505944
506274
506594
506926
507256
507572
507886
508202
508516
508846
509178
509496
509828
510164
510478
510804
511132
511438
511754
512070
512368
512672
512968
513248
513536
513838
514168
514486
514842
515208
515546
515904
516262
516594
516936
517282
517616
517966
518320
518668
519010
519366
519732
520080
520438
520790
521134
521474
521816
522158
522484
522812
523146
523478
523802
524134
524472
524806
525140
525484
525818
526148
526486
526820
527144
527472
527810
528144
528478
528828
529160
529496
529838
530174
530504
530846
531176
531492
531818
532128
532422
532716
533012
533322
533638
533984
534338
534678
535040
535398
535738
536090
536436
536768
537112
537464
537806
538154
538510
538858
539194
539540
539884
540216
540566
540920
541258
541598
541946
542278
542608
542944
543268
543582
543906
544224
544542
544862
545204
545546
545882
546218
546554
546890
547212
547540
547870
548188
548516
548852
549176
549508
549850
550186
550520
550866
551206
551528
551866
552208
552542
552878
553218
553546
553872
554206
554536
554858
555190
555522
555840
556170
556504
556830
557166
557512
557846
558184
558530
558868
559206
559552
559890
560224
560570
560912
561244
561582
561914
562234
562564
562902
563228
563558
563896
564224
564560
564902
565234
565560
565900
566230
566548
566870
567196
567510
567844
568176
568498
568836
569180
569506
569844
570180
570500
570834
571170
571496
571834
572178
572512
572848
573192
573526
573832
574144
574466
574786
575122
575480
575828
576180
576536
576874
577222
577574
577910
578250
578592
578928
579258
579596
579922
580238
580548
580876
581224
581568
581938
582312
582668
583022
583378
583716
584048
584392
584748
585084
585432
585786
586128
586474
586826
587174
587520
587876
588222
588552
588894
589244
589580
589916
590260
590608
590944
591296
591646
591984
592330
592684
593030
593360
593690
594020
594336
594650
594972
595300
595624
595960
596306
596648
597012
597370
597714
598066
598418
598750
599096
599438
599764
600102
600442
600766
601100
601434
601746
602068
602398
602720
603050
603392
603724
604078
604440
604782
605136
605496
605836
606184
606536
606876
607220
607576
607920
608264
608616
608960
609302
609654
610004
610338
610684
611034
611376
611724
612078
612420
612758
613104
613444
613780
614126
614472
614806
615150
615502
615834
616168
616508
616844
617168
617504
617842
618162
618494
618830
619148
619482
619820
620148
620480
620826
621158
621496
621850
622202
622546
622904
623254
623586
623934
624276
624604
624944
625284
625608
625950
626296
626630
626968
627314
627650
627982
628330
628674
629004
629348
629690
630016
630356
630702
631034
631378
631726
632058
632394
632730
633056
633388
633724
634054
634380
634718
635052
635368
635694
636038
636378
636720
637068
637404
637740
638082
638416
638732
639056
639388
639712
640030
640340
640634
640918
641202
641482
641754
642018
642282
642538
642790
643034
643272
643506
643738
643968
644200
644434
644668
644904
645138
645370
645602
645834
646066
646302
646542
646796
647058
647338
647636
647938
648242
648558
648874
649190
649518
649848
650164
650486
650822
651154
651506
651862
652204
652540
652882
653222
653576
653922
654260
654608
654952
655286
655620
655940
656238
656536
656832
657112
657394
657692
658014
658348
658676
659026
659378
659716
660072
660424
660766
661116
661474
661818
662170
662522
662862
663212
663568
663916
664270
664626
664966
665304
665644
665974
666314
666672
667026
667390
667748
668094
668450
668804
669140
669486
669836
670184
670524
670872
671218
671562
671914
672254
672586
672914
673236
673550
673876
674202
674522
674856
675200
675546
675902
676244
676572
676908
677248
677586
677932
678274
678602
678942
679294
679628
679966
680290
680606
680918
681240
681562
681904
682256
682600
682956
683310
683654
684006
684358
684694
685042
685392
685732
686080
686436
686780
687130
687478
687820
688166
688510
688848
689194
689540
689886
690238
690582
690932
691278
691616
691962
692304
692636
692968
693302
693626
693964
694310
694642
694984
695332
695664
696008
696352
696686
697024
697348
697646
697946
698238
698514
698788
699064
699350
699656
699958
700260
700572
700880
701180
701490
701804
702116
702424
702738
703054
703360
703672
703988
704292
704596
704888
705166
705442
705710
705976
706238
706502
706770
707040
707302
707566
707830
708094
708356
708608
708856
709096
709338
709570
709802
710030
710260
710486
710712
710940
711172
711414
711672
711944
712224
712530
712840
713144
713462
713788
714102
714412
714732
715048
715358
715670
715984
716288
716598
716916
717226
717536
717844
718136
718412
718682
718962
719252
719556
719868
720200
720534
720864
721198
721522
721832
722154
722488
722816
723126
723450
723784
724106
724440
724772
725096
725432
725772
726102
726446
726794
727132
727478
727814
728154
728494
728824
729160
729492
729818
730158
730504
730840
731182
731518
731846
732180
732516
732850
733194
733532
733862
734202
734550
734884
735224
735566
735888
736214
736542
736862
737200
737546
737864
738186
738494
738792
739088
739370
739646
739922
740210
740508
740806
741106
741418
741730
742032
742344
742652
742958
743270
743582
743888
744202
744514
744818
745132
745448
745752
746064
746382
746692
747014
747336
747658
747992
748334
748666
749002
749338
749660
749986
750310
750628
750964
751316
751652
751988
752316
752630
752952
753284
753608
753946
754290
754616
754950
755284
755612
755940
756276
756610
756942
757282
757610
757950
758290
758616
758954
759294
759628
759974
760322
760652
760998
761344
761680
762014
762352
762680
763022
763370
763696
764022
764354
764676
765016
765356
765686
766032
766378
766714
767058
767394
767714
768028
768346
768660
768986
769326
769662
769994
770348
770700
771038
771378
771714
772022
772334
772626
772908
773196
773500
773820
774138
774484
774836
775176
775524
775866
776194
776536
776874
777202
777542
777882
778198
778518
778842
779156
779472
779798
780130
780482
780830
781164
781508
781854
782192
782536
782876
783200
783532
783868
784198
784540
784884
785218
785556
785896
786228
786568
786910
787238
787578
787922
788262
788610
788970
789318
789674
790032
790374
790728
791080
791420
791772
792126
792466
792812
793164
793510
793858
794216
794568
794910
795258
795602
795932
796264
796604
796938
797272
797614
797952
798278
798618
798958
799284
799624
799968
800300
800636
800980
801312
801644
801984
802318
802646
802986
803326
803656
803998
804342
804676
805022
805370
805704
806048
806394
806728
807078
807432
807778
808134
808488
808826
809174
809520
809854
810200
810548
810882
811224
811570
811906
812250
812598
812936
813284
813638
813978
814324
814674
815010
815356
815704
816038
816372
816708
817034
817366
817696
818028
818366
818692
819026
819370
819700
820044
820392
820724
821064
821410
821742
822084
822428
822766
823096
823434
823766
824110
824458
824790
825134
825482
825814
826152
826494
826828
827168
827512
827850
828186
828534
828876
829214
829562
829900
830232
830568
830898
831234
831570
831894
832230
832568
832894
833240
833586
833918
834268
834618
834952
835294
835640
835968
836302
836642
836972
837292
837628
837968
838304
838654
839006
839346
839694
840046
840384
840734
841086
841422
841766
842114
842450
842796
843148
843490
843834
844182
844516
844854
845192
845526
845870
846220
846556
846902
847258
847608
847956
848310
848654
848996
849346
849678
850008
850348
850684
851012
851354
851698
852024
852360
852702
853032
853370
853710
854038
854372
854710
855036
855356
855678
855984
856290
856602
856906
857212
857522
857810
858090
858376
858666
858958
859242
859532
859830
860120
860416
860726
861042
861354
861680
862010
862348
862688
863018
863354
863678
863996
864318
864660
865000
865336
865690
866028
866358
866698
867042
867374
867712
868056
868388
868728
869076
869412
869758
870104
870440
870790
871142
871476
871824
872174
872516
872848
873190
873532
873860
874194
874534
874860
875200
875542
875876
876220
876560
876902
877252
877588
877932
878278
878614
878948
879290
879634
879968
880314
880660
880994
881344
881690
882024
882368
882714
883052
883390
883740
884078
884408
884752
885092
885422
885768
886118
886452
886800
887148
887482
887820
888164
888498
888832
889174
889512
889844
890186
890532
890862
891198
891538
891866
892208
892548
892882
893226
893558
893886
894224
894566
894892
895230
895570
895902
896246
896594
896928
897272
897616
897946
898284
898626
898956
899300
899640
899968
900292
900630
900976
901312
901652
901988
902292
902598
902886
903166
903446
903732
904028
904316
904608
904904
905188
905452
905726
905988
906246
906498
906744
906996
907236
907474
907710
907944
908180
908414
908648
908882
909118
909354
909594
909840
910086
910332
910588
910844
911108
911376
911648
911914
912176
912442
912708
912970
913226
913486
913742
913996
914244
914488
914728
914966
915200
915434
915668
915906
916144
916384
916626
916866
917108
917344
917580
917820
918064
918310
918558
918810
919062
919318
919568
919818
920068
920316
920562
920806
921052
921302
921548
921800
922054
922304
922556
922802
923050
923294
923534
923772
924008
924246
924482
924718
924956
925194
925432
925666
925898
926132
926368
926612
926852
927100
927350
927600
927846
928092
928340
928584
928834
929086
929338
929600
929868
930142
930408
930676
930946
931206
931462
931716
931966
932212
932454
932692
932930
933166
933402
933642
933894
934160
934438
934710
934990
935262
935524
935780
936038
936290
936544
936800
937054
937308
937568
937834
938096
938362
938638
938920
939192
939472
939752
940034
940308
940590
940874
941154
941428
941706
941986
942260
942540
942826
943114
943406
943698
943980
944256
944524
944780
945032
945278
945516
945756
946000
946254
946516
946780
947048
947312
947564
947816
948064
948308
948548
948786
949020
949248
949474
949692
949914
950134
950364
950608
950850
951112
951388
951674
951948
952222
952490
952766
953036
953294
953558
953816
954068
954332
954598
954864
955146
955442
955730
956024
956324
956612
956914
957212
957506
957802
958082
958368
958660
958940
959224
959496
959778
960066
960356
960652
960938
961226
961518
961800
962086
962376
962646
962930
963226
963512
963798
964092
964380
964676
964960
965242
965524
965796
966076
966338
966598
966854
967106
967360
967616
967868
968126
968388
968644
968910
969174
969436
969700
969964
970230
970498
970766
971034
971294
971552
971814
972072
972330
972590
972854
973114
973378
973644
973906
974176
974440
974700
974964
975224
975480
975748
976004
976262
976524
976784
977048
977312
977572
977826
978074
978322
978572
978818
979072
979332
979594
979852
980118
980394
980670
980936
981210
981484
981752
982022
982302
982578
982854
983144
983438
983718
983998
984276
984538
984806
985068
985322
985574
985824
986074
986320
986560
986800
987036
987268
987494
987724
987958
988196
988436
988684
988942
989196
989454
989722
989986
990262
990522
990788
991052
991312
991582
991858
992126
992394
992674
992948
993228
993520
993806
994094
994390
994670
994956
995234
995500
995764
996018
996268
996514
996764
997024
997294
997552
997824
998096
998362
998634
998902
999168
999444
999718
999982
1000256
1000534
1000804
1001078
1001354
1001622
1001894
1002162
1002422
1002690
1002958
1003204
1003456
1003704
1003936
1004174
1004412
1004660
1004922
1005176
1005446
1005722
1005988
1006266
1006546
1006812
1007074
1007340
1007602
1007866
1008140
1008420
1008692
1008978
1009264
1009532
1009814
1010084
1010346
1010610
1010866
1011124
1011382
1011638
1011900
1012160
1012418
1012666
1012916
1013162
1013400
1013646
1013894
1014144
1014402
1014662
1014914
1015174
1015420
1015678
1015938
1016196
1016460
1016730
1016994
1017256
1017524
1017788
1018060
1018340
1018612
1018888
1019164
1019428
1019694
1019956
1020214
1020468
1020722
1020972
1021226
1021486
1021738
1021994
1022248
1022498
1022740
1022988
1023242
1023504
1023760
1024020
1024288
1024556
1024818
1025092
1025370
1025640
1025918
1026194
1026462
1026736
1027012
1027284
1027554
1027828
1028100
1028364
1028642
1028916
1029182
1029456
1029728
1030000
1030280
1030564
1030830
1031100
1031364
1031620
1031880
1032146
1032410
1032670
1032942
1033220
1033481
1033738
1033996
1034246
1034498
1034744
1034990
1035244
1035494
1035752
1036010
1036264
1036532
1036806
1037070
1037340
1037610
1037870
1038136
1038400
1038658
1038920
1039184
1039440
1039700
1039968
1040240
1040522
1040794
1041070
1041324
1041580
1041830
1042082
1042332
1042574
1042810
1043052
1043290
1043524
1043766
1044030
1044312
1044584
1044884
1045190
1045480
1045776
1046072
1046348
1046626
1046896
1047156
1047420
1047686
1047946
1048220
1048506
1048784
1049078
1049370
1049648
1049934
1050216
1050486
1050758
1051030
1051292
1051562
1051838
1052100
1052372
1052650
1052916
1053180
1053444
1053700
1053956
1054204
1054452
1054696
1054940
1055184
1055430
1055676
1055926
1056174
1056416
1056660
1056902
1057144
1057380
1057614
1057846
1058072
1058294
1058520
1058742
1058970
1059200
1059434
1059676
1059932
1060180
1060432
1060692
1060956
1061212
1061470
1061732
1061988
1062238
1062496
1062746
1062998
1063252
1063506
1063770
1064026
1064284
1064538
1064790
1065036
1065288
1065536
1065782
1066028
1066276
1066518
1066764
1067010
1067254
1067494
1067738
1067986
1068236
1068486
1068742
1069006
1069262
1069516
1069758
1070010
1070264
1070524
1070780
1071054
1071336
1071618
1071904
1072190
1072464
1072738
1073004
1073268
1073528
1073792
1074060
1074322
1074580
1074848
1075116
1075386
1075654
1075918
1076174
1076426
1076676
1076922
1077176
1077438
1077700
1077964
1078236
1078516
1078794
1079072
1079350
1079628
1079900
1080178
1080458
1080730
1081008
1081290
1081568
1081844
1082126
1082408
1082678
1082956
1083244
1083522
1083810
1084104
1084376
1084660
1084946
1085224
1085506
1085790
1086066
1086340
1086616
1086890
1087162
1087438
1087712
1088000
1088288
1088578
1088870
1089152
1089432
1089700
1089970
1090236
1090496
1090762
1091028
1091284
1091542
1091802
1092064
1092314
1092572
1092834
1093098
1093358
1093632
1093916
1094202
1094478
1094758
1095052
1095348
1095652
1095954
1096240
1096532
1096826
1097102
1097382
1097652
1097914
1098182
1098448
1098708
1098972
1099228
1099494
1099766
1100040
1100302
1100566
1100842
1101120
1101388
1101670
1101962
1102252
1102538
1102838
1103124
1103406
1103692
1103974
1104244
1104516
1104796
1105068
1105332
1105602
1105874
1106134
1106392
1106640
1106896
1107156
1107414
1107672
1107936
1108200
1108462
1108720
1108988
1109254
1109524
1109796
1110058
1110330
1110598
1110858
1111114
1111378
1111648
1111908
1112180
1112456
1112734
1113010
1113304
1113602
1113894
1114186
1114464
1114728
1114996
1115270
1115556
1115852
1116142
1116418
1116702
1116992
1117288
1117606
1117930
1118250
1118572
1118906
1119236
1119552
1119878
1120216
1120554
1120874
1121204
1121528
1121852
1122162
1122468
1122776
1123080
1123372
1123664
1123942
1124214
1124498
1124786
1125084
1125386
1125688
1126008
1126332
1126652
1126960
1127284
1127612
1127926
1128252
1128586
1128910
1129236
1129576
1129910
1130228
1130544
1130838
1131140
1131436
1131724
1132008
1132294
1132570
1132848
1133120
1133394
1133666
1133932
1134206
1134482
1134754
1135036
1135336
1135630
1135924
1136230
1136530
1136824
1137130
1137444
1137752
1138062
1138386
1138708
1139018
1139348
1139686
1140008
1140334
1140670
1140976
1141292
1141616
1141936
1142248
1142576
1142906
1143226
1143558
1143886
1144210
1144542
1144884
1145222
1145566
1145912
1146244
1146578
1146916
1147244
1147572
1147906
1148234
1148534
1148844
1149152
1149436
1149732
1150028
1150330
1150642
1150952
1151252
1151550
1151864
1152186
1152504
1152832
1153168
1153490
1153818
1154152
1154472
1154796
1155132
1155468
1155806
1156152
1156482
1156818
1157156
1157484
1157824
1158164
1158478
1158800
1159124
1159444
1159762
1160092
1160422
1160738
1161060
1161386
1161702
1162022
1162340
1162658
1162968
1163290
1163606
1163912
1164222
1164536
1164820
1165100
1165386
1165690
1166010
1166322
1166644
1166978
1167312
1167634
1167968
1168300
1168620
1168950
1169290
1169618
1169950
1170290
1170622
1170950
1171294
1171634
1171968
1172312
1172648
1172968
1173300
1173632
1173954
1174294
1174634
1174964
1175298
1175634
1175964
1176306
1176642
1176966
1177302
1177644
1177972
1178312
1178650
1178974
1179308
1179638
1179950
1180270
1180596
1180920
1181244
1181580
1181910
1182230
1182560
1182894
1183218
1183554
1183890
1184216
1184554
1184894
1185224
1185566
1185904
1186236
1186566
1186860
1187144
1187424
1187720
1188034
1188360
1188678
1189006
1189344
1189676
1190000
1190332
1190662
1190980
1191310
1191648
1191978
1192304
1192640
1192976
1193304
1193648
1193994
1194330
1194662
1195002
1195336
1195662
1196002
1196338
1196666
1197010
1197344
1197666
1197998
1198334
1198672
1199028
1199384
1199730
1200076
1200416
1200742
1201080
1201420
1201744
1202080
1202414
1202736
1203074
1203410
1203734
1204070
1204406
1204740
1205078
1205410
1205732
1206066
1206392
1206718
1207054
1207380
1207708
1208044
1208372
1208696
1209026
1209342
1209642
1209940
1210226
1210500
1210772
1211054
1211354
1211668
1211970
1212294
1212624
1212944
1213268
1213598
1213928
1214254
1214586
1214910
1215226
1215552
1215878
1216188
1216508
1216836
1217154
1217472
1217804
1218132
1218452
1218784
1219120
1219448
1219786
1220126
1220456
1220792
1221134
1221462
1221800
1222142
1222472
1222806
1223142
1223466
1223790
1224122
1224454
1224782
1225118
1225450
1225776
1226114
1226452
1226780
1227122
1227464
1227794
1228134
1228476
1228806
1229150
1229488
1229814
1230150
1230482
1230786
1231094
1231400
1231684
1231970
1232256
1232560
1232884
1233204
1233518
1233844
1234172
1234486
1234812
1235140
1235460
1235786
1236114
1236436
1236752
1237080
1237406
1237724
1238054
1238384
1238704
1239032
1239360
1239684
1240018
1240346
1240668
1241002
1241336
1241658
1241994
1242332
1242662
1243000
1243332
1243634
1243948
1244262
1244554
1244858
1245168
1245480
1245784
1246112
1246454
1246782
1247122
1247462
1247792
1248120
1248454
1248780
1249098
1249432
1249758
1250080
1250414
1250750
1251080
1251420
1251762
1252090
1252424
1252762
1253090
1253432
1253774
1254106
1254436
1254752
1255048
1255346
1255638
1255916
1256196
1256480
1256780
1257094
1257402
1257714
1258036
1258360
1258676
1259000
1259332
1259660
1259980
1260318
1260658
1260982
1261312
1261650
1261980
1262304
1262636
1262964
1263284
1263618
1263950
1264272
1264604
1264934
1265252
1265580
1265914
1266238
1266558
1266888
1267220
1267544
1267880
1268212
1268538
1268876
1269212
1269536
1269874
1270212
1270540
1270876
1271212
1271532
1271864
1272198
1272526
1272850
1273180
1273508
1273812
1274114
1274408
1274688
1274960
1275248
1275550
1275866
1276176
1276478
1276792
1277104
1277404
1277716
1278034
1278346
1278666
1278990
1279306
1279628
1279954
1280276
1280594
1280930
1281264
1281590
1281928
1282264
1282592
1282928
1283266
1283594
1283940
1284286
1284620
1284960
1285300
1285630
1285966
1286298
1286626
1286960
1287296
1287614
1287934
1288260
1288582
1288894
1289218
1289544
1289860
1290188
1290520
1290836
1291164
1291502
1291834
1292156
1292490
1292822
1293146
1293482
1293816
1294138
1294478
1294824
1295154
1295500
1295846
1296178
1296520
1296864
1297192
1297532
1297866
1298160
1298440
1298726
1299026
1299330
1299632
1299938
1300240
1300524
1300812
1301116
1301418
1301738
1302068
1302404
1302740
1303072
1303406
1303746
1304084
1304406
1304734
1305070
1305412
1305752
1306088
1306424
1306754
1307080
1307422
1307764
1308106
1308442
1308782
1309110
1309436
1309768
1310100
1310418
1310744
1311070
1311384
1311694
1312010
1312336
1312644
1312960
1313286
1313616
1313932
1314260
1314598
1314922
1315248
1315582
1315912
1316246
1316592
1316930
1317264
1317604
1317940
1318268
1318602
1318920
1319228
1319540
1319850
1320150
1320454
1320752
1321068
1321382
1321682
1321990
1322292
1322574
1322860
1323144
1323424
1323702
1323978
1324252
1324530
1324808
1325086
1325362
1325628
1325898
1326170
1326442
1326710
1326980
1327262
1327546
1327840
1328138
1328436
1328736
1329030
1329328
1329622
1329924
1330228
1330516
1330808
1331102
1331400
1331688
1331984
1332288
1332588
1332868
1333146
1333428
1333724
1334034
1334336
1334642
1334960
1335286
1335610
1335920
1336244
1336580
1336916
1337246
1337586
1337918
1338242
1338578
1338912
1339232
1339562
1339902
1340240
1340576
1340916
1341248
1341570
1341884
1342174
1342470
1342770
1343066
1343374
1343680
1343966
1344246
1344530
1344822
1345124
1345438
1345748
1346072
1346404
1346728
1347050
1347382
1347710
1348032
1348368
1348704
1349032
1349372
1349706
1350026
1350352
1350668
1350976
1351296
1351616
1351920
1352226
1352526
1352810
1353084
1353356
1353632
1353924
1354238
1354548
1354866
1355202
1355540
1355858
1356186
1356524
1356848
1357172
1357508
1357836
1358160
1358494
1358824
1359144
1359482
1359814
1360134
1360468
1360802
1361124
1361456
1361790
1362108
1362432
1362758
1363072
1363396
1363728
1364056
1364388
1364724
1365052
1365376
1365714
1366050
1366378
1366722
1367066
1367400
1367740
1368084
1368414
1368756
1369098
1369422
1369762
1370104
1370430
1370766
1371098
1371406
1371724
1372046
1372350
1372668
1372998
1373328
1373660
1374002
1374340
1374672
1375012
1375340
1375656
1375984
1376316
1376636
1376964
1377306
1377640
1377968
1378302
1378628
1378928
1379236
1379550
1379866
1380180
1380514
1380846
1381172
1381506
1381844
1382168
1382498
1382826
1383140
1383464
1383788
1384100
1384414
1384722
1385006
1385286
1385560
1385848
1386146
1386450
1386744
1387056
1387376
1387686
1388002
1388326
1388654
1388970
1389298
1389622
1389916
1390220
1390516
1390810
1391094
1391392
1391696
1392002
1392298
1392602
1392908
1393212
1393514
1393828
1394146
1394458
1394788
1395120
1395442
1395776
1396110
1396436
1396766
1397104
1397428
1397758
1398094
1398422
1398744
1399078
1399406
1399728
1400066
1400400
1400726
1401062
1401392
1401696
1402010
1402328
1402632
1402938
1403242
1403528
1403808
1404098
1404394
1404722
1405060
1405378
1405704
1406040
1406364
1406700
1407058
1407416
1407762
1408116
1408460
1408790
1409130
1409468
1409786
1410120
1410456
1410784
1411126
1411460
1411782
1412098
1412380
1412672
1412966
1413248
1413520
1413794
1414066
1414340
1414608
1414878
1415148
1415416
1415678
1415936
1416194
1416454
1416706
1416958
1417218
1417474
1417734
1418007
1418268
1418544
1418822
1419104
1419402
1419708
1420016
1420314
1420624
1420938
1421258
1421572
1421900
1422236
1422564
1422880
1423206
1423536
1423850
1424170
1424500
1424830
1425146
1425480
1425810
1426126
1426450
1426778
1427094
1427414
1427748
1428074
1428386
1428716
1429044
1429350
1429674
1430000
1430296
1430614
1430918
1431204
1431500
1431786
1432060
1432332
1432620
1432928
1433238
1433546
1433870
1434196
1434512
1434848
1435184
1435502
1435836
1436178
1436490
1436814
1437152
1437482
1437812
1438148
1438480
1438800
1439136
1439478
1439796
1440130
1440472
1440798
1441142
1441494
1441834
1442182
1442534
1442866
1443216
1443560
1443886
1444226
1444566
1444898
1445246
1445584
1445894
1446212
1446522
1446826
1447144
1447462
1447772
1448096
1448430
1448750
1449082
1449422
1449754
1450104
1450460
1450798
1451148
1451500
1451844
1452188
1452538
1452876
1453224
1453570
1453908
1454254
1454598
1454932
1455278
1455626
1455964
1456312
1456660
1456994
1457340
1457688
1458018
1458362
1458698
1459026
1459372
1459714
1460048
1460394
1460736
1461072
1461420
1461762
1462098
1462446
1462782
1463118
1463460
1463790
1464108
1464440
1464774
1465104
1465448
1465788
1466124
1466472
1466808
1467144
1467488
1467818
1468150
1468486
1468808
1469138
1469476
1469798
1470136
1470474
1470798
1471138
1471478
1471808
1472146
1472486
1472806
1473142
1473474
1473798
1474134
1474468
1474798
1475140
1475474
1475802
1476136
1476458
1476764
1477088
1477408
1477720
1478050
1478378
1478704
1479048
1479382
1479712
1480048
1480382
1480700
1481036
1481374
1481704
1482052
1482398
1482726
1483068
1483408
1483734
1484078
1484410
1484740
1485080
1485400
1485718
1486034
1486322
1486618
1486912
1487220
1487532
1487838
1488164
1488492
1488810
1489144
1489480
1489808
1490150
1490490
1490818
1491156
1491476
1491764
1492044
1492324
1492608
1492900
1493174
1493456
1493746
1494040
1494330
1494630
1494950
1495272
1495584
1495914
1496244
1496574
1496892
1497230
1497566
1497892
1498226
1498570
1498906
1499232
1499564
1499904
1500228
1500564
1500904
1501236
1501570
1501908
1502240
1502566
1502902
1503224
1503524
1503834
1504146
1504442
1504762
1505082
1505386
1505710
1506038
1506358
1506676
1507004
1507322
1507644
1507976
1508304
1508628
1508958
1509280
1509594
1509924
1510254
1510580
1510924
1511262
1511588
1511930
1512270
1512590
1512924
1513260
1513580
1513922
1514266
1514596
1514940
1515280
1515612
1515958
1516300
1516634
1516980
1517316
1517652
1517994
1518320
1518648
1518986
1519316
1519644
1519990
1520320
1520656
1521000
1521326
1521658
1521994
1522312
1522644
1522978
1523296
1523626
1523954
1524270
1524598
1524922
1525238
1525564
1525888
1526204
1526534
1526848
1527156
1527468
1527762
1528068
1528384
1528684
1528996
1529316
1529638
1529948
1530276
1530598
1530904
1531196
1531478
1531752
1532018
1532278
1532540
1532790
1533042
1533286
1533532
1533784
1534026
1534270
1534516
1534756
1534994
1535228
1535460
1535692
1535924
1536154
1536384
1536614
1536844
1537078
1537320
1537582
1537866
1538154
1538430
1538724
1539026
1539330
1539622
1539922
1540232
1540544
1540846
1541158
1541476
1541802
1542104
1542414
1542730
1543048
1543352
1543658
1543974
1544292
1544594
1544868
1545146
1545422
1545698
1545968
1546248
1546530
1546806
1547074
1547358
1547656
1547960
1548280
1548606
1548928
1549244
1549578
1549908
1550236
1550556
1550890
1551228
1551554
1551878
1552210
1552544
1552866
1553212
1553568
1553914
1554264
1554616
1554952
1555292
1555640
1555972
1556306
1556644
1556974
1557298
1557636
1557976
1558314
1558662
1559000
1559326
1559662
1559992
1560308
1560642
1560978
1561310
1561650
1561982
1562300
1562630
1562958
1563280
1563616
1563948
1564276
1564610
1564932
1565246
1565572
1565900
1566208
1566530
1566856
1567166
1567482
1567802
1568114
1568420
1568734
1569046
1569352
1569670
1569986
1570266
1570544
1570816
1571088
1571364
1571622
1571882
1572140
1572400
1572658
1572924
1573186
1573444
1573696
1573950
1574204
1574462
1574720
1574988
1575270
1575560
1575858
1576148
1576444
1576748
1577054
1577350
1577632
1577914
1578202
1578490
1578768
1579048
1579336
1579636
1579934
1580224
1580526
1580822
1581108
1581382
1581662
1581944
1582242
1582556
1582872
1583182
1583508
1583842
1584172
1584500
1584834
1585174
1585504
1585846
1586186
1586518
1586846
1587182
1587530
1587870
1588204
1588546
1588880
1589204
1589540
1589876
1590202
1590548
1590886
1591210
1591546
1591880
1592182
1592494
1592800
1593086
1593378
1593690
1594014
1594336
1594648
1594978
1595304
1595610
1595926
1596250
1596562
1596868
1597184
1597508
1597816
1598128
1598454
1598774
1599084
1599410
1599744
1600062
1600384
1600716
1601052
1601372
1601704
1602040
1602368
1602692
1603024
1603360
1603678
1604002
1604342
1604682
1605014
1605356
1605706
1606038
1606386
1606738
1607074
1607402
1607726
1608034
1608350
1608674
1608996
1609308
1609620
1609928
1610216
1610498
1610784
1611074
1611382
1611700
1612016
1612320
1612640
1612974
1613298
1613616
1613948
1614286
1614612
1614954
1615298
1615628
1615974
1616324
1616662
1617020
1617380
1617724
1618080
1618436
1618780
1619128
1619472
1619806
1620142
1620486
1620828
1621166
1621520
1621872
1622206
1622552
1622890
1623206
1623534
1623862
1624172
1624496
1624826
1625144
1625472
1625808
1626138
1626462
1626806
1627158
1627498
1627844
1628184
1628514
1628852
1629198
1629542
1629880
1630230
1630576
1630900
1631232
1631568
1631900
1632238
1632588
1632936
1633278
1633624
1633958
1634290
1634628
1634958
1635266
1635558
1635840
1636118
1636386
1636652
1636904
1637150
1637396
1637632
1637858
1638086
1638308
1638530
1638748
1638966
1639184
1639402
1639622
1639836
1640058
1640284
1640512
1640748
1640996
1641244
1641488
1641752
1642024
1642304
1642576
1642856
1643148
1643458
1643766
1644050
1644342
1644638
1644930
1645206
1645486
1645772
1646056
1646330
1646604
1646880
1647150
1647418
1647690
1647968
1648242
1648514
1648786
1649048
1649306
1649568
1649832
1650104
1650390
1650684
1650968
1651248
1651536
1651830
1652116
1652392
1652670
1652946
1653210
1653476
1653752
1654032
1654310
1654590
1654866
1655138
1655412
1655682
1655950
1656222
1656490
1656758
1657026
1657296
1657568
1657840
1658104
1658366
1658628
1658882
1659140
1659398
1659658
1659914
1660170
1660422
1660670
1660920
1661172
1661414
1661662
1661908
1662152
1662390
1662630
1662874
1663114
1663352
1663580
1663808
1664032
1664254
1664470
1664684
1664900
1665120
1665346
1665582
1665824
1666084
1666360
1666634
1666918
1667210
1667502
1667782
1668058
1668336
1668598
1668858
1669118
1669382
1669638
1669892
1670146
1670404
1670666
1670928
1671182
1671428
1671678
1671932
1672188
1672448
1672714
1672988
1673254
1673532
1673808
1674080
1674356
1674630
1674900
1675172
1675442
1675708
1675976
1676244
1676500
1676752
1677000
1677242
1677480
1677714
1677944
1678172
1678394
1678614
1678834
1679062
1679292
1679528
1679766
1680006
1680246
1680478
1680710
1680942
1681170
1681396
1681618
1681840
1682062
1682286
1682514
1682750
1682986
1683222
1683458
1683700
1683944
1684190
1684436
1684678
1684922
1685162
1685396
1685626
1685858
1686092
1686332
1686574
1686828
1687084
1687334
1687594
1687854
1688108
1688356
1688614
1688882
1689140
1689412
1689688
1689954
1690230
1690504
1690770
1691040
1691310
1691574
1691832
1692088
1692342
1692604
1692870
1693136
1693404
1693670
1693928
1694194
1694464
1694726
1694994
1695254
1695514
1695772
1696024
1696272
1696528
1696782
1697046
1697316
1697580
1697850
1698116
1698374
1698630
1698878
1699122
1699372
1699626
1699882
1700148
1700424
1700688
1700960
1701234
1701500
1701768
1702038
1702296
1702556
1702812
1703064
1703332
1703598
1703872
1704150
1704416
1704678
1704942
1705208
1705468
1705732
1705998
1706254
1706512
1706770
1707028
1707276
1707524
1707774
1708030
1708284
1708546
1708820
1709088
1709352
1709612
1709878
1710142
1710406
1710674
1710934
1711186
1711440
1711688
1711940
1712196
1712458
1712738
1713024
1713300
1713578
1713854
1714120
1714384
1714642
1714896
1715152
1715410
1715674
1715936
1716202
1716470
1716730
1716992
1717256
1717520
1717780
1718038
1718296
1718542
1718794
1719042
1719286
1719532
1719782
1720034
1720286
1720552
1720820
1721098
1721370
1721630
1721894
1722158
1722414
1722672
1722932
1723194
1723466
1723732
1723998
1724270
1724536
1724818
1725094
1725378
1725666
1725940
1726224
1726508
1726780
1727058
1727340
1727624
1727908
1728198
1728478
1728760
1729046
1729334
1729620
1729886
1730156
1730418
1730678
1730946
1731210
1731484
1731764
1732038
1732316
1732594
1732870
1733136
1733400
1733668
1733932
1734198
1734466
1734742
1735012
1735298
1735582
1735862
1736146
1736438
1736732
1737012
1737300
1737588
1737858
1738136
1738402
1738660
1738924
1739184
1739438
1739686
1739928
1740176
1740418
1740662
1740916
1741174
1741428
1741684
1741946
1742222
1742500
1742782
1743066
1743344
1743616
1743898
1744178
1744442
1744712
1744984
1745246
1745514
1745790
1746070
1746338
1746618
1746894
1747160
1747432
1747694
1747964
1748234
1748496
1748758
1749020
1749272
1749520
1749774
1750038
1750308
1750576
1750858
1751138
1751410
1751682
1751954
1752224
1752490
1752758
1753022
1753290
1753564
1753840
1754112
1754394
1754662
1754932
1755208
1755474
1755738
1755994
1756246
1756500
1756754
1757004
1757260
1757524
1757788
1758052
1758314
1758574
1758828
1759076
1759318
1759558
1759798
1760046
1760294
1760542
1760792
1761066
1761352
1761632
1761928
1762204
1762486
1762752
1763028
1763296
1763560
1763818
1764078
1764332
1764582
1764828
1765078
1765340
1765620
1765914
1766202
1766492
1766798
1767114
1767418
1767732
1768052
1768364
1768662
1768978
1769294
1769612
1769910
1770222
1770544
1770854
1771160
1771470
1771768
1772050
1772354
1772654
1772968
1773298
1773624
1773952
1774288
1774618
1774946
1775282
1775614
1775944
1776288
1776622
1776946
1777282
1777610
1777928
1778258
1778580
1778868
1779160
1779456
1779772
1780092
1780402
1780720
1781048
1781362
1781690
1782026
1782346
1782678
1783022
1783358
1783696
1784040
1784376
1784712
1785056
1785388
1785728
1786072
1786406
1786744
1787066
1787378
1787708
1788032
1788344
1788672
1788990
1789294
1789604
1789918
1790214
1790526
1790824
1791106
1791388
1791684
1792000
1792324
1792636
1792968
1793300
1793622
1793958
1794298
1794624
1794958
1795300
1795632
1795972
1796316
1796648
1796988
1797332
1797666
1798006
1798350
1798686
1799026
1799374
1799706
