peaks
88
329
570
808
1048
1284
1510
1744
1988
2222
2454
2696
2942
3182
3412
3650
3892
4128
4356
4592
4836
5070
5306
5544
5786
6018
6252
6492
6734
6962
7196
7436
7680
7910
8134
8362
8594
8822
9046
9282
9522
9758
9984
10216
10454
10684
10910
11144
11382
11612
11836
12072
12310
12540
12770
13004
13246
13486
13712
13948
14186
14416
14642
14878
15122
15372
15602
15838
16076
16314
16544
16782
17022
17260
17484
17714
17948
18184
18410
18636
18866
19100
19326
19556
19794
20036
20268
20506
20746
20982
21208
21440
21676
21904
22122
22350
22580
22802
23026
23252
23478
23700
23916
24144
24370
24590
24826
25066
25292
25520
25752
25984
26206
26440
26682
26922
27154
27394
27646
27886
28124
28366
28614
28850
29080
29318
29556
29782
30010
30246
30484
30712
30948
31192
31440
31684
31912
32148
32386
32612
32846
33090
33338
33580
33820
34070
34320
34556
34798
35046
35298
35542
35776
36014
36260
36510
36744
36980
37220
37454
37684
37920
38156
38388
38612
38842
39072
39298
39520
39754
39992
40224
40452
40692
40938
41176
41406
41634
41860
42074
42286
42502
42728
42966
43200
43448
43710
43968
44206
44448
44694
44934
45176
45422
45676
45908
46148
46390
46630
46862
47102
47344
47578
47810
48048
48284
48510
48740
48976
49210
49430
49660
49892
50124
50346
50578
50812
51050
51278
51510
51742
51970
52192
52412
52628
52854
53072
53304
53544
53794
54038
54272
54514
54756
54976
55198
55424
55650
55864
56084
56322
56568
56798
57032
57284
57538
57768
57996
58240
58484
58712
58942
59190
59442
59682
59928
60184
60424
60664
60904
61146
61370
61600
61832
62058
62284
62522
62770
63008
63250
63504
63754
63994
64236
64488
64738
64976
65220
65466
65700
65936
66176
66414
66642
66878
67116
67342
67566
67792
68026
68252
68482
68724
68970
69204
69442
69686
69918
70154
70398
70636
70864
71100
71330
71550
71770
71994
72224
72446
72678
72922
73154
73384
73620
73858
74086
74326
74572
74806
75040
75278
75508
75742
75982
76224
76456
76694
76942
77188
77424
77666
77918
78164
78404
78650
78898
79128
79366
79602
79838
80062
80296
80532
80756
80990
81222
81452
81672
81900
82138
82370
82598
82836
83076
83312
83548
83796
84038
84266
84500
84736
84972
85198
85436
85678
85910
86148
86390
86618
86854
87094
87334
87562
87794
88028
88260
88484
88716
88954
89198
89424
89662
89902
90136
90366
90600
90832
91056
91288
91520
91742
91966
92200
92440
92670
92910
93154
93394
93618
93850
94088
94314
94542
94774
95006
95222
95450
95692
95918
96140
96376
96608
96832
97060
97296
97528
97744
97960
98184
98412
98622
98842
99066
99278
99498
99732
99960
100174
100408
100646
100866
101086
101316
101546
101758
101976
102206
102452
102670
102890
103112
103330
103540
103762
103992
104214
104438
104680
104922
105138
105360
105600
105834
106046
106262
106498
106734
106954
107194
107448
107684
107928
108178
108412
108632
108868
109118
109352
109584
109838
110084
110306
110540
110782
111008
111230
111474
111714
111942
112170
112402
112636
112850
113076
113316
113550
113770
114010
114260
114496
114736
114986
115238
115466
115702
115946
116188
116412
116648
116894
117126
117344
117578
117816
118040
118260
118488
118722
118938
119146
119362
119586
119800
120016
120246
120474
120688
120916
121154
121396
121624
121858
122104
122350
122576
122818
123068
123316
123544
123788
124040
124266
124496
124732
124966
125178
125410
125646
125866
126082
126314
126546
126760
126988
127222
127448
127666
127900
128130
128352
128594
128840
129072
129298
129544
129782
130000
130230
130482
130716
130944
131182
131426
131648
131876
132120
132358
132574
132800
133036
133268
133486
133724
133978
134230
134454
134692
134940
135162
135394
135630
135854
136066
136298
136538
136760
136986
137212
137436
137648
137880
138120
138344
138564
138796
139044
139274
139502
139742
139994
140216
140438
140688
140934
141162
141406
141650
141876
142096
142344
142590
142818
143028
143226
143410
143584
143776
143988
144204
144416
144644
144890
145136
145402
145692
145976
146242
146496
146754
146982
147224
147486
147734
147970
148220
148474
148708
148940
149176
149408
149634
149880
150136
150390
150628
150872
151116
151358
151590
151812
152042
152274
152504
152736
152968
153192
153404
153604
153786
153972
154162
154352
154546
154740
154946
155176
155398
155608
155834
156074
156306
156534
156782
157036
157262
157464
157664
157858
158030
158200
158360
158528
158694
158852
159006
159156
159304
159450
159594
159736
159878
160020
160160
160302
160444
160586
160726
160866
161004
161142
161278
161416
161554
161688
161820
161952
162082
162212
162340
162466
162588
162710
162832
162950
163068
163186
163304
163422
163546
163678
163824
163986
164190
164410
164626
164848
165072
165284
165486
165688
165894
166094
166286
166476
166656
166836
167008
167186
167372
167550
167716
167884
168046
168196
168354
168514
168680
168852
169030
169210
169382
169552
169724
169888
170056
170224
170386
170548
170714
170892
171074
171264
171454
171650
171838
172018
172202
172388
172580
172768
172958
173158
173370
173590
173796
173994
174188
174378
174562
174742
174922
175100
175280
175466
175650
175840
176030
176214
176390
176558
176728
176906
177080
177260
177452
177646
177842
178042
178246
178452
178656
178848
179042
179236
179434
179624
179812
180000
180190
180378
180560
180744
180930
181110
181284
181456
181630
181792
181956
182122
182286
182460
182630
182794
182962
183136
183312
183484
183664
183844
184012
184168
184326
184480
184642
184804
184968
185148
185326
185506
185676
185858
186042
186218
186388
186558
186724
186886
187052
187216
187374
187538
187702
187866
188032
188194
188356
188510
188666
188826
188986
189148
189298
189452
189600
189744
189886
190036
190186
190336
190494
190654
190806
190962
191106
191260
191412
191570
191724
191872
192032
192198
192372
192532
192692
192862
193020
193182
193336
193486
193638
193788
193934
194086
194232
194374
194514
194656
194796
194932
195072
195210
195350
195492
195634
195772
195908
196046
196180
196314
196444
196574
196704
196834
196964
197088
197214
197340
197466
197590
197712
197836
197960
198084
198206
198326
198448
198568
198692
198812
198934
199060
199190
199328
199460
199592
199728
199874
200024
200172
200322
200472
200622
200776
200928
201078
201244
201412
201582
201746
201910
202078
202258
202428
202602
202786
202982
203172
203368
203572
203764
203960
204154
204340
204524
204706
204890
205064
205238
205404
205568
205722
205874
206030
206196
206366
206536
206706
206880
207050
207214
207372
207530
207680
207832
207984
208140
208288
208438
208592
208752
208914
209082
209262
209444
209624
209796
209968
210142
210318
210490
210646
210802
210954
211106
211260
211412
211568
211720
211880
212060
212242
212422
212596
212774
212948
213122
213306
213498
213692
213878
214068
214262
214460
214646
214834
215022
215216
215398
215582
215762
215940
216124
216308
216502
216690
216878
217068
217252
217426
217602
217774
217936
218096
218254
218406
218552
218694
218840
218988
219136
219284
219434
219588
219738
219886
220032
220178
220314
220448
220580
220712
220842
220968
221096
221230
221368
221508
221644
221780
221916
222052
222186
222316
222446
222580
222714
222846
222978
223112
223246
223384
223530
223674
223814
223960
224112
224268
224412
224554
224698
224856
225034
225202
225372
225540
225712
225876
226036
226186
226342
226498
226660
226816
226970
227118
227268
227422
227580
227740
227896
228050
228206
228360
228520
228676
228836
228994
229144
229290
229436
229578
229716
229850
229984
230118
230256
230396
230530
230666
230812
230968
231136
231296
231458
231624
231790
231956
232114
232266
232412
232556
232702
232854
233016
233178
233338
233494
233650
233806
233972
234142
234306
234470
234634
234804
234970
235134
235296
235460
235626
235790
235948
236112
236274
236442
236614
236780
236946
237116
237284
237456
237620
237784
237946
238110
238274
238434
238586
238740
238888
239032
239180
239334
239496
239662
239820
239986
240158
240336
240514
240676
240840
241004
241170
241336
241492
241650
241808
241974
242138
242294
242448
242602
242760
242920
243074
243226
243380
243532
243682
243828
243990
244154
244322
244490
244650
244804
244958
245112
245264
245412
245556
245704
245860
246010
246156
246302
246446
246590
246734
246878
247018
247162
247306
247448
247586
247728
247872
248020
248162
248306
248452
248596
248740
248882
249028
249176
249322
249464
249602
249738
249874
250008
250144
250282
250414
250546
250676
250812
250948
251086
251224
251360
251496
251632
251768
251916
252070
252240
252400
252562
252718
252868
253012
253158
253308
253458
253616
253774
253930
254082
254240
254402
254568
254726
254884
255048
255218
255386
255540
255698
255852
256002
256156
256306
256458
256612
256762
256906
257052
257198
257346
257492
257636
257784
257930
258072
258216
258360
258502
258648
258796
258946
259096
259242
259388
259538
259694
259852
260004
260162
260320
260476
260628
260776
260928
261084
261238
261390
261546
261708
261866
262018
262168
262316
262460
262604
262752
262898
263044
263194
263346
263496
263646
263792
263944
264112
264274
264430
264576
264722
264860
264996
265128
265260
265392
265526
265664
265806
265948
266086
266222
266360
266498
266634
266764
266896
267026
267154
267282
267408
267536
267664
267790
267916
268042
268166
268288
268416
268546
268672
268800
268926
269052
269178
269302
269426
269548
269676
269808
269938
270066
270198
270328
270464
270594
270728
270858
270988
271122
271256
271390
271526
271662
271808
271956
272098
272238
272378
272514
272650
272784
272922
273062
273206
273350
273496
273644
273798
273972
274150
274320
274478
274638
274802
274956
275102
275244
275384
275522
275664
275796
275932
276068
276204
276340
276472
276610
276754
276898
277036
277172
277308
277444
277582
277716
277844
277974
278100
278226
278354
278484
278614
278750
278882
279020
279158
279300
279440
279588
279732
279880
280032
280194
280350
280508
280684
280860
281052
281216
281380
281542
281700
281848
282002
282156
282312
282474
282638
282792
282936
283082
283224
283372
283510
283648
283786
283932
284076
284210
284342
284474
284606
284736
284864
284986
285110
285238
285366
285488
285612
285734
285854
285974
286094
286212
286330
286448
286572
286698
286828
286958
287086
287220
287348
287486
287622
287762
287896
288030
288166
288306
288444
288574
288706
288838
288970
289100
289228
289358
289488
289620
289750
289876
290006
290140
290274
290404
290538
290668
290798
290922
291050
291178
291308
291444
291578
291712
291850
291992
292138
292284
292430
292576
292718
292860
293004
293146
293296
293448
293594
293744
293830
294086
294248
294404
294578
294748
294932
295116
295294
295480
295674
295880
296092
296298
296484
296676
296864
297058
297250
297432
297608
297782
297968
298154
298332
298510
298686
298862
299056
299258
299450
299670
299892
300096
300318
300546
300778
300994
301208
301436
301676
301912
302140
302356
302542
302718
302910
303086
303258
303462
303684
303900
304092
304286
304480
304676
304866
305050
305228
305410
305584
305746
305908
306082
306278
306478
306684
306888
307096
307304
307506
307700
307890
308072
308254
308414
308578
308738
308916
309106
309306
309510
309722
309914
310094
310278
310462
310658
310860
311068
311278
311484
311688
311888
312084
312280
312478
312674
312868
313058
313222
313396
313566
313760
313954
314154
314352
314552
314746
314930
315094
315260
315434
315618
315808
316002
316188
316376
316552
316714
316882
317060
317264
317480
317712
317924
318148
318374
318604
318828
319034
319202
319398
319596
319812
320010
320212
320424
320650
320878
321104
321328
321540
321742
321948
322160
322372
322586
322784
322970
323150
323334
323520
323714
323926
324156
324406
324664
324918
325172
325416
325650
325858
326066
326278
326500
326724
326954
327178
327384
327562
327744
327934
328142
328358
328562
328770
328998
329214
329432
329672
329904
330134
330362
330576
330792
331018
331234
331452
331664
331872
332076
332296
332542
332784
333008
333224
333450
333678
333902
334124
334328
334526
334734
334938
335122
335308
335494
335688
335884
336080
336268
336450
336636
336826
337026
337216
337420
337622
337830
338036
338240
338440
338626
338818
339008
339198
339388
339582
339774
339964
340142
340322
340504
340692
340870
341056
341250
341456
341674
341892
342108
342318
342524
342726
342922
343106
343284
343462
343644
343826
344028
344236
344426
344632
344842
345062
345286
345508
345728
345946
346152
346358
346560
346760
346956
347148
347326
347488
347656
347814
347978
348140
348322
348516
348708
348894
349076
349262
349448
349642
349830
350012
350202
350384
350578
350774
350976
351180
351380
351574
351770
351968
352164
352360
352558
352754
352946
353134
353314
353486
353646
353810
353972
354152
354336
354526
354716
354910
355108
355294
355488
355690
355898
356100
356302
356496
356676
356858
357042
357232
357426
357624
357808
357996
358176
358352
358520
358690
358862
359024
359180
359342
359506
359678
359854
360036
360212
360396
360578
360760
360938
361104
361260
361418
361576
361748
361926
362098
362272
362466
362658
362866
363080
363294
363512
363718
363904
364090
364278
364464
364644
364834
365032
365250
365472
365698
365928
366156
366358
366562
366768
366976
367180
367384
367582
367778
367966
368154
368334
368506
368674
368844
369030
369230
369446
369642
369832
370030
370252
370468
370672
370888
371090
371306
371530
371754
371970
372178
372364
372556
372750
372950
373152
373346
373542
373750
373968
374196
374428
374662
374896
375132
375358
375578
375812
376034
376260
376490
376712
376930
377146
377336
377522
377708
377894
378090
378296
378506
378714
378916
379116
379304
379488
379670
379848
380026
380192
380354
380518
380708
380908
381122
381342
381570
381774
381982
382192
382410
382624
382834
383038
383238
383434
383630
383816
383990
384164
384360
384568
384790
385008
385208
385394
385576
385754
385936
386118
386290
386446
386604
386756
386912
387070
387230
387396
387562
387740
387912
388090
388268
388452
388634
388812
388988
389158
389318
389482
389648
389828
390006
390180
390348
390516
390686
390860
391048
391250
391470
391686
391900
392106
392302
392496
392676
392856
393044
393242
393456
393676
393882
394084
394292
394504
394716
394924
395116
395294
395470
395648
395814
395988
396162
396350
396544
396744
396948
397148
397338
397518
397700
397884
398072
398280
398504
398746
398986
399200
399430
399662
399886
400116
400354
400580
400800
401030
401260
401484
401702
401924
402142
402358
402576
402786
402980
403166
403346
403520
403696
403872
404042
404216
404388
404564
404740
404920
405110
405310
405520
405730
405934
406136
406326
406504
406680
406856
407028
407194
407370
407560
407748
407930
408120
408322
408530
408750
408978
409190
409404
409624
409846
410052
410240
410430
410622
410824
411026
411232
411440
411648
411850
412044
412222
412404
412586
412762
412948
413146
413352
413558
413762
413960
414148
414340
414530
414710
414888
415072
415266
415474
415688
415908
416122
416338
416524
416712
416898
417076
417254
417446
417644
417850
418046
418258
418478
418698
418916
419142
419374
419602
419828
420044
420250
420454
420650
420842
421020
421194
421362
421544
421736
421946
422146
422362
422578
422812
423048
423284
423524
423754
423960
424164
424368
424574
424780
424982
425172
425354
425542
425734
425946
426156
426360
426578
426802
427030
427252
427450
427648
427848
428052
428266
428486
428690
428880
429074
429278
429500
429724
429952
430178
430400
430604
430792
430984
431184
431392
431604
431822
432030
432218
432406
432604
432804
433016
433240
433462
433682
433892
434104
434314
434526
434732
434916
435100
435286
435476
435682
435884
436092
436296
436482
436670
436862
437056
437262
437464
437668
437872
438064
438258
438454
438642
438828
439020
439228
439446
439678
439914
440146
440376
440600
440820
441024
441226
441432
441636
441844
442058
442272
442488
442708
442928
443126
443322
443522
443732
443942
444154
444360
444558
444760
444948
445138
445334
445544
445758
445968
446182
446390
446594
446790
446980
447164
447332
447504
447676
447854
448040
448218
448410
448584
448758
448928
449088
449264
449458
449662
449870
450080
450274
450470
450668
450872
451078
451286
451488
451692
451896
452098
452296
452492
452672
452848
453022
453204
453408
453616
453828
454048
454272
454494
454716
454936
455152
455364
455548
455736
455916
456102
456296
456496
456684
456880
457074
457268
457466
457650
457832
458020
458214
458418
458620
458822
459006
459196
459382
459566
459750
459936
460110
460294
460476
460660
460850
461032
461222
461412
461606
461794
461990
462184
462382
462574
462764
462956
463154
463354
463564
463774
463982
464184
464380
464574
464760
464940
465118
465300
465482
465664
465854
466046
466246
466446
466644
466838
467020
467208
467398
467594
467790
467988
468178
468360
468546
468730
468918
469112
469310
469514
469722
469934
470140
470346
470534
470730
470924
471120
471316
471510
471700
471878
472048
472220
472390
472574
472764
472948
473136
473358
473598
473848
474070
474296
474532
474756
474980
475216
475460
475696
475928
476160
476370
476582
476796
477006
477206
477416
477636
477860
478090
478320
478526
478718
478920
479134
479340
479536
479738
479930
480128
480332
480544
480760
480968
481180
481398
481620
481828
482040
482250
482464
482678
482878
483076
483270
483470
483676
483880
484080
484272
484454
484630
484808
484990
485192
485398
485616
485852
486102
486356
486614
486862
487104
487336
487550
487760
487968
488172
488372
488562
488752
488946
489142
489330
489526
489732
489936
490144
490346
490542
490724
490908
491094
491288
491478
491676
491882
492100
492324
492548
492778
493002
493220
493428
493616
493796
493976
494156
494346
494532
494712
494886
495068
495262
495454
495640
495824
496024
496210
496406
496606
496806
496992
497184
497372
497566
497764
497964
498156
498350
498544
498728
498912
499094
499292
499504
499702
499904
500110
500326
500528
500738
500950
501164
501380
501590
501782
501972
502162
502354
502552
502756
502958
503158
503346
503538
503732
503936
504144
504340
504544
504748
504956
505172
505382
505588
505780
505974
506172
506380
506584
506798
507018
507240
507460
507676
507872
508074
508282
508500
508718
508938
509154
509378
509602
509820
510034
510250
510472
510694
510908
511114
511324
511520
511722
511926
512132
512336
512516
512700
512880
513064
513250
513434
513608
513774
513946
514122
514306
514500
514696
514896
515078
515256
515436
515624
515826
516042
516264
516486
516706
516906
517110
517320
517514
517710
517916
518130
518344
518552
518758
518956
519136
519320
519504
519694
519888
520084
520286
520488
520692
520882
521070
521264
521466
521670
521870
522072
522270
522466
522652
522830
523010
523194
523390
523580
523776
523972
524162
524354
524550
524754
524948
525134
525324
525514
525716
525922
526130
526334
526532
526718
526896
527068
527244
527430
527630
527834
528042
528246
528444
528630
528818
529006
529194
529382
529568
529750
529932
530118
530304
530492
530678
530860
531034
531212
531390
531568
531748
531924
532104
532290
532486
532688
532884
533072
533264
533466
533668
533858
534048
534240
534424
534618
534818
535022
535224
535426
535616
535800
535976
536154
536334
536524
536722
536922
537118
537314
537508
537698
537888
538072
538258
538444
538628
538808
538986
539162
539334
539532
539740
539940
540124
540306
540494
540692
540904
541118
541334
541532
541738
541938
542144
542352
542550
542752
542956
543158
543350
543534
543720
543910
544102
544298
544496
544698
544900
545100
545288
545468
545640
545812
545980
546170
546372
546584
546800
547008
547202
547398
547598
547800
547998
548186
548380
548578
548780
548984
549186
549372
549560
549744
549926
550112
550296
550484
550674
550850
551030
551204
551378
551556
551750
551952
552156
552364
552562
552774
552998
553212
553410
553602
553794
553988
554176
554374
554574
554776
554964
555154
555338
555524
555704
555892
556086
556292
556496
556702
556906
557100
557296
557486
557688
557894
558090
558298
558510
558726
558936
559142
559344
559526
559710
559894
560078
560268
560450
560638
560828
561016
561198
561380
561586
561820
562016
562224
562426
562616
562804
562986
563160
563326
563490
563652
563810
563956
564106
564252
564408
564588
564774
564966
565150
565320
565484
565656
565830
566022
566216
566394
566576
566762
566956
567160
567356
567548
567736
567920
568100
568268
568440
568610
568792
568982
569174
569366
569554
569740
569924
570106
570288
570466
570644
570814
570982
571150
571332
571532
571734
571924
572118
572314
572514
572708
572902
573080
573264
573446
573632
573818
574000
574168
574342
574512
574688
574864
575044
575224
575400
575570
575742
575916
576090
576268
576446
576624
576798
576974
577150
577324
577496
577674
577856
578034
578218
578404
578594
578778
578956
579130
579306
579482
579662
579844
580028
580206
580378
580552
580716
580876
581038
581192
581352
581526
581706
581892
582086
582280
582472
582658
582844
583028
583210
583406
583588
583770
583952
584138
584318
584494
584664
584828
585004
585186
585378
585580
585782
585974
586174
586374
586582
586786
586990
587186
587378
587564
587744
587922
588090
588258
588422
588592
588772
588958
589150
589342
589538
589720
589900
590082
590260
590458
590654
590860
591070
591276
591460
591650
591834
592022
592214
592412
592594
592778
592960
593144
593324
593510
593698
593886
594060
594242
594420
594598
594776
594946
595116
595288
595464
595648
595840
596038
596236
596428
596608
596790
596966
597140
597314
597492
597670
597848
598034
598216
598402
598582
598774
598964
599154
599336
599508
599682
599858
600042
600222
600412
600604
600808
601012
601198
601386
601582
601780
601984
602188
602388
602578
602774
602970
603170
603356
603556
603754
603952
604152
604352
604542
604738
604934
605122
605308
605496
605686
605878
606062
606248
606440
606634
606826
607018
607218
607422
607628
607834
608042
608250
608456
608656
608860
609064
609268
609472
609672
609872
610066
610258
610446
610638
610828
611006
611190
611372
611560
611746
611930
612110
612286
612454
612624
612796
612968
613138
613304
613472
613648
613836
614028
614216
614396
614574
614752
614932
615112
615292
615466
615634
615802
615972
616156
616348
616546
616742
616938
617124
617308
617492
617672
617844
618014
618180
618348
618510
618698
618896
619102
619304
619502
619696
619888
620070
620242
620414
620586
620766
620962
621170
621376
621578
621780
621980
622180
622372
622556
622746
622934
623128
623320
623518
623714
623902
624084
624260
624436
624616
624802
624980
625158
625340
625514
625698
625888
626090
626284
626466
626648
626836
627024
627214
627408
627604
627798
627990
628166
628342
628518
628700
628886
629066
629264
629476
629698
629916
630134
630356
630574
630770
630960
631160
631354
631542
631728
631916
632112
632310
632514
632720
632918
633114
633312
633510
633712
633910
634094
634280
634474
634672
634872
635072
635276
635462
635654
635844
636036
636234
636418
636600
636784
636970
637156
637342
637524
637704
637874
638040
638206
638378
638560
638744
638934
639130
639326
639512
639700
639886
640068
640266
640470
640668
640878
641090
641302
641494
641678
641856
642036
642224
642428
642640
642856
643064
643262
643466
643660
643862
644068
644286
644500
644714
644930
645136
645352
645566
645778
645980
646190
646396
646604
646804
647004
647208
647420
647636
647846
648048
648258
648456
648664
648870
649058
649254
649454
649658
649858
650048
650246
650444
650640
650840
651036
651230
651414
651586
651758
651932
652116
652312
652502
652692
652896
653112
653332
653544
653756
653950
654146
654344
654536
654726
654922
655122
655328
655538
655748
655948
656130
656320
656510
656708
656904
657102
657284
657478
657670
657868
658058
658254
658438
658626
658812
658992
659172
659362
659558
659756
659942
660138
660338
660536
660732
660918
661100
661284
661472
661658
661846
662034
662214
662400
662584
662766
662946
663124
663296
663472
663646
663814
663988
664156
664324
664494
664654
664818
664974
665130
665288
665446
665604
665756
665910
666062
666216
666366
666516
666674
666834
666996
667160
667322
667500
667680
667868
668062
668244
668428
668616
668802
668988
669178
669374
669572
669764
669944
670128
670306
670486
670658
670832
671004
671182
671354
671528
671706
671886
672084
672286
672494
672700
672898
673086
673266
673444
673622
673790
673956
674126
674320
674522
674750
674962
675182
675424
675674
675928
676148
676362
676574
676770
676968
677174
677374
677572
677758
677946
678136
678324
678506
678690
678878
679068
679266
679466
679664
679858
680036
680218
680406
680606
680818
681032
681234
681446
681656
681874
682082
682272
682468
682666
682870
683074
683274
683466
683660
683850
684030
684210
684398
684594
684804
685014
685216
685410
685608
685806
686006
686202
686382
686566
686750
686940
687132
687322
687510
687702
687902
688100
688300
688498
688692
688872
689056
689240
689432
689608
689796
689986
690188
690388
690584
690766
690950
691136
691318
691496
691678
691856
692042
692252
692472
692702
692930
693154
693368
693556
693740
693926
694142
694344
694552
694744
694946
695148
695350
695560
695752
695928
696104
696288
696460
696616
696774
696934
697092
697244
697390
697534
697674
697812
697950
698086
698220
698352
698482
698610
698740
698866
698996
699128
699266
699410
699542
699682
699828
699996
700174
700354
700536
700710
700902
701092
701280
701472
701666
701866
702066
702262
702442
702622
702794
702966
703144
703324
703498
703678
703860
704056
704252
704440
704640
704836
705038
705240
705432
705626
705818
706010
706202
706392
706578
706758
706932
707098
707266
707432
707598
707768
707940
708116
708298
708480
708652
708820
708988
709158
709330
709500
709674
709850
710028
710202
710386
710578
710780
710990
711198
711402
711606
711808
712006
712202
712396
712594
712790
712988
713186
713382
713576
713772
713964
714152
714330
714504
714676
714848
715020
715190
715370
715550
715734
715922
716112
716300
716478
716650
716826
717000
717178
717362
717546
717722
717900
718082
718268
718460
718646
718836
719012
719190
719368
719546
719722
719890
720064
720240
720432
720628
720826
721026
721224
721416
721608
721802
721998
722196
722390
722578
722768
722958
723132
723308
723478
723648
723826
724006
724184
724366
724550
724736
724926
725116
725298
725482
725662
725846
726030
726216
726392
726562
726732
726904
727076
727248
727436
727630
727826
728010
728202
728398
728602
728806
729012
729216
729414
729610
729798
729990
730184
730382
730580
730778
730966
731148
731332
731518
731706
731890
732064
732242
732420
732610
732808
733002
733190
733390
733590
733792
733990
734186
734386
734586
734788
734978
735176
735376
735578
735770
735964
736166
736372
736568
736758
736956
737154
737346
737526
737716
737906
738094
738282
738478
738670
738850
739028
739202
739374
739556
739742
739930
740126
740334
740536
740744
740954
741150
741356
741564
741760
741962
742168
742374
742580
742780
742972
743152
743336
743516
743696
743876
744056
744238
744412
744580
744750
744918
745098
745282
745460
745634
745816
745994
746166
746332
746510
746690
746862
747044
747228
747408
747594
747784
747968
748156
748346
748538
748718
748904
749096
749296
749502
749704
749904
750108
750304
750486
750668
750868
751112
751308
751516
751718
751904
752088
752266
752438
752600
752752
752908
753058
753208
753364
753538
753718
753900
754084
754272
754464
754656
754848
755040
755218
755406
755594
755788
755972
756168
756362
756560
756758
756948
757128
757306
757478
757648
757822
758010
758210
758406
758620
758842
759060
759270
759488
759710
759930
760128
760332
760540
760752
760966
761176
761384
761586
761784
761982
762174
762362
762534
762710
762882
763060
763238
763418
763604
763790
763972
764158
764350
764548
764754
764956
765156
765362
765568
765782
765984
766176
766374
766574
766774
766966
767166
767370
767580
767792
768004
768216
768422
768616
768816
769024
769226
769418
769620
769830
770040
770240
770444
770648
770838
771036
771236
771440
771632
771840
772046
772258
772454
772658
772862
773060
773254
773456
773656
773844
774038
774230
774424
774614
774808
775010
775208
775410
775622
775836
776040
776246
776450
776650
776844
777044
777240
777432
777622
777808
777980
778154
778326
778502
778684
778858
779036
779218
779402
779578
779764
779954
780150
780336
780518
780708
780900
781092
781284
781474
781660
781846
782022
782202
782384
782570
782762
782950
783136
783316
783490
783662
783828
783988
784144
784308
784476
784660
784852
785042
785222
785394
785570
785738
785904
786084
786276
786462
786660
786862
787070
787272
787480
787698
787906
788118
788332
788534
788724
788906
789086
789270
789452
789628
789816
790004
790198
790398
790598
790808
791008
791220
791442
791664
791888
792110
792332
792552
792760
792966
793174
793384
793598
793808
794018
794230
794456
794686
794918
795144
795362
795586
795810
796034
796234
796444
796656
796872
797072
797290
797508
797730
797940
798162
798386
798592
798804
799020
799240
799444
799658
799874
800084
800276
800460
800648
800834
801014
801198
801382
801564
801742
801916
802086
802250
802412
802572
802734
802904
803066
803226
803386
803554
803730
803904
804072
804252
804436
804626
804826
805030
805226
805430
805640
805854
806054
806256
806464
806676
806880
807074
807264
807448
807644
807850
808042
808248
808456
808668
808878
809072
809262
809450
809640
809822
810008
810196
810392
810580
810772
810970
811164
811368
811578
811794
812008
812204
812392
812574
812762
813004
813202
813400
813604
813804
813990
814172
814374
814578
814764
814948
815128
815298
815464
815624
815784
815960
816142
816326
816504
816676
816864
817060
817250
817446
817638
817836
818032
818216
818394
818570
818748
818948
819138
819332
819522
819714
819926
820108
820290
820488
820672
820846
821010
821168
821324
821472
821620
821762
821906
822054
822228
822396
822548
822692
822836
822976
823114
823252
823390
823526
823666
823806
823954
824102
824242
824382
824526
824696
824890
825058
825216
825370
825520
825666
825810
825952
826090
826228
826364
826500
826634
826768
826906
827060
827226
827396
827572
827748
827926
828098
828266
828426
828578
828726
828876
829020
829162
829304
829444
829582
829720
829854
829988
830126
830260
830396
830534
830676
830820
830962
831106
831248
831390
831530
831672
831808
831948
832084
832232
832384
832554
832718
832886
833060
833236
833412
833580
833750
833906
834068
834250
834444
834616
834778
834932
835080
835226
835368
835506
835644
835786
835944
836102
836250
836394
836536
836676
836814
836952
837088
837224
837360
837498
837634
837770
837904
838040
838176
838314
838454
838592
838726
838868
839012
839170
839322
839466
839614
839766
839916
840070
840220
840378
840540
840704
840872
841038
841204
841362
841522
841674
841824
841976
842146
842318
842498
842676
842852
843030
843208
843386
843562
843730
843898
844066
844238
844412
844584
844758
844944
845174
845374
845564
845750
845924
846096
846264
846426
846588
846750
846916
847080
847232
847394
847558
847730
847906
848086
848266
848436
848608
848782
848960
849136
849310
849474
849636
849798
849968
850140
850314
850488
850666
850844
851014
851190
851368
851542
851724
851898
852080
852266
852456
852642
852828
853012
853196
853376
853548
853712
853878
854040
854214
854388
854566
854744
854928
855110
855292
855470
855644
855814
855972
856130
856284
856438
856600
856770
856940
857110
857278
857448
857614
857774
857926
858078
858234
858394
858562
858734
858912
859088
859252
859420
859582
859750
859924
860104
860290
860476
860658
860834
861010
861186
861362
861532
861706
861886
862060
862236
862414
862600
862786
862962
863150
863332
863508
863680
863854
864028
864208
864394
864580
864768
864952
865130
865308
865480
865648
865818
865984
866152
866328
866508
866686
866874
867066
867252
867442
867638
867838
868028
868224
868422
868622
868822
869028
869232
869422
869616
869810
870004
870196
870384
870568
870728
870902
871066
871234
871396
871556
871728
871900
872076
872246
872422
872600
872780
872958
873134
873308
873482
873650
873812
873978
874144
874320
874488
874658
874826
874994
875166
875348
875538
875738
875944
876148
876348
876548
876736
876918
877096
877262
877424
877586
877756
877934
878112
878300
878492
878682
878868
879052
879234
879406
879572
879742
879916
880084
880256
880434
880632
880834
881038
881242
881446
881644
881834
882024
882208
882382
882558
882736
882914
883098
883272
883458
883642
883828
884000
884190
884380
884564
884752
884944
885132
885324
885520
885714
885908
886102
886280
886458
886664
886912
887114
887306
887494
887680
887860
888038
888210
888378
888544
888704
888862
889014
889164
889316
889476
889634
889804
889990
890180
890362
890540
890738
890942
891124
891296
891458
891612
891764
891912
892060
892206
892352
892496
892636
892778
892920
893062
893204
893352
893532
893716
893906
894088
894286
894482
894682
894882
895078
895268
895448
895628
895806
895984
896160
896330
896496
896664
896824
896990
897144
897306
897472
897644
897824
898000
898174
898364
898552
898742
898930
899116
899292
899464
899632
899802
899972
900136
900302
900466
900638
900808
900978
901146
901316
901510
901708
901908
902110
902312
902502
902688
902874
903056
903248
903440
903634
903832
904030
904206
904386
904558
904726
904902
905084
905270
905442
905624
905794
905974
906152
906332
906514
906692
906872
907056
907240
907414
907594
907776
907962
908154
908340
908540
908738
908936
909134
909332
909526
909718
909920
910120
910318
910510
910650
910878
911058
911234
911414
911594
911778
911974
912160
912350
912538
912714
912892
913064
913242
913420
913592
913770
913948
914140
914336
914538
914744
914956
915154
915342
915534
915730
915928
916118
916298
916486
916666
916842
917024
917212
917404
917596
917784
917980
918178
918380
918584
918780
918972
919158
919336
919506
919676
919846
920024
920210
920400
920588
920762
920942
921126
921308
921492
921684
921882
922078
922270
922458
922640
922810
922980
923152
923328
923502
923680
923864
924064
924270
924464
924670
924884
925098
925312
925516
925702
925892
926080
926258
926436
926620
926810
927012
927210
927400
927586
927776
927966
928158
928354
928548
928730
928918
929110
929304
929498
929692
929866
930046
930228
930408
930602
930792
930998
931210
931426
931646
931858
932068
932272
932460
932638
932814
932982
933158
933332
933514
933700
933880
934066
934258
934452
934642
934824
935002
935176
935338
935496
935646
935790
935934
936070
936210
936346
936486
936626
936774
936920
937062
937204
937354
937512
937676
937854
938026
938208
938404
938612
938826
939026
939218
939410
939600
939784
939966
940152
940346
940548
940752
940962
941170
941372
941568
941756
941932
942102
942274
942438
942598
942770
942948
943138
943326
943512
943686
943860
944032
944206
944376
944546
944728
944916
945118
945332
945548
945770
945996
946228
946454
946670
946886
947104
947332
947542
947736
947926
948112
948290
948464
948636
948810
949020
949222
949432
949662
949896
950122
950340
950546
950738
950922
951110
951312
951522
951740
951954
952182
952422
952648
952872
953098
953320
953540
953742
953934
954130
954330
954542
954748
954958
955158
955348
955526
955700
955882
956076
956278
956476
956690
956910
957136
957344
957548
957754
957970
958178
958384
958592
958786
958982
959186
959398
959604
959814
960024
960232
960436
960638
960832
961012
961196
961380
961562
961740
961926
962116
962310
962512
962708
962914
963120
963326
963532
963732
963922
964106
964290
964468
964642
964818
965002
965196
965398
965598
965792
965982
966162
966342
966524
966700
966880
967068
967266
967468
967666
967860
968050
968230
968416
968600
968784
968966
969148
969328
969502
969678
969858
970032
970208
970392
970576
970774
970978
971182
971380
971586
971794
972004
972208
972406
972608
972818
973032
973254
973472
973684
973880
974064
974240
974412
974590
974762
974942
975138
975334
975556
975762
975988
976224
976464
976696
976904
977094
977284
977476
977674
977876
978082
978288
978494
978700
978910
979116
979326
979538
979748
979948
980158
980370
980586
980808
981032
981252
981466
981674
981878
982082
982274
982462
982640
982818
983016
983206
983390
983580
983774
983952
984132
984314
984500
984690
984874
985066
985266
985474
985684
985890
986094
986306
986518
986726
986926
987140
987360
987574
987798
988020
988242
988450
988664
988880
989086
989288
989498
989714
989926
990130
990344
990558
990762
990968
991176
991382
991580
991792
992014
992234
992438
992648
992860
993068
993266
993472
993678
993872
994066
994264
994452
994644
994834
995024
995224
995428
995628
995836
996044
996246
996454
996664
996872
997086
997302
997518
997720
997926
998138
998342
998556
998774
998992
999202
999422
999638
999840
1000052
1000266
1000472
1000678
1000886
1001102
1001306
1001514
1001722
1001928
1002124
1002328
1002536
1002738
1002928
1003122
1003322
1003528
1003730
1003930
1004124
1004300
1004474
1004640
1004800
1004976
1005158
1005342
1005518
1005702
1005890
1006080
1006270
1006456
1006638
1006808
1006980
1007154
1007334
1007530
1007730
1007934
1008122
1008316
1008514
1008716
1008908
1009112
1009324
1009526
1009726
1009936
1010138
1010346
1010556
1010750
1010950
1011152
1011360
1011566
1011754
1011946
1012136
1012330
1012518
1012706
1012898
1013100
1013304
1013508
1013710
1013900
1014084
1014262
1014434
1014618
1014812
1015006
1015216
1015426
1015638
1015850
1016064
1016276
1016482
1016668
1016854
1017042
1017238
1017440
1017644
1017846
1018032
1018220
1018412
1018606
1018806
1019008
1019222
1019436
1019642
1019846
1020048
1020238
1020422
1020610
1020804
1020994
1021190
1021388
1021586
1021776
1021966
1022160
1022348
1022558
1022750
1022938
1023120
1023308
1023496
1023678
1023854
1024032
1024216
1024410
1024606
1024814
1025030
1025258
1025496
1025736
1025982
1026228
1026474
1026710
1026938
1027172
1027412
1027642
1027868
1028076
1028284
1028476
1028672
1028900
1029092
1029288
1029494
1029688
1029870
1030046
1030212
1030364
1030520
1030680
1030848
1031022
1031180
1031334
1031484
1031630
1031774
1031916
1032056
1032196
1032334
1032474
1032612
1032756
1032908
1033068
1033230
1033386
1033538
1033696
1033868
1034054
1034244
1034436
1034624
1034818
1035004
1035184
1035362
1035530
1035698
1035862
1036032
1036200
1036366
1036534
1036700
1036870
1037036
1037194
1037358
1037520
1037684
1037840
1037992
1038144
1038296
1038450
1038616
1038786
1038948
1039116
1039288
1039462
1039626
1039788
1039948
1040104
1040260
1040420
1040594
1040762
1040942
1041128
1041312
1041508
1041714
1041906
1042108
1042312
1042520
1042724
1042920
1043110
1043312
1043518
1043728
1043936
1044142
1044326
1044512
1044696
1044884
1045070
1045250
1045420
1045594
1045774
1045950
1046138
1046328
1046524
1046718
1046902
1047086
1047268
1047454
1047648
1047842
1048034
1048216
1048396
1048572
1048752
1048938
1049128
1049318
1049506
1049690
1049882
1050080
1050272
1050464
1050650
1050830
1051008
1051182
1051350
1051524
1051710
1051904
1052100
1052292
1052482
1052662
1052842
1053018
1053198
1053378
1053550
1053730
1053904
1054086
1054262
1054436
1054620
1054796
1054978
1055162
1055350
1055538
1055724
1055914
1056102
1056280
1056460
1056646
1056836
1057032
1057226
1057418
1057600
1057782
1057964
1058138
1058316
1058496
1058670
1058838
1059006
1059174
1059338
1059514
1059690
1059868
1060052
1060236
1060404
1060578
1060754
1060930
1061108
1061284
1061466
1061660
1061860
1062064
1062264
1062466
1062666
1062868
1063074
1063280
1063472
1063652
1063838
1064020
1064202
1064386
1064566
1064736
1064910
1065086
1065266
1065444
1065620
1065800
1065970
1066142
1066318
1066504
1066696
1066890
1067086
1067278
1067456
1067638
1067820
1068010
1068194
1068388
1068584
1068772
1068964
1069160
1069354
1069556
1069762
1069970
1070180
1070382
1070588
1070794
1070992
1071192
1071396
1071606
1071814
1072004
1072198
1072390
1072584
1072776
1072954
1073138
1073316
1073494
1073668
1073846
1074030
1074218
1074396
1074574
1074752
1074918
1075086
1075254
1075424
1075584
1075746
1075914
1076092
1076278
1076464
1076650
1076834
1077002
1077176
1077344
1077514
1077682
1077852
1078024
1078198
1078360
1078524
1078684
1078844
1079026
1079212
1079408
1079612
1079814
1080020
1080220
1080418
1080606
1080786
1080964
1081142
1081324
1081506
1081692
1081886
1082088
1082290
1082486
1082694
1082898
1083110
1083320
1083528
1083726
1083918
1084106
1084284
1084456
1084628
1084800
1084974
1085160
1085360
1085572
1085790
1086004
1086196
1086396
1086596
1086790
1086998
1087208
1087412
1087622
1087830
1088024
1088226
1088430
1088630
1088824
1089026
1089226
1089436
1089648
1089862
1090056
1090244
1090434
1090624
1090818
1091016
1091204
1091386
1091568
1091752
1091930
1092096
1092262
1092428
1092600
1092776
1092944
1093108
1093272
1093430
1093584
1093736
1093890
1094044
1094196
1094344
1094494
1094640
1094782
1094932
1095098
1095276
1095454
1095636
1095838
1096048
1096252
1096462
1096674
1096888
1097104
1097304
1097502
1097698
1097894
1098086
1098274
1098448
1098622
1098792
1098964
1099136
1099308
1099482
1099662
1099850
1100042
1100230
1100414
1100598
1100780
1100958
1101138
1101312
1101488
1101662
1101830
1101990
1102154
1102326
1102494
1102672
1102850
1103030
1103212
1103388
1103572
1103758
1103946
1104132
1104320
1104508
1104694
1104866
1105036
1105202
1105380
1105556
1105732
1105922
1106112
1106298
1106480
1106668
1106856
1107050
1107242
1107432
1107606
1107784
1107962
1108146
1108336
1108524
1108702
1108874
1109034
1109204
1109380
1109548
1109734
1109918
1110100
1110280
1110466
1110642
1110824
1110994
1111164
1111336
1111502
1111660
1111822
1111986
1112148
1112324
1112500
1112664
1112826
1112992
1113160
1113332
1113502
1113674
1113846
1114018
1114190
1114360
1114536
1114712
1114880
1115054
1115234
1115404
1115584
1115768
1115942
1116120
1116298
1116472
1116636
1116804
1116970
1117128
1117290
1117454
1117618
1117776
1117924
1118074
1118224
1118368
1118510
1118656
1118800
1118946
1119088
1119226
1119360
1119492
1119626
1119758
1119888
1120018
1120152
1120288
1120426
1120556
1120686
1120820
1120956
1121100
1121252
1121406
1121564
1121718
1121864
1122008
1122148
1122282
1122418
1122552
1122680
1122808
1122936
1123066
1123190
1123314
1123438
1123562
1123686
1123806
1123924
1124044
1124164
1124282
1124398
1124516
1124632
1124748
1124864
1124978
1125092
1125206
1125320
1125434
1125546
1125658
1125770
1125884
1125996
1126108
1126218
1126330
1126442
1126554
1126664
1126776
1126886
1126996
1127106
1127216
1127326
1127436
1127544
1127654
1127766
1127878
1127992
1128108
1128226
1128346
1128472
1128596
1128724
1128850
1128978
1129102
1129230
1129360
1129490
1129616
1129742
1129868
1129996
1130124
1130248
1130374
1130498
1130620
1130744
1130868
1130994
1131118
1131242
1131370
1131500
1131634
1131766
1131896
1132028
1132160
1132290
1132426
1132566
1132712
1132850
1132984
1133118
1133250
1133376
1133504
1133636
1133768
1133902
1134048
1134198
1134358
1134504
1134654
1134804
1134954
1135104
1135248
1135388
1135528
1135664
1135796
1135928
1136064
1136234
1136400
1136570
1136740
1136906
1137076
1137244
1137412
1137586
1137756
1137932
1138104
1138278
1138446
1138604
1138760
1138912
1139068
1139224
1139378
1139530
1139690
1139848
1140010
1140180
1140342
1140490
1140652
1140820
1140976
1141148
1141316
1141488
1141654
1141812
1141966
1142118
1142266
1142418
1142568
1142724
1142904
1143092
1143276
1143456
1143640
1143832
1144016
1144208
1144408
1144592
1144788
1144982
1145176
1145378
1145570
1145770
1145984
1146200
1146412
1146614
1146802
1146996
1147194
1147402
1147590
1147776
1147968
1148180
1148410
1148634
1148860
1149092
1149316
1149542
1149788
1150028
1150282
1150544
1150784
1151036
1151288
1151534
1151750
1151964
1152182
1152392
1152612
1152830
1153036
1153244
1153454
1153646
1153842
1154032
1154212
1154400
1154598
1154804
1154996
1155188
1155390
1155596
1155800
1156020
1156224
1156438
1156654
1156872
1157080
1157290
1157514
1157736
1157950
1158168
1158372
1158572
1158776
1158978
1159194
1159420
1159654
1159878
1160114
1160352
1160588
1160836
1161080
1161300
1161522
1161754
1162000
1162238
1162452
1162650
1162842
1163050
1163252
1163470
1163684
1163902
1164126
1164344
1164576
1164804
1165036
1165272
1165500
1165724
1165938
1166138
1166316
1166500
1166662
1166832
1167022
1167224
1167418
1167620
1167824
1168022
1168224
1168426
1168630
1168820
1168996
1169182
1169362
1169548
1169726
1169898
1170070
1170266
1170456
1170644
1170842
1171038
1171236
1171428
1171608
1171792
1171974
1172150
1172324
1172506
1172688
1172864
1173040
1173224
1173414
1173620
1173808
1174000
1174192
1174380
1174570
1174758
1174942
1175116
1175298
1175492
1175684
1175886
1176080
1176280
1176482
1176686
1176888
1177084
1177270
1177462
1177654
1177836
1178022
1178208
1178388
1178568
1178750
1178938
1179130
1179310
1179498
1179680
1179858
1180034
1180212
1180382
1180558
1180722
1180894
1181068
1181238
1181410
1181592
1181788
1181980
1182166
1182358
1182540
1182728
1182914
1183096
1183276
1183464
1183640
1183824
1184002
1184180
1184362
1184524
1184698
1184868
1185032
1185194
1185364
1185538
1185706
1185892
1186076
1186274
1186458
1186652
1186860
1187060
1187260
1187446
1187644
1187824
1188010
1188190
1188374
1188556
1188724
1188900
1189074
1189242
1189420
1189588
1189776
1189958
1190142
1190340
1190534
1190726
1190928
1191132
1191324
1191518
1191696
1191886
1192084
1192264
1192448
1192630
1192810
1192984
1193168
1193354
1193536
1193710
1193876
1194044
1194212
1194374
1194540
1194710
1194868
1195034
1195214
1195396
1195564
1195722
1195882
1196052
1196222
1196386
1196560
1196742
1196926
1197122
1197320
1197510
1197696
1197888
1198070
1198258
1198450
1198640
1198828
1199020
1199204
1199392
1199582
1199762
1199954
1200146
1200336
1200520
1200708
1200894
1201080
1201250
1201424
1201594
1201762
1201934
1202108
1202292
1202478
1202666
1202844
1203020
1203194
1203370
1203546
1203718
1203896
1204092
1204298
1204504
1204710
1204898
1205078
1205262
1205454
1205656
1205866
1206078
1206282
1206488
1206686
1206884
1207076
1207264
1207446
1207634
1207832
1208022
1208226
1208438
1208650
1208840
1209022
1209202
1209392
1209588
1209798
1210008
1210212
1210414
1210608
1210794
1210982
1211174
1211370
1211568
1211766
1211950
1212130
1212300
1212468
1212664
1212866
1213088
1213306
1213518
1213722
1213936
1214162
1214390
1214616
1214814
1215012
1215220
1215440
1215654
1215890
1216134
1216370
1216618
1216870
1217108
1217344
1217554
1217764
1217968
1218166
1218374
1218582
1218784
1218988
1219198
1219412
1219614
1219824
1220034
1220248
1220452
1220656
1220870
1221072
1221278
1221494
1221690
1221900
1222118
1222334
1222532
1222730
1222934
1223138
1223338
1223522
1223710
1223904
1224098
1224292
1224472
1224650
1224814
1224986
1225182
1225372
1225564
1225760
1225964
1226174
1226378
1226576
1226780
1226986
1227194
1227384
1227578
1227778
1227966
1228152
1228358
1228578
1228812
1229030
1229256
1229476
1229684
1229884
1230066
1230246
1230430
1230626
1230830
1231036
1231234
1231436
1231640
1231844
1232050
1232240
1232436
1232636
1232836
1233040
1233244
1233444
1233648
1233852
1234050
1234234
1234418
1234600
1234782
1234968
1235156
1235342
1235536
1235738
1235946
1236144
1236334
1236528
1236726
1236926
1237110
1237304
1237502
1237704
1237900
1238086
1238268
1238450
1238638
1238832
1239032
1239232
1239424
1239620
1239818
1240006
1240204
1240404
1240606
1240806
1240990
1241170
1241350
1241522
1241706
1241900
1242112
1242320
1242532
1242754
1242976
1243198
1243396
1243596
1243790
1243980
1244176
1244378
1244588
1244796
1245010
1245224
1245436
1245642
1245856
1246068
1246276
1246484
1246694
1246902
1247092
1247280
1247466
1247648
1247828
1248012
1248204
1248400
1248594
1248780
1248972
1249166
1249364
1249558
1249752
1249948
1250140
1250334
1250516
1250700
1250884
1251070
1251248
1251420
1251588
1251748
1251914
1252086
1252256
1252434
1252618
1252796
1252976
1253160
1253348
1253540
1253720
1253904
1254088
1254278
1254462
1254650
1254834
1255004
1255178
1255366
1255554
1255762
1255972
1256166
1256378
1256584
1256776
1256968
1257158
1257350
1257540
1257714
1257890
1258078
1258244
1258406
1258582
1258756
1258914
1259074
1259242
1259404
1259556
1259704
1259848
1259988
1260124
1260262
1260392
1260526
1260660
1260806
1260964
1261114
1261258
1261396
1261536
1261670
1261806
1261940
1262074
1262206
1262336
1262468
1262596
1262724
1262854
1262984
1263114
1263244
1263372
1263500
1263628
1263758
1263886
1264014
1264144
1264274
1264406
1264538
1264670
1264800
1264932
1265062
1265192
1265322
1265452
1265580
1265714
1265846
1265982
1266110
1266244
1266376
1266506
1266638
1266768
1266898
1267034
1267176
1267316
1267460
1267612
1267768
1267934
1268088
1268254
1268418
1268588
1268754
1268918
1269080
1269246
1269412
1269586
1269750
1269914
1270080
1270242
1270408
1270574
1270738
1270902
1271068
1271232
1271398
1271570
1271748
1271938
1272122
1272314
1272506
1272696
1272890
1273084
1273268
1273450
1273636
1273820
1274000
1274184
1274364
1274550
1274742
1274940
1275136
1275320
1275506
1275694
1275886
1276076
1276258
1276442
1276638
1276826
1277008
1277198
1277384
1277488
1277782
1277972
1278152
1278328
1278500
1278664
1278820
1278974
1279130
1279288
1279444
1279600
1279758
1279930
1280106
1280282
1280486
1280700
1280918
1281138
1281352
1281552
1281762
1281968
1282170
1282358
1282536
1282718
1282898
1283078
1283252
1283432
1283608
1283792
1283972
1284146
1284326
1284504
1284680
1284864
1285050
1285228
1285406
1285628
1285828
1286010
1286206
1286404
1286576
1286738
1286894
1287042
1287188
1287330
1287468
1287606
1287742
1287878
1288012
1288146
1288288
1288444
1288618
1288792
1288964
1289134
1289304
1289474
1289648
1289828
1290026
1290228
1290432
1290628
1290816
1291004
1291188
1291372
1291556
1291740
1291930
1292116
1292294
1292476
1292656
1292840
1293022
1293204
1293394
1293586
1293778
1293966
1294150
1294324
1294498
1294668
1294838
1295008
1295174
1295336
1295506
1295674
1295846
1296026
1296214
1296406
1296594
1296778
1296968
1297162
1297358
1297542
1297730
1297922
1298118
1298308
1298488
1298670
1298854
1299046
1299238
1299434
1299640
1299838
1300040
1300266
1300454
1300646
1300854
1301046
1301222
1301388
1301546
1301698
1301846
1301990
1302132
1302268
1302408
1302544
1302690
1302850
1303002
1303150
1303308
1303478
1303654
1303816
1303980
1304144
1304324
1304498
1304672
1304852
1305028
1305208
1305386
1305564
1305740
1305916
1306092
1306260
1306430
1306596
1306766
1306938
1307102
1307262
1307424
1307582
1307744
1307908
1308066
1308224
1308378
1308538
1308692
1308852
1309010
1309164
1309314
1309462
1309608
1309756
1309900
1310046
1310198
1310354
1310514
1310674
1310834
1310988
1311148
1311306
1311474
1311640
1311810
1311972
1312142
1312310
1312482
1312658
1312828
1313002
1313168
1313330
1313488
1313648
1313804
1313962
1314124
1314282
1314434
1314586
1314734
1314882
1315024
1315170
1315318
1315472
1315622
1315780
1315948
1316114
1316284
1316458
1316630
1316812
1316994
1317172
1317350
1317532
1317698
1317868
1318036
1318200
1318362
1318522
1318688
1318850
1319012
1319178
1319348
1319528
1319698
1319872
1320056
1320246
1320442
1320634
1320816
1321004
1321192
1321370
1321556
1321732
1321916
1322106
1322298
1322496
1322700
1322902
1323104
1323308
1323510
1323722
1323924
1324110
1324298
1324480
1324660
1324848
1325052
1325244
1325456
1325672
1325880
1326086
1326312
1326534
1326746
1326974
1327186
1327402
1327616
1327824
1328020
1328232
1328436
1328636
1328850
1329056
1329264
1329474
1329684
1329908
1330120
1330324
1330532
1330728
1330938
1331138
1331354
1331572
1331776
1331992
1332208
1332420
1332624
1332814
1333004
1333214
1333432
1333642
1333864
1334092
1334302
1334510
1334714
1334932
1335156
1335372
1335596
1335832
1336058
1336276
1336514
1336754
1336964
1337180
1337396
1337598
1337824
1338038
1338238
1338446
1338668
1338896
1339102
1339320
1339556
1339782
1340026
1340268
1340500
1340714
1340942
1341176
1341416
1341644
1341856
1342074
1342284
1342488
1342694
1342902
1343116
1343316
1343524
1343742
1343960
1344174
1344398
1344628
1344842
1345056
1345278
1345502
1345708
1345930
1346150
1346356
1346576
1346796
1347004
1347228
1347452
1347662
1347882
1348102
1348312
1348540
1348774
1348990
1349210
1349438
1349646
1349860
1350076
1350286
1350482
1350678
1350868
1351056
1351258
1351466
1351672
1351880
1352096
1352306
1352508
1352714
1352934
1353142
1353344
1353562
1353782
1353982
1354190
1354414
1354640
1354848
1355068
1355294
1355522
1355728
1355944
1356160
1356364
1356568
1356782
1357004
1357230
1357438
1357658
1357886
1358094
1358302
1358520
1358750
1358962
1359180
1359406
1359626
1359830
1360044
1360264
1360484
1360704
1360930
1361142
1361352
1361574
1361788
1361998
1362216
1362424
1362638
1362856
1363062
1363262
1363464
1363658
1363860
1364054
1364252
1364468
1364662
1364864
1365056
1365262
1365466
1365676
1365896
1366110
1366314
1366530
1366748
1366956
1367178
1367408
1367626
1367854
1368086
1368298
1368524
1368754
1368964
1369190
1369416
1369654
1369888
1370106
1370326
1370546
1370760
1370970
1371170
1371354
1371532
1371708
1371896
1372078
1372274
1372488
1372700
1372912
1373130
1373346
1373564
1373776
1373978
1374168
1374366
1374572
1374768
1374978
1375194
1375402
1375616
1375842
1376062
1376306
1376548
1376784
1377028
1377254
1377480
1377706
1377924
1378134
1378326
1378518
1378712
1378898
1379084
1379268
1379470
1379692
1379910
1380126
1380328
1380518
1380708
1380896
1381080
1381256
1381428
1381592
1381762
1381934
1382106
1382274
1382432
1382584
1382744
1382904
1383082
1383254
1383450
1383656
1383884
1384114
1384322
1384538
1384750
1384962
1385178
1385370
1385570
1385766
1385970
1386200
1386418
1386644
1386872
1387092
1387334
1387578
1387816
1388044
1388252
1388458
1388668
1388884
1389094
1389300
1389502
1389700
1389896
1390082
1390270
1390476
1390678
1390904
1391122
1391326
1391554
1391794
1392024
1392268
1392486
1392712
1392946
1393180
1393410
1393624
1393846
1394074
1394294
1394514
1394726
1394920
1395118
1395318
1395528
1395736
1395942
1396150
1396360
1396550
1396740
1396930
1397130
1397336
1397538
1397730
1397912
1398096
1398276
1398466
1398664
1398886
1399092
1399320
1399554
1399778
1400006
1400232
1400456
1400704
1400920
1401122
1401316
1401502
1401686
1401854
1402020
1402176
1402328
1402476
1402620
1402760
1402896
1403032
1403168
1403300
1403432
1403564
1403704
1403842
1403990
1404146
1404310
1404494
1404686
1404888
1405090
1405296
1405482
1405668
1405848
1406024
1406202
1406372
1406546
1406712
1406888
1407064
1407244
1407426
1407622
1407810
1408016
1408218
1408414
1408628
1408842
1409050
1409274
1409514
1409734
1409964
1410196
1410408
1410638
1410868
1411082
1411318
1411552
1411760
1411984
1412200
1412418
1412620
1412818
1413008
1413198
1413400
1413598
1413812
1414036
1414242
1414456
1414694
1414912
1415168
1415426
1415682
1415942
1416202
1416442
1416660
1416878
1417086
1417282
1417478
1417662
1417854
1418044
1418242
1418432
1418664
1418904
1419114
1419332
1419540
1419772
1419998
1420214
1420444
1420670
1420898
1421138
1421380
1421618
1421834
1422060
1422298
1422536
1422760
1422966
1423182
1423404
1423608
1423836
1424064
1424292
1424540
1424794
1425028
1425264
1425504
1425716
1425944
1426170
1426376
1426576
1426796
1427010
1427226
1427484
1427738
1427990
1428254
1428500
1428756
1429020
1429266
1429522
1429776
1430044
1430304
1430546
1430784
1431026
1431266
1431508
1431758
1432004
1432246
1432494
1432740
1432982
1433230
1433478
1433724
1433966
1434204
1434438
1434656
1434874
1435096
1435310
1435528
1435738
1435940
1436148
1436356
1436564
1436764
1436968
1437176
1437390
1437598
1437802
1437994
1438194
1438384
1438566
1438754
1438938
1439130
1439346
1439558
1439778
1439982
1440184
1440390
1440596
1440818
1441042
1441248
1441456
1441666
1441868
1442072
1442282
1442498
1442710
1442904
1443102
1443296
1443506
1443726
1443942
1444146
1444348
1444570
1444796
1445022
1445264
1445504
1445746
1445998
1446246
1446506
1446756
1447008
1447246
1447480
1447740
1447974
1448220
1448464
1448710
1448960
1449196
1449436
1449662
1449908
1450156
1450404
1450646
1450860
1451086
1451312
1451532
1451748
1451958
1452166
1452364
1452558
1452752
1452950
1453166
1453376
1453616
1453854
1454096
1454338
1454564
1454786
1455008
1455230
1455448
1455650
1455848
1456058
1456258
1456476
1456712
1456948
1457178
1457390
1457604
1457832
1458048
1458266
1458502
1458746
1458990
1459222
1459442
1459662
1459884
1460102
1460310
1460522
1460742
1460954
1461158
1461386
1461604
1461844
1462076
1462304
1462512
1462726
1462966
1463212
1463436
1463650
1463858
1464062
1464272
1464494
1464720
1464942
1465164
1465388
1465592
1465804
1466004
1466222
1466438
1466650
1466880
1467104
1467338
1467588
1467828
1468080
1468324
1468560
1468808
1469036
1469270
1469512
1469732
1469948
1470206
1470474
1470742
1471004
1471248
1471494
1471740
1471976
1472216
1472458
1472698
1472940
1473188
1473432
1473668
1473902
1474138
1474370
1474594
1474826
1475056
1475284
1475522
1475758
1476002
1476248
1476492
1476732
1476950
1477176
1477402
1477632
1477868
1478106
1478346
1478590
1478818
1479054
1479292
1479526
1479766
1480014
1480258
1480488
1480720
1480954
1481182
1481420
1481666
1481904
1482154
1482410
1482664
1482910
1483162
1483414
1483652
1483892
1484132
1484358
1484582
1484806
1485044
1485290
1485536
1485798
1486048
1486296
1486540
1486786
1487030
1487260
1487496
1487732
1487966
1488196
1488414
1488640
1488874
1489108
1489330
1489562
1489784
1490012
1490244
1490484
1490720
1490946
1491160
1491376
1491584
1491784
1491994
1492212
1492422
1492630
1492842
1493100
1493330
1493574
1493826
1494062
1494306
1494554
1494794
1495044
1495292
1495542
1495804
1496054
1496282
1496512
1496746
1496970
1497190
1497402
1497608
1497798
1497994
1498192
1498392
1498594
1498786
1498988
1499184
1499386
1499594
1499798
1500010
1500230
1500456
1500674
1500876
1501088
1501294
1501522
1501738
1501958
1502186
1502430
1502668
1502902
1503136
1503364
1503576
1503802
1504022
1504240
1504464
1504686
1504912
1505122
1505334
1505554
1505760
1505974
1506206
1506444
1506668
1506910
1507150
1507384
1507624
1507844
1508066
1508294
1508532
1508750
1508956
1509158
1509366
1509566
1509762
1509950
1510140
1510322
1510508
1510690
1510872
1511050
1511224
1511398
1511570
1511742
1511902
1512060
1512214
1512378
1512562
1512752
1512958
1513168
1513378
1513606
1513860
1514120
1514368
1514612
1514852
1515084
1515304
1515502
1515688
1515876
1516066
1516266
1516472
1516684
1516900
1517116
1517330
1517534
1517742
1517926
1518110
1518300
1518498
1518704
1518916
1519120
1519312
1519506
1519704
1519910
1520124
1520334
1520544
1520752
1520944
1521142
1521344
1521554
1521766
1521980
1522188
1522392
1522598
1522796
1522984
1523180
1523384
1523596
1523804
1524028
1524248
1524470
1524686
1524882
1525082
1525286
1525490
1525692
1525882
1526082
1526284
1526492
1526694
1526882
1527078
1527282
1527492
1527702
1527912
1528120
1528322
1528520
1528706
1528894
1529090
1529296
1529504
1529698
1529904
1530116
1530344
1530570
1530778
1530994
1531206
1531426
1531654
1531876
1532092
1532292
1532480
1532672
1532872
1533086
1533286
1533504
1533732
1533942
1534164
1534394
1534640
1534876
1535108
1535328
1535546
1535764
1535974
1536178
1536378
1536590
1536812
1537020
1537214
1537418
1537638
1537866
1538064
1538260
1538460
1538658
1538862
1539106
1539358
1539604
1539838
1540058
1540270
1540478
1540680
1540872
1541060
1541244
1541428
1541608
1541792
1541974
1542170
1542392
1542622
1542860
1543092
1543326
1543562
1543782
1544014
1544244
1544460
1544660
1544868
1545084
1545308
1545534
1545758
1545978
1546188
1546390
1546582
1546776
1546972
1547174
1547362
1547560
1547762
1547980
1548190
1548408
1548630
1548852
1549056
1549262
1549470
1549674
1549874
1550072
1550268
1550462
1550650
1550846
1551044
1551252
1551458
1551652
1551856
1552068
1552282
1552504
1552718
1552938
1553160
1553378
1553590
1553802
1554008
1554198
1554392
1554594
1554792
1554996
1555190
1555382
1555602
1555838
1556072
1556300
1556524
1556748
1556966
1557176
1557372
1557574
1557774
1557964
1558166
1558382
1558614
1558848
1559080
1559304
1559518
1559714
1559918
1560124
1560330
1560530
1560726
1560912
1561098
1561284
1561474
1561668
1561866
1562074
1562298
1562528
1562758
1562980
1563200
1563398
1563588
1563778
1563962
1564146
1564338
1564522
1564722
1564930
1565136
1565346
1565564
1565782
1566000
1566210
1566420
1566622
1566812
1567010
1567210
1567422
1567642
1567874
1568080
1568300
1568538
1568772
1569006
1569230
1569444
1569662
1569876
1570090
1570304
1570512
1570706
1570910
1571118
1571340
1571562
1571764
1571982
1572196
1572400
1572596
1572788
1572976
1573154
1573330
1573504
1573674
1573846
1574014
1574182
1574342
1574510
1574674
1574842
1575018
1575204
1575388
1575566
1575752
1575944
1576132
1576328
1576526
1576724
1576926
1577128
1577324
1577522
1577722
1577934
1578132
1578324
1578520
1578718
1578914
1579100
1579292
1579490
1579686
1579880
1580082
1580284
1580488
1580690
1580888
1581074
1581260
1581450
1581636
1581822
1582006
1582208
1582422
1582630
1582842
1583064
1583300
1583544
1583786
1584016
1584236
1584442
1584634
1584830
1585028
1585214
1585418
1585626
1585846
1586050
1586248
1586454
1586654
1586862
1587076
1587276
1587482
1587700
1587926
1588148
1588372
1588574
1588772
1588988
1589200
1589400
1589628
1589854
1590078
1590278
1590496
1590738
1590948
1591168
1591390
1591596
1591810
1592034
1592254
1592466
1592672
1592860
1593048
1593238
1593468
1593690
1593904
1594118
1594344
1594590
1594800
1595004
1595214
1595420
1595616
1595818
1596012
1596200
1596386
1596572
1596746
1596926
1597110
1597292
1597486
1597676
1597900
1598124
1598350
1598568
1598778
1598974
1599178
1599380
1599580
1599768
1599960
1600150
1600338
1600520
1600700
1600880
1601062
1601238
1601418
1601600
1601786
1601966
1602154
1602348
1602538
1602734
1602946
1603160
1603364
1603562
1603760
1603956
1604142
1604334
1604528
1604714
1604902
1605100
1605300
1605488
1605676
1605868
1606058
1606254
1606450
1606638
1606832
1607028
1607222
1607416
1607618
1607828
1608048
1608262
1608462
1608664
1608870
1609072
1609268
1609468
1609670
1609864
1610058
1610252
1610448
1610642
1610836
1611020
1611198
1611378
1611566
1611758
1611948
1612140
1612326
1612502
1612678
1612850
1613024
1613194
1613366
1613540
1613712
1613886
1614072
1614256
1614454
1614658
1614858
1615052
1615236
1615432
1615624
1615806
1615994
1616186
1616374
1616558
1616740
1616922
1617104
1617288
1617476
1617664
1617850
1618030
1618216
1618406
1618610
1618814
1619010
1619210
1619424
1619622
1619842
1620064
1620272
1620494
1620708
1620920
1621136
1621350
1621548
1621756
1621960
1622160
1622362
1622572
1622782
1622978
1623184
1623386
1623582
1623786
1623992
1624190
1624388
1624586
1624778
1624964
1625152
1625344
1625530
1625718
1625910
1626108
1626294
1626484
1626674
1626864
1627046
1627228
1627412
1627592
1627780
1627986
1628188
1628386
1628578
1628774
1628970
1629158
1629350
1629544
1629734
1629920
1630116
1630310
1630504
1630706
1630906
1631106
1631306
1631494
1631688
1631882
1632072
1632258
1632444
1632636
1632826
1633014
1633204
1633388
1633578
1633778
1633976
1634170
1634362
1634554
1634744
1634922
1635102
1635284
1635476
1635666
1635872
1636082
1636284
1636482
1636680
1636874
1637078
1637288
1637488
1637680
1637888
1638092
1638284
1638488
1638696
1638906
1639112
1639302
1639494
1639684
1639864
1640046
1640218
1640398
1640586
1640762
1640950
1641138
1641332
1641528
1641720
1641910
1642084
1642258
1642428
1642606
1642780
1642986
1643182
1643376
1643576
1643794
1644014
1644226
1644446
1644654
1644852
1645048
1645230
1645406
1645582
1645762
1645938
1646116
1646288
1646470
1646650
1646834
1647010
1647192
1647374
1647554
1647742
1647918
1648092
1648262
1648430
1648604
1648782
1648956
1649126
1649306
1649488
1649666
1649852
1650036
1650234
1650416
1650596
1650776
1650954
1651126
1651300
1651478
1651668
1651862
1652084
1652314
1652530
1652770
1652998
1653244
1653474
1653704
1653950
1654202
1654436
1654684
1654976
1655244
1655494
1655740
1655978
1656198
1656438
1656698
1656936
1657178
1657422
1657654
1657882
1658114
1658350
1658576
1658810
1659042
1659266
1659504
1659734
1659954
1660182
1660416
1660650
1660874
1661108
1661342
1661572
1661802
1662040
1662282
1662508
1662742
1662974
1663198
1663426
1663658
1663890
1664122
1664364
1664608
1664842
1665070
1665292
1665518
1665742
1665968
1666180
1666390
1666596
1666792
1666996
1667202
1667408
1667604
1667802
1667994
1668186
1668376
1668560
1668744
1668930
1669120
1669304
1669492
1669686
1669868
1670058
1670254
1670444
1670626
1670810
1670988
1671164
1671336
1671506
1671676
1671842
1672012
1672166
1672328
1672482
1672638
1672786
1672936
1673084
1673230
1673372
1673512
1673650
1673786
1673920
1674052
1674180
1674310
1674448
1674594
1674742
1674880
1675020
1675154
1675300
1675452
1675616
1675778
1675966
1676152
1676350
1676548
1676762
1676978
1677194
1677414
1677618
1677824
1678024
1678216
1678412
1678610
1678798
1678984
1679172
1679356
1679540
1679724
1679906
1680088
1680272
1680452
1680630
1680804
1680980
1681162
1681344
1681526
1681704
1681884
1682068
1682254
1682438
1682624
1682810
1682992
1683176
1683360
1683544
1683722
1683906
1684090
1684270
1684450
1684636
1684824
1685006
1685194
1685376
1685562
1685754
1685942
1686126
1686322
1686518
1686706
1686898
1687092
1687274
1687462
1687650
1687830
1688012
1688190
1688364
1688540
1688718
1688896
1689072
1689258
1689448
1689636
1689824
1690018
1690200
1690384
1690566
1690738
1690922
1691100
1691272
1691444
1691620
1691792
1691960
1692126
1692298
1692472
1692656
1692842
1693024
1693216
1693410
1693604
1693792
1693984
1694180
1694374
1694558
1694748
1694938
1695126
1695322
1695520
1695718
1695926
1696122
1696316
1696518
1696712
1696902
1697094
1697282
1697466
1697656
1697854
1698048
1698236
1698434
1698630
1698820
1699020
1699220
1699418
1699626
1699838
1700054
1700270
1700474
1700684
1700902
1701114
1701324
1701546
1701772
1701984
1702202
1702424
1702634
1702852
1703068
1703268
1703480
1703694
1703894
1704100
1704308
1704510
1704710
1704912
1705104
1705292
1705482
1705676
1705860
1706048
1706238
1706422
1706618
1706810
1707000
1707194
1707392
1707584
1707778
1707976
1708166
1708358
1708560
1708758
1708954
1709152
1709344
1709536
1709740
1709940
1710146
1710360
1710562
1710768
1710978
1711178
1711380
1711582
1711774
1711964
1712158
1712344
1712530
1712716
1712904
1713088
1713278
1713480
1713686
1713884
1714094
1714308
1714520
1714722
1714930
1715142
1715340
1715538
1715746
1715946
1716136
1716334
1716534
1716730
1716918
1717108
1717302
1717490
1717680
1717876
1718082
1718280
1718486
1718696
1718904
1719108
1719316
1719528
1719732
1719940
1720144
1720342
1720536
1720728
1720922
1721104
1721290
1721482
1721678
1721858
1722048
1722250
1722464
1722656
1722852
1723062
1723280
1723478
1723684
1723910
1724132
1724338
1724556
1724798
1725046
1725270
1725516
1725780
1726012
1726258
1726522
1726754
1726986
1727234
1727464
1727706
1727968
1728208
1728456
1728714
1728934
1729170
1729390
1729598
1729822
1730030
1730244
1730486
1730730
1730970
1731208
1731426
1731636
1731860
1732088
1732298
1732518
1732748
1732968
1733196
1733446
1733686
1733932
1734146
1734360
1734578
1734790
1734988
1735190
1735390
1735576
1735762
1735942
1736108
1736280
1736452
1736626
1736794
1736974
1737158
1737340
1737518
1737702
1737892
1738084
1738274
1738474
1738670
1738866
1739066
1739262
1739450
1739640
1739822
1740002
1740178
1740364
1740554
1740746
1740934
1741136
1741342
1741536
1741730
1741934
1742138
1742334
1742534
1742740
1742948
1743150
1743364
1743564
1743762
1743986
1744206
1744414
1744610
1744802
1744988
1745174
1745358
1745534
1745710
1745892
1746078
1746256
1746444
1746638
1746838
1747032
1747230
1747430
1747632
1747826
1748024
1748222
1748414
1748600
1748798
1749000
1749208
1749408
1749608
1749820
1750042
1750256
1750466
1750676
1750884
1751074
1751270
1751466
1751654
1751852
1752056
1752252
1752450
1752658
1752850
1753054
1753262
1753470
1753676
1753872
1754076
1754272
1754466
1754668
1754876
1755078
1755270
1755468
1755670
1755876
1756082
1756296
1756508
1756710
1756904
1757102
1757302
1757502
1757708
1757920
1758142
1758350
1758562
1758776
1759002
1759220
1759444
1759666
1759880
1760084
1760286
1760468
1760652
1760838
1761030
1761218
1761412
1761618
1761826
1762032
1762234
1762434
1762634
1762818
1763002
1763182
1763362
1763534
1763708
1763884
1764068
1764246
1764430
1764624
1764810
1764990
1765182
1765374
1765570
1765778
1765976
1766178
1766380
1766568
1766758
1766952
1767148
1767340
1767522
1767704
1767882
1768072
1768266
1768454
1768652
1768846
1769056
1769270
1769476
1769680
1769894
1770104
1770312
1770530
1770740
1770944
1771150
1771352
1771554
1771760
1771960
1772160
1772362
1772550
1772740
1772936
1773134
1773322
1773514
1773710
1773900
1774088
1774282
1774476
1774672
1774870
1775076
1775290
1775492
1775704
1775924
1776136
1776344
1776556
1776758
1776964
1777172
1777384
1777590
1777804
1778024
1778236
1778450
1778664
1778880
1779084
1779298
1779508
1779708
1779910
1780112
1780312
1780516
1780716
1780920
1781138
1781352
1781556
1781762
1781964
1782170
1782372
1782580
1782776
1782972
1783166
1783364
1783556
1783752
1783952
1784146
1784346
1784548
1784740
1784936
1785128
1785314
1785504
1785696
1785888
1786070
1786264
1786458
1786648
1786844
1787050
1787260
1787484
1787710
1787926
1788140
1788348
1788556
1788752
1788950
1789146
1789344
1789544
1789752
1789950
1790154
1790346
1790542
1790736
1790934
1791118
1791300
1791484
1791666
1791844
1792020
1792192
1792360
1792532
1792726
1792920
1793108
1793298
1793498
1793694
1793920
1794144
1794350
1794572
1794794
1795002
1795206
1795410
1795602
1795798
1795990
1796192
1796396
1796586
1796776
1796960
1797144
1797326
1797506
1797678
1797856
1798036
1798216
1798384
1798558
1798738
1798916
1799108
1799300
1799492
1799680
1799864
