peaks
141
508
858
1230
1616
1976
2342
2704
3064
3410
3782
4162
4524
4902
5286
5650
6040
6394
6734
7078
7440
7774
8110
8478
8838
9198
9576
9936
10278
10648
11016
11360
11720
12074
12418
12762
13128
13480
13820
14180
14536
14878
15222
15576
15912
16256
16602
16930
17252
17588
17932
18268
18628
18986
19338
19686
20044
20386
20732
21098
21440
21790
22134
22464
22786
23130
23522
23888
24270
24652
25008
25390
25772
26120
26476
26828
27172
27550
27914
28260
28624
28986
29344
29698
30058
30404
30742
31072
31412
31776
32130
32522
32898
33228
33556
33890
34234
34648
35078
35462
35840
36236
36612
36988
37354
37714
38064
38426
38784
39128
39474
39842
40212
40588
40962
41334
41700
42064
42428
42780
43136
43482
43816
44150
44490
44846
45222
45544
45866
46198
46524
46842
47188
47544
47872
48214
48582
48924
49286
49660
50024
50398
50762
51126
51482
51838
52182
52528
52886
53236
53612
53982
54348
54726
55086
55438
55824
56188
56534
56884
57226
57554
57892
58238
58590
58950
59342
59724
60104
60498
60876
61236
61608
61970
62328
62706
63058
63396
63738
64080
64438
64784
65148
65504
65852
66212
66562
66896
67246
67592
67914
68252
68594
68914
69276
69648
69988
70332
70682
71016
71370
71750
72124
72492
72854
73218
73566
73932
74296
74640
74996
75346
75688
76060
76416
76766
77130
77490
77828
78180
78532
78878
79226
79564
79892
80216
80544
80870
81238
81616
81998
82392
82772
83128
83488
83842
84174
84510
84846
85172
85508
85850
86178
86502
86840
87176
87496
87836
88184
88518
88842
89180
89516
89874
90222
90560
90914
91288
91650
92010
92350
92690
93032
93376
93720
94066
94414
94766
95100
95458
95806
96142
96494
96848
97180
97518
97858
98186
98540
98898
99246
99594
99936
100280
100614
100944
101274
101600
101932
102270
102614
102952
103282
103622
103966
104292
104630
104974
105302
105640
105994
106332
106690
107064
107428
107796
108148
108500
108860
109222
109592
109966
110316
110660
111032
111394
111774
112140
112490
112846
113212
113568
113932
114300
114654
115020
115378
115738
116080
116424
116776
117122
117464
117824
118162
118508
118858
119206
119538
119902
120224
120520
120770
121012
121258
121494
121738
121982
122224
122454
122674
122892
123102
123308
123516
123722
123920
124114
124306
124498
124686
124876
125054
125234
125410
125584
125760
125940
126132
126328
126522
126720
126930
127174
127444
127734
128018
128276
128522
128788
129048
129328
129582
129840
130168
130488
130840
131196
131560
131888
132210
132544
132862
133192
133558
133930
134286
134646
135002
135346
135718
136090
136456
136828
137206
137566
137930
138286
138626
138984
139356
139736
140140
140540
140928
141326
141720
142088
142480
142860
143212
143596
143948
144300
144688
145060
145398
145744
146098
146438
146780
147154
147506
147824
148166
148514
148836
149210
149584
149912
150258
150626
150950
151308
151676
152022
152386
152760
153104
153454
153824
154190
154550
154936
155296
155626
155976
156318
156654
156968
157304
157640
157974
158282
158620
158982
159292
159640
160052
160416
160810
161204
161578
161984
162368
162698
163028
163352
163646
163914
164182
164468
164800
165114
165480
165884
166256
166640
167010
167366
167746
168116
168478
168822
169176
169522
169860
170188
170538
170894
171248
171588
171944
172304
172624
172938
173252
173520
173788
174060
174320
174578
174840
175112
175374
175632
175888
176142
176386
176626
176868
177114
177358
177604
177850
178114
178414
178720
179016
179340
179688
180032
180364
180666
180958
181228
181478
181726
181986
182268
182578
182876
183044
183390
183688
183972
184248
184524
184796
185066
185320
185566
185804
186030
186252
186478
186714
187010
187308
187624
187904
188166
188416
188680
188960
189264
189548
189842
190162
190486
190648
190806
191124
191380
191622
191860
192092
192314
192536
192752
192964
193170
193372
193572
193774
193976
194170
194368
194570
194772
194976
195180
195374
195570
195770
195964
196164
196368
196560
196756
196954
197154
197352
197550
197738
197924
198114
198300
198486
198670
198850
199032
199216
199398
199588
199782
199976
200170
200370
200578
200780
200990
201194
201400
201600
201800
201998
202204
202416
202644
202876
203110
203340
203560
203774
203982
204190
204392
204596
204794
204994
205192
205392
205590
205792
205984
206180
206372
206564
206756
206952
207140
207330
207520
207712
207902
208094
208276
208462
208636
208814
208992
209174
209348
209518
209690
209856
210024
210192
210360
210524
210688
210854
211020
211194
211378
211574
211768
211960
212156
212350
212546
212738
212924
213108
213290
213468
213646
213824
214010
214222
214446
214670
214892
215122
215354
215584
215806
216026
216252
216480
216706
216928
217148
217366
217578
217780
217980
218174
218366
218562
218764
218978
219115
219420
219632
219850
220062
220278
220490
220710
220940
221166
221386
221604
221832
222072
222316
222554
222786
223034
223284
223530
223772
224012
224258
224496
224716
224930
225138
225344
225552
225756
225960
226168
226376
226592
226814
227044
227282
227518
227742
227968
228180
228386
228586
228784
228982
229182
229386
229594
229810
230026
230238
230450
230658
230862
231062
231260
231460
231656
231852
232046
232236
232426
232624
232820
233016
233220
233430
233630
233834
234034
234232
234426
234618
234806
234996
235180
235366
235550
235734
235922
236118
236316
236514
236718
236920
237126
237338
237546
237750
237952
238150
238348
238548
238738
238930
239118
239306
239494
239692
239912
240140
240358
240574
240784
240986
241182
241380
241574
241774
241976
242176
242374
242574
242770
242970
243176
243384
243594
243812
244038
244266
244492
244710
244930
245150
245370
245596
245816
246038
246258
246478
246698
246920
247144
247378
247608
247838
248076
248306
248528
248752
248974
249194
249404
249614
249824
250032
250242
250450
250660
250868
251082
251298
251520
251740
251958
252172
252384
252594
252796
252996
253198
253404
253610
253824
254032
254248
254470
254692
254912
255116
255320
255522
255720
255920
256126
256330
256538
256752
256970
257184
257394
257598
257800
258000
258200
258398
258596
258794
258996
259202
259406
259618
259824
260032
260240
260444
260642
260842
261034
261222
261410
261596
261782
261968
262150
262338
262536
262746
262958
263172
263380
263592
263808
264030
264244
264452
264652
264852
265052
265252
265454
265648
265848
266060
266274
266484
266692
266892
267092
267288
267482
267676
267872
268070
268292
268528
268766
269004
269234
269456
269664
269872
270072
270266
270454
270638
270828
271020
271212
271410
271610
271826
272048
272266
272494
272718
272940
273154
273372
273594
273812
274024
274232
274442
274648
274854
275050
275244
275442
275638
275838
276042
276244
276444
276654
276856
277066
277282
277484
277684
277876
278070
278258
278446
278618
278796
278972
279156
279344
279540
279732
279922
280118
280318
280530
280740
280936
281134
281336
281542
281756
281970
282182
282396
282610
282822
283032
283236
283432
283630
283828
284032
284254
284486
284710
284934
285170
285398
285620
285850
286060
286276
286496
286722
286954
287202
287460
287718
287978
288232
288490
288754
289020
289270
289512
289748
289998
290254
290500
290782
291058
291346
291594
291846
292106
292380
292670
292950
293214
293500
293806
294120
294438
294740
295012
295296
295582
295884
296186
296472
296770
297118
297484
297828
298168
298496
298800
299086
299364
299624
299866
300096
300328
300568
300816
301056
301376
301718
302040
302312
302594
302892
303192
303476
303754
304012
304282
304568
304888
305210
305526
305824
306110
306392
306658
306920
307172
307420
307650
307878
308098
308314
308528
308734
308942
309160
309430
309734
310032
310324
310606
310870
311116
311346
311568
311786
311998
312206
312424
312712
313020
313322
313598
313858
314106
314338
314562
314782
315002
315272
315598
315946
316250
316534
316830
317144
317448
317716
317984
318248
318516
318760
319012
319266
319524
319772
320022
320264
320498
320722
320930
321144
321366
321622
321908
322194
322472
322738
323000
323268
323538
323794
324048
324302
324564
324826
325086
325340
325598
325874
326172
326470
326740
327010
327282
327572
327854
328136
328398
328674
328956
329250
329556
329842
330128
330438
330770
331096
331372
331658
331956
332266
332554
332824
333104
333422
333752
334044
334334
334624
334906
335178
335430
335690
335946
336194
336448
336726
337008
337264
337536
337812
338102
338380
338652
338898
339144
339378
339602
339826
340066
340344
340622
340890
341148
341402
341648
341892
342126
342356
342588
342818
343048
343284
343552
343844
344124
344410
344684
344948
345204
345444
345678
345906
346126
346350
346580
346830
347074
347342
347608
347882
348154
348422
348674
348912
349156
349408
349678
349948
350226
350514
350806
351100
351380
351650
351934
352254
352548
352826
353080
353342
353620
353930
354240
354530
354802
355074
355338
355596
355848
356082
356312
356550
356796
357066
357334
357582
357826
358080
358332
358592
358844
359084
359336
359586
359846
360106
360350
360594
360826
361052
361284
361510
361738
361966
362212
362468
362732
362998
363266
363530
363800
364076
364358
364636
364886
365136
365370
365602
365834
366062
366294
366564
366906
367206
367508
367818
368152
368446
368728
369016
369322
369610
369884
370152
370424
370702
370994
371272
371562
371872
372188
372496
372800
373090
373380
373666
373954
374230
374494
374722
374956
375188
375420
375660
375902
376160
376442
376722
377014
377316
377624
377918
378202
378466
378720
378968
379214
379450
379690
379928
380162
380398
380630
380866
381110
381362
381608
381840
382070
382296
382528
382756
382982
383204
383430
383666
383908
384150
384382
384612
384846
385090
385334
385584
385836
386074
386312
386548
386792
387048
387308
387558
387792
388034
388280
388526
388768
389006
389236
389474
389722
389982
390238
390492
390734
390984
391244
391534
391828
392120
392392
392666
392956
393244
393530
393830
394122
394386
394642
394892
395134
395372
395608
395828
396052
396278
396508
396744
396980
397218
397454
397688
397912
398130
398346
398564
398792
399038
399302
399576
399850
400150
400470
400774
401060
401336
401596
401852
402122
402400
402690
402962
403224
403488
403744
403988
404220
404444
404678
404910
405140
405370
405596
405820
406048
406276
406500
406728
406958
407182
407416
407642
407862
408086
408308
408522
408728
408938
409154
409380
409612
409842
410066
410284
410500
410718
410936
411148
411364
411582
411802
412026
412246
412468
412696
412934
413204
413482
413758
414036
414290
414540
414784
415028
415270
415514
415746
415974
416208
416448
416684
416918
417142
417362
417584
417818
418068
418324
418590
418860
419134
419396
419660
419926
420194
420458
420726
420992
421256
421516
421756
421994
422228
422464
422706
422928
423152
423380
423606
423838
424090
424360
424626
424876
425122
425376
425642
425912
426186
426434
426682
426922
427158
427394
427630
427886
428176
428484
428788
429080
429370
429662
429942
430220
430492
430762
431030
431302
431592
431856
432144
432452
432778
433086
433352
433610
433872
434144
434428
434706
434980
435262
435554
435838
436126
436414
436690
436956
437228
437510
437800
438072
438344
438614
438884
439148
439396
439632
439872
440114
440352
440586
440822
441072
441326
441560
441794
442022
442242
442462
442674
442884
443098
443312
443530
443752
443960
444176
444392
444608
444828
445044
445260
445478
445698
445928
446168
446414
446662
446898
447134
447364
447582
447800
448014
448224
448434
448664
448902
449144
449386
449618
449842
450056
450270
450484
450704
450930
451170
451408
451650
451882
452104
452326
452550
452786
453026
453266
453520
453774
454040
454294
454536
454838
455148
455438
455704
455956
456196
456428
456648
456852
457058
457260
457460
457660
457858
458052
458252
458460
458678
458896
459112
459330
459542
459758
459974
460190
460392
460604
460812
461024
461238
461448
461656
461858
462066
462276
462488
462690
462896
463102
463306
463512
463718
463916
464118
464318
464518
464718
464916
465108
465302
465498
465692
465886
466076
466258
466440
466620
466800
466980
467162
467338
467516
467694
467868
468044
468216
468390
468562
468740
468930
469150
469384
469638
469880
470108
470324
470532
470734
470922
471108
471288
471466
471646
471828
472002
472170
472342
472516
472690
472868
473046
473220
473406
473598
473802
474014
474234
474450
474654
474862
475072
475280
475488
475688
475884
476074
476266
476456
476642
476824
477008
477190
477376
477564
477766
477978
478198
478412
478626
478840
479042
479240
479430
479616
479802
479988
480170
480346
480526
480708
480898
481092
481286
481474
481664
481852
482040
482224
482408
482584
482758
482936
483122
483322
483530
483740
483968
484208
484442
484728
485008
485282
485558
485840
486108
486350
486586
486818
487046
487258
487466
487670
487872
488074
488280
488476
488674
488874
489088
489306
489526
489736
489954
490174
490402
490630
490856
491088
491336
491606
491868
492122
492378
492620
492852
493080
493312
493542
493764
493986
494202
494410
494616
494824
495032
495238
495438
495636
495834
496030
496224
496420
496612
496796
496978
497158
497338
497518
497698
497870
498048
498230
498414
498600
498794
498990
499190
499398
499600
499808
500016
500214
500408
500596
500786
500988
501198
501410
501624
501824
502038
502290
502530
502766
503000
503224
503452
503668
503884
504094
504304
504516
504728
504938
505150
505366
505582
505804
506024
506242
506456
506660
506864
507068
507260
507450
507632
507816
508000
508186
508368
508554
508740
508932
509128
509326
509518
509710
509900
510092
510286
510484
510672
510860
511054
511246
511440
511632
511824
512016
512200
512386
512576
512764
512954
513134
513320
513502
513686
513872
514056
514234
514412
514594
514780
514968
515156
515342
515526
515708
515892
516076
516266
516464
516660
516862
517072
517288
517504
517722
517946
518178
518396
518608
518822
519032
519240
519450
519660
519884
520102
520330
520568
520814
521060
521296
521524
521750
521970
522180
522384
522582
522782
522982
523182
523394
523606
523824
524046
524266
524494
524720
524944
525176
525424
525668
525902
526136
526368
526594
526820
527040
527252
527466
527682
527904
528138
528366
528596
528832
529082
529336
529562
529792
530024
530270
530524
530764
531008
531252
531504
531740
531968
532194
532418
532638
532852
533064
533276
533488
533702
533920
534136
534352
534566
534784
534996
535216
535432
535654
535872
536094
536328
536548
536764
536978
537192
537412
537628
537840
538058
538280
538504
538724
538934
539148
539364
539586
539806
540024
540250
540476
540706
540932
541154
541376
541602
541824
542048
542272
542500
542736
542966
543194
543424
543646
543858
544064
544276
544488
544702
544928
545144
545366
545586
545808
546024
546234
546442
546640
546836
547040
547252
547458
547666
547870
548074
548270
548466
548664
548862
549060
549256
549440
549624
549808
549992
550180
550366
550550
550742
550942
551152
551364
551572
551778
551984
552188
552390
552592
552804
553016
553242
553488
553742
553998
554238
554474
554706
554934
555164
555382
555602
555814
556028
556248
556456
556666
556876
557078
557282
557484
557674
557864
558048
558232
558412
558594
558772
558948
559128
559310
559506
559716
559930
560148
560368
560572
560780
560986
561184
561380
561572
561758
561942
562128
562304
562474
562648
562824
563002
563182
563362
563534
563710
563886
564072
564260
564454
564638
564816
564998
565174
565354
565532
565706
565874
566044
566212
566380
566550
566718
566886
567050
567216
567386
567558
567732
567912
568092
568270
568448
568626
568804
568984
569166
569344
569522
569706
569910
570120
570330
570530
570724
570914
571098
571280
571464
571640
571816
571996
572172
572358
572546
572740
572930
573120
573308
573502
573694
573882
574062
574242
574420
574606
574800
575016
575246
575476
575702
575916
576122
576326
576524
576720
576918
577116
577314
577510
577708
577904
578100
578296
578492
578684
578878
579072
579268
579466
579674
579880
580086
580288
580488
580690
580890
581084
581278
581476
581678
581882
582088
582284
582480
582672
582866
583058
583252
583438
583630
583822
584012
584204
584388
584574
584758
584944
585126
585310
585494
585674
585848
586026
586202
586380
586558
586736
586912
587090
587270
587454
587638
587828
588024
588208
588394
588580
588768
588956
589142
589324
589508
589696
589892
590090
590290
590480
590672
590874
591082
591292
591510
591732
591968
592204
592432
592660
592878
593098
593316
593530
593740
593946
594150
594354
594562
594774
594988
595198
595410
595614
595824
596034
596254
596472
596690
596908
597126
597350
597566
597784
597998
598212
598436
598638
598842
599044
599244
599446
599650
599844
600038
600234
600428
600620
600812
601000
601194
601392
601586
601780
601976
602166
602356
602546
602740
602940
603152
603376
603590
603810
604034
604264
604488
604700
604908
605112
605320
605534
605744
605950
606160
606370
606580
606788
606986
607186
607386
607588
607788
607984
608174
608364
608548
608732
608918
609108
609302
609512
609732
609952
610178
610398
610616
610834
611042
611250
611454
611648
611848
612052
612256
612462
612670
612882
613100
613314
613532
613750
613966
614190
614404
614612
614820
615022
615222
615426
615630
615856
616096
616324
616544
616762
616980
617196
617406
617614
617822
618024
618224
618426
618618
618810
619002
619198
619392
619588
619778
619972
620164
620358
620552
620748
620942
621140
621340
621536
621734
621936
622132
622326
622514
622704
622894
623086
623270
623456
623642
623824
624012
624198
624382
624560
624740
624918
625098
625280
625462
625638
625820
626000
626184
626368
626556
626750
626934
627124
627312
627506
627718
627920
628114
628324
628532
628736
628938
629130
629320
629504
629690
629872
630056
630238
630414
630594
630774
630956
631140
631332
631526
631730
631938
632150
632366
632582
632794
633002
633208
633418
633628
633834
634038
634248
634460
634678
634896
635112
635330
635558
635794
636030
636250
636472
636690
636908
637124
637326
637526
637724
637930
638146
638370
638584
638802
639020
639244
639468
639694
639924
640156
640396
640636
640870
641096
641312
641542
641784
642014
642246
642480
642706
642928
643150
643366
643582
643794
644004
644220
644430
644650
644866
645084
645312
645532
645748
645956
646160
646370
646582
646784
646992
647200
647412
647616
647822
648018
648214
648410
648606
648808
649008
649212
649422
649630
649840
650054
650256
650456
650658
650856
651060
651262
651454
651644
651832
652022
652210
652404
652592
652782
652966
653148
653334
653520
653700
653876
654054
654228
654406
654582
654768
654936
655108
655284
655462
655642
655826
656008
656186
656366
656546
656728
656914
657102
657284
657470
657660
657852
658054
658256
658456
658658
658858
659060
659266
659476
659682
659884
660084
660280
660476
660670
660862
661058
661254
661454
661654
661856
662056
662260
662468
662674
662882
663090
663300
663516
663732
663948
664164
664380
664602
664820
665040
665268
665504
665756
666014
666266
666506
666738
666972
667202
667432
667666
667902
668134
668374
668624
668874
669102
669326
669548
669766
669986
670198
670414
670636
670862
671100
671326
671552
671778
672012
672246
672464
672676
672890
673106
673330
673558
673782
674012
674250
674490
674730
674954
675176
675398
675620
675836
676050
676266
676484
676706
676928
677150
677368
677590
677808
678022
678232
678428
678626
678816
679004
679194
679394
679612
679838
680066
680308
680562
680826
681082
681324
681564
681798
682028
682242
682456
682664
682872
683072
683270
683472
683676
683882
684084
684276
684470
684674
684894
685112
685324
685522
685718
685912
686106
686294
686482
686666
686850
687042
687240
687438
687640
687836
688040
688252
688468
688688
688902
689112
689334
689556
689772
689982
690190
690396
690592
690794
690998
691196
691398
691606
691818
692040
692250
692460
692676
692886
693094
693296
693492
693682
693868
694052
694242
694434
694648
694872
695090
695310
695530
695754
695972
696192
696404
696602
696796
696988
697174
697364
697558
697768
698020
698280
698528
698792
699064
699322
699552
699778
700004
700224
700438
700644
700852
701068
701290
701510
701734
701946
702150
702356
702556
702752
702938
703120
703302
703480
703652
703826
704002
704170
704340
704512
704684
704864
705040
705228
705414
705606
705800
706010
706230
706450
706658
706856
707052
707248
707442
707630
707820
708010
708208
708412
708622
708822
709014
709206
709394
709580
709772
709958
710148
710346
710546
710748
710952
711154
711350
711548
711742
711936
712128
712314
712498
712682
712864
713052
713228
713412
713592
713772
713952
714136
714322
714506
714684
714860
715034
715206
715378
715548
715718
715878
716040
716204
716368
716534
716700
716868
717030
717192
717354
717518
717684
717858
718040
718214
718378
718548
718716
718884
719054
719220
719382
719544
719704
719864
720024
720184
720346
720504
720662
720820
720976
721134
721292
721450
721610
721768
721918
722074
722228
722384
722540
722694
722848
722998
723148
723300
723454
723608
723764
723924
724080
724236
724396
724554
724714
724872
725030
725184
725334
725482
725630
725778
725924
726070
726216
726358
726498
726640
726784
726924
727068
727212
727358
727504
727646
727790
727936
728086
728238
728384
728536
728690
728842
728994
729146
729298
729450
729604
729760
729916
730072
730230
730392
730558
730724
730894
731056
731218
731376
731530
731682
731834
731988
732144
732298
732456
732614
732776
732948
733124
733314
733506
733688
733874
734062
734258
734456
734642
734822
735002
735184
735370
735562
735756
735944
736144
736340
736554
736778
736990
737200
737414
737632
737850
738066
738268
738472
738682
738896
739102
739304
739510
739738
739998
740262
740510
740744
740972
741208
741450
741692
741924
742160
742406
742654
742898
743128
743354
743580
743814
744046
744294
744544
744804
745056
745286
745506
745722
745936
746154
746362
746566
746770
746978
747192
747410
747624
747846
748076
748304
748530
748738
748940
749140
749336
749532
749732
749924
750122
750324
750526
750728
750930
751122
751322
751510
751702
751890
752078
752256
752440
752622
752804
752986
753166
753342
753516
753688
753860
754040
754222
754408
754606
754800
754988
755174
755358
755544
755724
755908
756096
756284
756476
756656
756842
757024
757208
757388
757566
757746
757926
758100
758276
758458
758642
758836
759036
759230
759422
759618
759816
759998
760184
760366
760546
760726
760906
761086
761266
761446
761624
761798
761976
762154
762338
762524
762710
762896
763084
763274
763470
763664
763854
764038
764224
764412
764602
764790
764976
765156
765336
765514
765694
765876
766064
766250
766436
766624
766816
767012
767210
767406
767600
767800
768004
768220
768450
768692
768946
769202
769452
769692
769924
770164
770408
770654
770890
771118
771348
771572
771796
772008
772218
772422
772624
772834
773062
773296
773544
773802
774078
774344
774596
774848
775104
775360
775626
775886
776134
776376
776630
776886
777156
777406
777654
777894
778122
778344
778560
778782
779012
779250
779512
779776
780046
780318
780586
780848
781104
781356
781602
781856
782112
782354
782590
782814
783036
783252
783466
783678
783886
784106
784344
784590
784824
785052
785268
785480
785692
785902
786112
786308
786510
786714
786920
787126
787328
787534
787740
787946
788150
788358
788562
788770
788982
789192
789402
789614
789820
790026
790230
790432
790636
790836
791032
791228
791426
791630
791826
792018
792210
792404
792596
792786
792976
793164
793348
793534
793724
793918
794114
794308
794494
794686
794880
795078
795270
795470
795664
795870
796090
796306
796528
796750
796974
797194
797418
797644
797864
798078
798288
798500
798710
798918
799120
799320
799522
799732
799962
800186
800406
800626
800838
801046
801250
801448
801646
801852
802066
802294
802534
802766
802998
803224
803438
803652
803858
804070
804278
804486
804694
804900
805108
805318
805544
805816
806066
806300
806546
806794
807036
807272
807486
807702
807934
808174
808412
808638
808864
809088
809310
809536
809766
810028
810318
810606
810892
811172
811444
811716
811978
812230
812480
812726
812970
813202
813432
813674
813926
814172
814394
814650
814896
815124
815348
815556
815762
815966
816166
816368
816568
816762
816960
817172
817424
817674
817928
818176
818416
818646
818872
819080
819298
819512
819724
819928
820130
820324
820520
820720
820926
821134
821344
821550
821760
821972
822184
822398
822610
822830
823050
823280
823508
823728
823952
824176
824394
824606
824812
825010
825210
825408
825606
825802
826000
826192
826382
826568
826756
826940
827124
827300
827478
827654
827832
828010
828188
828364
828536
828714
828892
829074
829254
829436
829612
829788
829968
830146
830324
830498
830672
830842
831016
831190
831364
831538
831712
831884
832054
832224
832394
832566
832738
832908
833076
833242
833410
833576
833746
833916
834088
834256
834422
834590
834758
834928
835098
835268
835434
835600
835766
835934
836102
836270
836440
836604
836770
836936
837102
837268
837436
837604
837770
837934
838102
838270
838436
838606
838776
838942
839108
839278
839450
839622
839790
839960
840124
840286
840450
840610
840772
840932
841094
841256
841414
841576
841738
841902
842066
842230
842396
842556
842718
842880
843042
843206
843368
843530
843686
843842
843996
844152
844308
844466
844624
844780
844934
845092
845248
845408
845570
845732
845894
846054
846212
846372
846534
846696
846858
847020
847180
847332
847488
847646
847802
847956
848114
848270
848422
848578
848738
848898
849062
849224
849390
849550
849714
849878
850040
850202
850360
850522
850678
850834
850994
851150
851308
851468
851632
851796
851960
852128
852296
852472
852654
852842
853026
853208
853388
853566
853748
853928
854112
854288
854466
854640
854812
854978
855148
855314
855478
855644
855808
855974
856146
856310
856478
856644
856814
856988
857170
857360
857556
857746
857948
858150
858352
858552
858746
858932
859118
859304
859492
859682
859876
860068
860258
860452
860642
860830
861016
861202
861384
861570
861754
861938
862124
862314
862498
862682
862862
863036
863212
863386
863554
863722
863898
864076
864264
864456
864648
864828
865016
865204
865386
865568
865756
865948
866140
866330
866520
866708
866898
867080
867262
867442
867624
867810
867994
868176
868354
868536
868736
868954
869190
869418
869638
869862
870086
870310
870526
870734
870942
871148
871354
871552
871748
871934
872126
872324
872528
872738
872938
873134
873336
873536
873732
873918
874102
874282
874464
874648
874838
875032
875226
875412
875600
875782
875964
876150
876340
876524
876724
876930
877154
877370
877584
877798
878012
878222
878426
878628
878820
879002
879180
879356
879534
879708
879882
880056
880228
880408
880592
880778
880968
881158
881342
881526
881710
881898
882088
882282
882470
882660
882852
883048
883252
883448
883642
883846
884052
884254
884458
884646
884834
885024
885212
885400
885586
885774
885954
886134
886314
886490
886672
886852
887024
887196
887372
887552
887742
887940
888138
888324
888514
888706
888894
889080
889268
889446
889630
889814
889998
890182
890366
890546
890726
890906
891088
891276
891470
891672
891864
892062
892258
892452
892650
892850
893038
893228
893422
893616
893812
894010
894200
894388
894574
894762
894950
895136
895314
895492
895674
895854
896042
896242
896430
896622
896816
897008
897204
897400
897592
897786
897984
898188
898386
898594
898792
898980
899174
899376
899582
899790
899988
900186
900392
900580
900772
900958
901130
901308
901488
901668
901848
902028
902210
902388
902568
902752
902942
903130
903318
903504
903688
903874
904062
904248
904432
904616
904800
904984
905164
905350
905542
905736
905940
906158
906384
906606
906828
907046
907266
907482
907688
907888
908090
908282
908480
908668
908866
909086
909312
909528
909752
909972
910192
910420
910624
910832
911032
911232
911424
911612
911798
911986
912178
912376
912590
912788
912982
913176
913368
913560
913746
913932
914110
914290
914468
914644
914816
914988
915156
915326
915504
915688
915878
916074
916278
916472
916674
916878
917076
917280
917478
917666
917856
918040
918236
918452
918664
918872
919074
919264
919456
919650
919840
920024
920210
920400
920592
920786
920980
921172
921370
921570
921772
921970
922166
922356
922548
922742
922938
923144
923356
923576
923830
924064
924298
924528
924748
924962
925180
925392
925596
925794
925990
926182
926374
926564
926758
926946
927138
927332
927534
927740
927938
928132
928324
928518
928708
928898
929094
929288
929482
929676
929872
930068
930266
930460
930656
930846
931036
931228
931426
931620
931830
932052
932296
932536
932774
933010
933242
933468
933688
933900
934108
934320
934544
934768
934994
935218
935446
935684
935926
936160
936398
936636
936868
937098
937320
937526
937732
937934
938142
938352
938570
938802
939036
939286
939548
939810
940064
940308
940560
940820
941092
941376
941662
941940
942200
942448
942698
942968
943264
943552
943822
944096
944380
944644
944910
945156
945400
945654
945912
946166
946426
946680
946920
947162
947422
947686
947944
948188
948430
948670
948908
949140
949354
949580
949814
950076
950348
950630
950904
951164
951430
951674
951900
952114
952324
952542
952770
953012
953264
953516
953768
954014
954248
954488
954716
954948
955164
955404
955680
955952
956218
956478
956732
956980
957220
957448
957676
957912
958160
958420
958684
958958
959228
959488
959734
959968
960200
960432
960668
960906
961138
961378
961614
961844
962062
962274
962482
962690
962910
963152
963382
963608
963826
964050
964272
964486
964706
964932
965176
965426
965664
965896
966126
966354
966576
966798
967034
967264
967508
967758
968006
968252
968492
968734
968974
969194
969422
969650
969884
970124
970354
970586
970814
971038
971262
971482
971710
971948
972196
972464
972728
972994
973248
973488
973720
973936
974152
974398
974674
974958
975226
975480
975722
975960
976182
976402
976614
976824
977036
977250
977456
977668
977898
978140
978382
978614
978848
979064
979284
979502
979712
979920
980126
980340
980562
980786
981006
981224
981434
981640
981846
982046
982250
982456
982668
982872
983082
983298
983526
983754
983984
984210
984426
984638
984844
985050
985254
985460
985662
985862
986062
986268
986470
986672
986866
987062
987256
987450
987642
987832
988016
988198
988378
988560
988740
988928
989120
989332
989560
989792
990024
990244
990464
990678
990892
991104
991316
991522
991730
991938
992152
992366
992576
992798
993020
993242
993456
993664
993864
994060
994254
994456
994656
994856
995056
995270
995506
995748
995990
996230
996472
996702
996920
997134
997340
997546
997750
997954
998160
998378
998622
998880
999140
999396
999640
999872
1000094
1000310
1000528
1000750
1000978
1001216
1001460
1001702
1001940
1002170
1002394
1002612
1002834
1003056
1003274
1003494
1003714
1003938
1004160
1004378
1004602
1004838
1005084
1005324
1005556
1005782
1005992
1006210
1006416
1006616
1006810
1007002
1007206
1007418
1007640
1007866
1008084
1008302
1008532
1008764
1008992
1009216
1009440
1009662
1009878
1010086
1010284
1010482
1010680
1010876
1011072
1011272
1011478
1011688
1011900
1012116
1012328
1012530
1012728
1012924
1013122
1013322
1013524
1013726
1013938
1014152
1014376
1014600
1014814
1015026
1015244
1015492
1015740
1015980
1016216
1016446
1016662
1016874
1017082
1017280
1017480
1017678
1017886
1018098
1018312
1018520
1018728
1018946
1019174
1019406
1019634
1019854
1020066
1020280
1020486
1020688
1020892
1021090
1021280
1021470
1021660
1021854
1022046
1022236
1022430
1022622
1022816
1023006
1023192
1023380
1023564
1023752
1023940
1024126
1024302
1024482
1024658
1024834
1025008
1025180
1025348
1025512
1025678
1025840
1026006
1026168
1026334
1026496
1026658
1026822
1026988
1027154
1027324
1027500
1027676
1027852
1028030
1028204
1028382
1028554
1028730
1028900
1029072
1029244
1029416
1029590
1029764
1029940
1030108
1030276
1030448
1030626
1030812
1031002
1031192
1031382
1031574
1031770
1031970
1032168
1032366
1032550
1032742
1032928
1033114
1033296
1033476
1033650
1033820
1033990
1034160
1034330
1034502
1034674
1034842
1035010
1035182
1035358
1035532
1035710
1035886
1036062
1036246
1036432
1036620
1036804
1036992
1037174
1037358
1037538
1037720
1037902
1038088
1038266
1038442
1038618
1038792
1038970
1039148
1039322
1039490
1039658
1039824
1039990
1040156
1040322
1040488
1040650
1040820
1040994
1041174
1041356
1041536
1041718
1041888
1042064
1042242
1042414
1042590
1042770
1042948
1043120
1043296
1043466
1043634
1043800
1043968
1044130
1044288
1044450
1044608
1044770
1044930
1045090
1045248
1045398
1045552
1045704
1045854
1046006
1046156
1046302
1046450
1046596
1046742
1046890
1047042
1047196
1047348
1047502
1047654
1047806
1047958
1048114
1048270
1048430
1048588
1048750
1048904
1049056
1049212
1049364
1049518
1049672
1049824
1049972
1050120
1050268
1050414
1050560
1050706
1050854
1051002
1051150
1051294
1051440
1051584
1051726
1051870
1052014
1052158
1052298
1052440
1052584
1052730
1052866
1053008
1053152
1053296
1053436
1053572
1053712
1053850
1053988
1054130
1054270
1054410
1054550
1054686
1054822
1054956
1055094
1055230
1055370
1055506
1055644
1055784
1055918
1056056
1056196
1056334
1056474
1056614
1056756
1056900
1057040
1057180
1057320
1057460
1057600
1057748
1057884
1058024
1058164
1058302
1058444
1058582
1058720
1058858
1058996
1059132
1059268
1059400
1059536
1059674
1059808
1059942
1060078
1060214
1060350
1060484
1060616
1060748
1060882
1061014
1061148
1061282
1061414
1061548
1061678
1061808
1061938
1062070
1062200
1062332
1062464
1062598
1062736
1062862
1062990
1063118
1063248
1063376
1063506
1063632
1063760
1063890
1064016
1064142
1064270
1064400
1064528
1064656
1064786
1064914
1065044
1065172
1065296
1065426
1065554
1065682
1065810
1065942
1066076
1066204
1066334
1066458
1066588
1066718
1066846
1066976
1067106
1067234
1067364
1067494
1067620
1067746
1067874
1067998
1068126
1068254
1068380
1068506
1068632
1068756
1068880
1069002
1069128
1069250
1069376
1069500
1069626
1069746
1069868
1069986
1070108
1070228
1070350
1070472
1070594
1070714
1070836
1070958
1071076
1071194
1071314
1071436
1071556
1071678
1071800
1071920
1072042
1072162
1072278
1072398
1072518
1072640
1072762
1072892
1073008
1073132
1073260
1073378
1073496
1073616
1073740
1073862
1073982
1074104
1074226
1074350
1074472
1074592
1074710
1074830
1074952
1075074
1075194
1075318
1075440
1075564
1075686
1075806
1075928
1076050
1076170
1076292
1076418
1076542
1076666
1076790
1076912
1077038
1077154
1077276
1077400
1077524
1077650
1077774
1077900
1078026
1078146
1078270
1078394
1078518
1078640
1078764
1078888
1079012
1079136
1079258
1079378
1079500
1079622
1079744
1079866
1079986
1080110
1080232
1080354
1080472
1080590
1080708
1080828
1080948
1081072
1081194
1081308
1081430
1081550
1081668
1081788
1081906
1082026
1082146
1082266
1082388
1082508
1082630
1082750
1082866
1082988
1083108
1083230
1083350
1083472
1083592
1083714
1083834
1083956
1084074
1084192
1084312
1084432
1084552
1084678
1084760
1084910
1085030
1085148
1085264
1085382
1085500
1085618
1085734
1085854
1085970
1086044
1086206
1086324
1086438
1086554
1086672
1086790
1086908
1087024
1087142
1087260
1087376
1087492
1087606
1087722
1087840
1087956
1088074
1088190
1088310
1088430
1088548
1088664
1088778
1088896
1089014
1089132
1089250
1089370
1089490
1089610
1089726
1089842
1089960
1090078
1090198
1090316
1090408
1090554
1090674
1090794
1090912
1091028
1091144
1091254
1091378
1091496
1091616
1091736
1091856
1091976
1092094
1092210
1092328
1092448
1092568
1092688
1092808
1092928
1093046
1093168
1093288
1093374
1093520
1093638
1093758
1093876
1093992
1094112
1094228
1094346
1094462
1094576
1094692
1094808
1094928
1095048
1095166
1095286
1095404
1095526
1095644
1095760
1095878
1095998
1096116
1096236
1096356
1096474
1096598
1096722
1096846
1096968
1097092
1097218
1097340
1097462
1097588
1097714
1097840
1097964
1098086
1098212
1098336
1098458
1098580
1098704
1098828
1098950
1099074
1099198
1099318
1099442
1099566
1099690
1099776
1099936
1100064
1100192
1100322
1100448
1100574
1100702
1100830
1100964
1101088
1101214
1101344
1101474
1101602
1101734
1101866
1101998
1102128
1102260
1102394
1102528
1102660
1102788
1102918
1103048
1103178
1103308
1103438
1103570
1103700
1103830
1103958
1104088
1104218
1104346
1104474
1104604
1104734
1104866
1104998
1105128
1105260
1105390
1105522
1105652
1105786
1105920
1106052
1106184
1106314
1106444
1106572
1106700
1106830
1106958
1107090
1107222
1107354
1107484
1107612
1107742
1107874
1108004
1108134
1108264
1108400
1108530
1108650
1108776
1108904
1109032
1109158
1109284
1109412
1109542
1109672
1109802
1109932
1110064
1110194
1110326
1110458
1110594
1110730
1110864
1110992
1111120
1111250
1111380
1111512
1111644
1111778
1111910
1112044
1112174
1112312
1112446
1112572
1112704
1112838
1112974
1113110
1113250
1113386
1113524
1113664
1113798
1113938
1114078
1114218
1114362
1114502
1114642
1114784
1114924
1115066
1115210
1115350
1115490
1115628
1115764
1115906
1116052
1116200
1116346
1116490
1116634
1116774
1116914
1117060
1117204
1117344
1117490
1117624
1117764
1117900
1118032
1118166
1118300
1118440
1118574
1118714
1118854
1118996
1119136
1119272
1119410
1119550
1119688
1119824
1119962
1120098
1120236
1120370
1120508
1120636
1120734
1120908
1121048
1121188
1121328
1121464
1121600
1121738
1121880
1122022
1122166
1122310
1122456
1122602
1122746
1122888
1123030
1123170
1123312
1123458
1123612
1123762
1123908
1124052
1124192
1124336
1124478
1124618
1124758
1124900
1125036
1125172
1125308
1125444
1125578
1125714
1125852
1125990
1126130
1126268
1126406
1126546
1126684
1126824
1126968
1127114
1127256
1127396
1127538
1127680
1127824
1127970
1128126
1128276
1128420
1128564
1128708
1128852
1128992
1129132
1129270
1129410
1129552
1129692
1129828
1129964
1130102
1130238
1130378
1130518
1130660
1130802
1130938
1131078
1131218
1131360
1131504
1131646
1131794
1131938
1132072
1132210
1132350
1132490
1132626
1132764
1132900
1133038
1133178
1133312
1133450
1133588
1133722
1133860
1133998
1134138
1134278
1134416
1134552
1134690
1134826
1134962
1135098
1135236
1135376
1135512
1135646
1135782
1135920
1136062
1136196
1136338
1136478
1136620
1136760
1136900
1137040
1137180
1137318
1137456
1137596
1137734
1137874
1138014
1138164
1138318
1138472
1138624
1138780
1138938
1139092
1139242
1139392
1139538
1139684
1139830
1139974
1140120
1140262
1140400
1140542
1140684
1140824
1140968
1141112
1141254
1141396
1141538
1141678
1141822
1141956
1142100
1142244
1142388
1142534
1142676
1142820
1142964
1143106
1143250
1143396
1143540
1143684
1143826
1143968
1144112
1144258
1144406
1144554
1144702
1144850
1144992
1145132
1145272
1145412
1145550
1145690
1145828
1145966
1146100
1146232
1146362
1146494
1146626
1146754
1146884
1147014
1147142
1147270
1147394
1147518
1147646
1147770
1147896
1148022
1148148
1148274
1148400
1148522
1148646
1148772
1148900
1149024
1149146
1149270
1149396
1149522
1149646
1149766
1149888
1150012
1150134
1150254
1150378
1150500
1150622
1150744
1150860
1150980
1151100
1151218
1151338
1151458
1151580
1151698
1151820
1151942
1152060
1152178
1152302
1152420
1152534
1152652
1152772
1152890
1153010
1153134
1153242
1153358
1153476
1153592
1153708
1153826
1153946
1154062
1154182
1154302
1154416
1154536
1154654
1154772
1154888
1155006
1155124
1155240
1155360
1155476
1155590
1155706
1155824
1155942
1156062
1156178
1156292
1156410
1156526
1156646
1156756
1156872
1156986
1157102
1157216
1157332
1157446
1157562
1157678
1157794
1157902
1158016
1158126
1158240
1158352
1158464
1158578
1158692
1158806
1158920
1159032
1159144
1159256
1159370
1159482
1159596
1159712
1159828
1159942
1160066
1160176
1160294
1160404
1160520
1160636
1160750
1160868
1160984
1161102
1161220
1161334
1161448
1161562
1161678
1161792
1161906
1162022
1162138
1162256
1162372
1162490
1162602
1162718
1162834
1162954
1163066
1163182
1163300
1163418
1163540
1163658
1163766
1163882
1163998
1164114
1164230
1164346
1164464
1164582
1164698
1164816
1164932
1165048
1165166
1165286
1165408
1165528
1165650
1165768
1165890
1166012
1166124
1166244
1166360
1166480
1166598
1166718
1166838
1166960
1167080
1167200
1167316
1167438
1167560
1167674
1167792
1167910
1168028
1168144
1168264
1168380
1168494
1168608
1168724
1168838
1168954
1169068
1169184
1169302
1169420
1169536
1169648
1169762
1169878
1169992
1170106
1170220
1170334
1170448
1170562
1170678
1170794
1170906
1171016
1171132
1171242
1171356
1171470
1171586
1171700
1171816
1171930
1172044
1172158
1172274
1172388
1172504
1172622
1172738
1172854
1172972
1173088
1173202
1173316
1173436
1173552
1173670
1173786
1173906
1174028
1174142
1174260
1174374
1174488
1174606
1174722
1174838
1174952
1175070
1175186
1175304
1175420
1175532
1175648
1175768
1175880
1176000
1176110
1176228
1176344
1176464
1176578
1176692
1176806
1176922
1177036
1177150
1177266
1177380
1177496
1177612
1177726
1177838
1177952
1178068
1178182
1178300
1178412
1178530
1178642
1178764
1178878
1178994
1179110
1179226
1179346
1179464
1179580
1179692
1179810
1179926
1180046
1180162
1180278
1180394
1180512
1180628
1180746
1180864
1180982
1181100
1181220
1181336
1181454
1181576
1181694
1181810
1181932
1182048
1182168
1182288
1182410
1182524
1182642
1182762
1182880
1183000
1183120
1183240
1183360
1183482
1183604
1183726
1183840
1183962
1184076
1184194
1184312
1184436
1184550
1184672
1184792
1184906
1185026
1185144
1185262
1185380
1185500
1185620
1185740
1185860
1185978
1186092
1186208
1186326
1186442
1186556
1186672
1186790
1186908
1187026
1187144
1187256
1187378
1187490
1187606
1187720
1187838
1187954
1188070
1188186
1188302
1188414
1188528
1188642
1188756
1188870
1188986
1189100
1189216
1189334
1189450
1189564
1189680
1189796
1189912
1190028
1190144
1190262
1190378
1190496
1190614
1190728
1190844
1190960
1191078
1191196
1191312
1191432
1191558
1191672
1191792
1191908
1192024
1192144
1192262
1192380
1192498
1192622
1192738
1192862
1192980
1193092
1193210
1193326
1193444
1193560
1193678
1193798
1193916
1194034
1194156
1194270
1194388
1194508
1194628
1194752
1194872
1194986
1195106
1195224
1195346
1195460
1195578
1195696
1195814
1195934
1196054
1196172
1196292
1196412
1196528
1196642
1196760
1196876
1196994
1197110
1197228
1197346
1197464
1197582
1197700
1197814
1197930
1198046
1198162
1198278
1198392
1198510
1198626
1198744
1198860
1198978
1199092
1199202
1199316
1199428
1199544
1199662
1199776
1199894
1200010
1200126
1200240
1200356
1200472
1200586
1200704
1200820
1200942
1201056
1201178
1201288
1201410
1201520
1201638
1201754
1201870
1201988
1202106
1202224
1202342
1202458
1202578
1202688
1202804
1202920
1203038
1203154
1203270
1203384
1203500
1203614
1203726
1203840
1203952
1204066
1204180
1204292
1204406
1204518
1204634
1204746
1204856
1204966
1205078
1205192
1205302
1205414
1205528
1205640
1205752
1205866
1205976
1206086
1206196
1206308
1206418
1206530
1206642
1206752
1206866
1206982
1207094
1207208
1207320
1207432
1207540
1207652
1207766
1207880
1207994
1208110
1208224
1208336
1208448
1208560
1208674
1208786
1208900
1209014
1209130
1209244
1209358
1209472
1209584
1209698
1209810
1209924
1210038
1210154
1210270
1210384
1210502
1210620
1210728
1210846
1210956
1211070
1211184
1211300
1211418
1211532
1211650
1211764
1211878
1211992
1212106
1212220
1212334
1212450
1212564
1212678
1212796
1212910
1213022
1213136
1213250
1213366
1213480
1213594
1213710
1213824
1213940
1214054
1214166
1214280
1214392
1214506
1214620
1214738
1214854
1214970
1215084
1215196
1215312
1215424
1215538
1215654
1215770
1215886
1216002
1216118
1216232
1216348
1216462
1216572
1216684
1216796
1216908
1217022
1217136
1217250
1217362
1217478
1217592
1217702
1217814
1217926
1218040
1218156
1218270
1218386
1218500
1218622
1218740
1218848
1218964
1219080
1219196
1219314
1219430
1219548
1219666
1219784
1219904
1220020
1220136
1220254
1220372
1220492
1220610
1220728
1220846
1220964
1221084
1221202
1221316
1221434
1221552
1221670
1221786
1221904
1222024
1222144
1222264
1222382
1222500
1222620
1222740
1222860
1222982
1223106
1223234
1223352
1223476
1223594
1223716
1223840
1223960
1224084
1224206
1224330
1224454
1224582
1224706
1224832
1224960
1225086
1225212
1225338
1225468
1225598
1225726
1225856
1225982
1226106
1226236
1226362
1226490
1226620
1226750
1226880
1227016
1227142
1227266
1227394
1227524
1227654
1227784
1227916
1228050
1228184
1228314
1228446
1228580
1228714
1228846
1228980
1229112
1229246
1229380
1229506
1229638
1229772
1229904
1230036
1230172
1230308
1230446
1230582
1230718
1230858
1231002
1231134
1231276
1231416
1231554
1231692
1231828
1231962
1232098
1232232
1232366
1232502
1232640
1232778
1232914
1233052
1233194
1233336
1233478
1233620
1233760
1233900
1234042
1234178
1234318
1234458
1234600
1234736
1234878
1235022
1235168
1235310
1235454
1235598
1235744
1235890
1236038
1236192
1236346
1236492
1236640
1236788
1236934
1237082
1237232
1237380
1237528
1237672
1237820
1237968
1238116
1238270
1238430
1238580
1238734
1238886
1239038
1239190
1239342
1239496
1239646
1239802
1239956
1240108
1240260
1240414
1240570
1240732
1240894
1241058
1241214
1241370
1241530
1241686
1241840
1241994
1242150
1242304
1242460
1242618
1242774
1242932
1243094
1243242
1243396
1243542
1243690
1243842
1243994
1244152
1244312
1244476
1244640
1244800
1244964
1245130
1245294
1245460
1245624
1245792
1245954
1246114
1246274
1246436
1246604
1246768
1246934
1247096
1247264
1247430
1247596
1247764
1247936
1248110
1248278
1248456
1248630
1248800
1248976
1249142
1249310
1249478
1249644
1249814
1249988
1250170
1250354
1250540
1250738
1250934
1251124
1251314
1251500
1251686
1251868
1252046
1252216
1252386
1252550
1252720
1252886
1253056
1253230
1253424
1253632
1253820
1254002
1254176
1254348
1254520
1254692
1254866
1255046
1255220
1255394
1255568
1255740
1255914
1256088
1256264
1256440
1256624
1256822
1257034
1257234
1257430
1257618
1257800
1257980
1258156
1258334
1258510
1258686
1258860
1259038
1259218
1259400
1259582
1259766
1259952
1260138
1260330
1260522
1260716
1260912
1261110
1261308
1261504
1261700
1261898
1262096
1262288
1262482
1262678
1262870
1263080
1263306
1263510
1263712
1263904
1264092
1264276
1264456
1264630
1264806
1264982
1265164
1265350
1265544
1265740
1265928
1266120
1266296
1266482
1266666
1266850
1267026
1267206
1267390
1267574
1267764
1267960
1268154
1268350
1268540
1268728
1268916
1269104
1269286
1269466
1269650
1269834
1270018
1270204
1270390
1270578
1270760
1270932
1271114
1271292
1271466
1271638
1271812
1271986
1272160
1272334
1272510
1272688
1272862
1273036
1273210
1273382
1273556
1273728
1273904
1274070
1274238
1274410
1274570
1274738
1274904
1275070
1275234
1275402
1275572
1275742
1275914
1276084
1276252
1276416
1276586
1276760
1276934
1277110
1277284
1277460
1277632
1277806
1277980
1278156
1278336
1278514
1278690
1278868
1279046
1279222
1279398
1279568
1279744
1279914
1280088
1280264
1280442
1280616
1280790
1280962
1281128
1281294
1281456
1281622
1281790
1281962
1282138
1282324
1282516
1282712
1282912
1283108
1283308
1283498
1283688
1283880
1284072
1284258
1284446
1284632
1284820
1285008
1285200
1285396
1285596
1285792
1285990
1286192
1286382
1286572
1286766
1286952
1287140
1287332
1287524
1287720
1287918
1288114
1288324
1288548
1288776
1288998
1289210
1289414
1289618
1289808
1289994
1290182
1290368
1290556
1290756
1290968
1291192
1291422
1291642
1291860
1292068
1292276
1292480
1292686
1292888
1293090
1293294
1293496
1293696
1293894
1294088
1294284
1294468
1294658
1294850
1295048
1295236
1295430
1295626
1295828
1296034
1296244
1296450
1296656
1296858
1297058
1297254
1297444
1297630
1297824
1298022
1298242
1298472
1298704
1298942
1299172
1299400
1299624
1299836
1300042
1300248
1300456
1300662
1300868
1301064
1301264
1301462
1301668
1301884
1302104
1302314
1302526
1302738
1302954
1303172
1303382
1303598
1303818
1304038
1304252
1304460
1304662
1304868
1305070
1305266
1305474
1305680
1305886
1306088
1306290
1306488
1306680
1306866
1307050
1307234
1307422
1307620
1307826
1308034
1308244
1308452
1308656
1308858
1309058
1309248
1309438
1309626
1309818
1310014
1310218
1310416
1310620
1310820
1311020
1311222
1311426
1311624
1311824
1312020
1312218
1312414
1312608
1312798
1312994
1313196
1313406
1313610
1313812
1314012
1314212
1314406
1314598
1314786
1314972
1315150
1315332
1315514
1315698
1315886
1316080
1316270
1316466
1316670
1316872
1317076
1317276
1317470
1317666
1317858
1318052
1318234
1318418
1318594
1318772
1318956
1319154
1319364
1319584
1319802
1320030
1320250
1320466
1320684
1320894
1321100
1321306
1321506
1321708
1321906
1322102
1322304
1322506
1322710
1322910
1323112
1323300
1323492
1323678
1323866
1324056
1324250
1324446
1324652
1324876
1325110
1325348
1325578
1325800
1326010
1326222
1326426
1326638
1326844
1327058
1327272
1327488
1327696
1327900
1328096
1328292
1328480
1328668
1328858
1329048
1329232
1329422
1329610
1329800
1329990
1330176
1330368
1330562
1330750
1330942
1331130
1331316
1331496
1331676
1331852
1332028
1332202
1332378
1332552
1332724
1332892
1333062
1333230
1333400
1333566
1333738
1333894
1334060
1334231
1334394
1334562
1334728
1334896
1335060
1335224
1335388
1335548
1335710
1335866
1336036
1336192
1336352
1336514
1336674
1336836
1336996
1337164
1337314
1337472
1337630
1337788
1337950
1338112
1338276
1338440
1338604
1338770
1338936
1339100
1339264
1339426
1339592
1339754
1339916
1340080
1340242
1340408
1340576
1340746
1340906
1341068
1341238
1341396
1341562
1341732
1341904
1342070
1342238
1342404
1342568
1342734
1342898
1343064
1343226
1343394
1343562
1343726
1343892
1344058
1344222
1344380
1344538
1344698
1344854
1345016
1345178
1345344
1345508
1345674
1345846
1346020
1346196
1346374
1346556
1346736
1346914
1347092
1347270
1347450
1347628
1347808
1347988
1348172
1348352
1348534
1348716
1348890
1349064
1349242
1349424
1349606
1349796
1349988
1350182
1350370
1350564
1350752
1350942
1351132
1351328
1351524
1351722
1351920
1352120
1352308
1352498
1352684
1352868
1353054
1353240
1353436
1353646
1353866
1354092
1354302
1354512
1354720
1354922
1355120
1355316
1355512
1355708
1355904
1356094
1356290
1356496
1356706
1356918
1357126
1357332
1357542
1357748
1357952
1358156
1358358
1358550
1358746
1358940
1359138
1359338
1359544
1359754
1359958
1360166
1360378
1360592
1360806
1361020
1361234
1361440
1361650
1361862
1362072
1362292
1362526
1362772
1363022
1363264
1363500
1363726
1363942
1364158
1364370
1364594
1364826
1365062
1365306
1365550
1365796
1366036
1366268
1366496
1366718
1366938
1367154
1367370
1367590
1367806
1368024
1368246
1368468
1368688
1368910
1369130
1369360
1369578
1369794
1370014
1370226
1370434
1370644
1370852
1371058
1371264
1371464
1371666
1371868
1372072
1372286
1372500
1372718
1372938
1373154
1373370
1373590
1373786
1373984
1374178
1374372
1374586
1374804
1375016
1375224
1375432
1375644
1375858
1376064
1376278
1376492
1376712
1376932
1377142
1377362
1377572
1377786
1378010
1378238
1378450
1378658
1378866
1379076
1379288
1379500
1379714
1379928
1380144
1380360
1380572
1380782
1380998
1381220
1381432
1381648
1381858
1382062
1382262
1382458
1382654
1382858
1383064
1383282
1383500
1383722
1383954
1384176
1384390
1384610
1384834
1385054
1385282
1385502
1385722
1385942
1386168
1386398
1386620
1386838
1387056
1387284
1387512
1387734
1387958
1388184
1388410
1388634
1388856
1389080
1389292
1389510
1389732
1389964
1390180
1390398
1390616
1390840
1391070
1391290
1391516
1391734
1391952
1392170
1392386
1392602
1392812
1393016
1393222
1393432
1393642
1393860
1394080
1394304
1394530
1394754
1394972
1395188
1395396
1395600
1395812
1396022
1396240
1396452
1396670
1396884
1397090
1397292
1397494
1397706
1397924
1398150
1398368
1398588
1398808
1399024
1399240
1399450
1399660
1399860
1400066
1400268
1400470
1400668
1400868
1401074
1401280
1401490
1401702
1401908
1402120
1402336
1402554
1402770
1402988
1403208
1403430
1403650
1403866
1404082
1404292
1404500
1404706
1404916
1405126
1405336
1405546
1405760
1405978
1406200
1406416
1406626
1406834
1407040
1407246
1407452
1407656
1407856
1408052
1408248
1408448
1408652
1408854
1409054
1409254
1409452
1409662
1409874
1410078
1410286
1410484
1410684
1410888
1411092
1411294
1411504
1411720
1411940
1412166
1412392
1412618
1412840
1413062
1413278
1413492
1413706
1413924
1414146
1414370
1414590
1414800
1415028
1415286
1415552
1415806
1416036
1416262
1416468
1416680
1416896
1417114
1417344
1417586
1417836
1418080
1418300
1418516
1418744
1418968
1419194
1419424
1419656
1419888
1420132
1420384
1420642
1420910
1421172
1421428
1421666
1421894
1422122
1422350
1422582
1422814
1423040
1423264
1423484
1423710
1423960
1424208
1424462
1424696
1424928
1425146
1425354
1425558
1425758
1425956
1426156
1426362
1426574
1426790
1427002
1427210
1427418
1427620
1427824
1428032
1428238
1428452
1428670
1428882
1429100
1429318
1429536
1429764
1429988
1430226
1430462
1430684
1430898
1431106
1431324
1431564
1431810
1432052
1432276
1432506
1432728
1432968
1433218
1433466
1433702
1433920
1434138
1434348
1434556
1434754
1434956
1435162
1435370
1435586
1435800
1436018
1436240
1436450
1436662
1436880
1437100
1437330
1437560
1437782
1438008
1438220
1438432
1438638
1438848
1439052
1439258
1439472
1439700
1439922
1440142
1440356
1440560
1440764
1440970
1441182
1441394
1441612
1441828
1442058
1442286
1442520
1442754
1442986
1443222
1443460
1443704
1443952
1444198
1444454
1444714
1444984
1445240
1445492
1445732
1445976
1446226
1446472
1446714
1446946
1447180
1447416
1447640
1447858
1448074
1448290
1448512
1448726
1448948
1449180
1449420
1449660
1449894
1450130
1450368
1450616
1450866
1451094
1451312
1451532
1451752
1451982
1452222
1452472
1452722
1452978
1453236
1453490
1453744
1454002
1454266
1454530
1454780
1455032
1455290
1455560
1455826
1456082
1456336
1456588
1456830
1457052
1457264
1457474
1457706
1457948
1458188
1458428
1458652
1458874
1459098
1459316
1459518
1459716
1459914
1460110
1460310
1460512
1460734
1460962
1461186
1461414
1461634
1461852
1462062
1462278
1462494
1462716
1462934
1463138
1463344
1463556
1463774
1464000
1464242
1464494
1464748
1465008
1465260
1465512
1465762
1466012
1466266
1466522
1466782
1467050
1467324
1467582
1467842
1468116
1468402
1468668
1468934
1469192
1469450
1469700
1469938
1470178
1470424
1470674
1470914
1471146
1471382
1471646
1471906
1472152
1472388
1472616
1472838
1473054
1473266
1473480
1473708
1473944
1474186
1474432
1474672
1474906
1475126
1475344
1475562
1475770
1475986
1476206
1476426
1476642
1476858
1477076
1477294
1477520
1477754
1477996
1478238
1478486
1478722
1478950
1479170
1479388
1479606
1479822
1480034
1480256
1480470
1480710
1480970
1481244
1481508
1481764
1482016
1482266
1482510
1482740
1482962
1483182
1483408
1483642
1483868
1484096
1484328
1484560
1484788
1485010
1485232
1485454
1485682
1485916
1486150
1486378
1486602
1486832
1487064
1487302
1487530
1487760
1487990
1488226
1488460
1488680
1488900
1489120
1489342
1489556
1489758
1489956
1490150
1490342
1490536
1490734
1490934
1491142
1491358
1491594
1491816
1492040
1492258
1492476
1492696
1492902
1493112
1493314
1493514
1493714
1493918
1494124
1494332
1494530
1494726
1494924
1495130
1495344
1495562
1495786
1496010
1496224
1496436
1496646
1496848
1497054
1497262
1497476
1497702
1497938
1498182
1498424
1498656
1498884
1499104
1499316
1499530
1499744
1499968
1500204
1500428
1500660
1500896
1501136
1501370
1501592
1501822
1502052
1502274
1502500
1502718
1502946
1503168
1503390
1503614
1503836
1504062
1504288
1504518
1504758
1504992
1505220
1505448
1505682
1505918
1506152
1506384
1506618
1506852
1507076
1507300
1507524
1507748
1507978
1508222
1508468
1508706
1508938
1509164
1509390
1509616
1509846
1510080
1510310
1510532
1510752
1510960
1511168
1511376
1511596
1511828
1512064
1512294
1512520
1512752
1512984
1513210
1513432
1513652
1513872
1514088
1514310
1514540
1514794
1515060
1515324
1515574
1515820
1516052
1516284
1516512
1516740
1516976
1517234
1517492
1517742
1517980
1518206
1518430
1518658
1518884
1519098
1519322
1519542
1519778
1520020
1520254
1520490
1520726
1520962
1521202
1521440
1521680
1521912
1522138
1522354
1522564
1522782
1523010
1523246
1523480
1523702
1523920
1524136
1524354
1524574
1524796
1525016
1525234
1525448
1525660
1525872
1526082
1526290
1526500
1526718
1526936
1527156
1527368
1527578
1527790
1528004
1528218
1528424
1528636
1528854
1529076
1529302
1529526
1529746
1529964
1530182
1530400
1530616
1530824
1531032
1531242
1531440
1531642
1531848
1532052
1532264
1532484
1532708
1532936
1533152
1533368
1533582
1533796
1534012
1534228
1534436
1534648
1534860
1535070
1535280
1535486
1535694
1535910
1536130
1536350
1536562
1536768
1536980
1537188
1537396
1537602
1537804
1538004
1538210
1538418
1538626
1538840
1539046
1539258
1539472
1539684
1539892
1540096
1540296
1540496
1540692
1540890
1541084
1541288
1541502
1541712
1541922
1542124
1542326
1542522
1542712
1542902
1543090
1543286
1543486
1543682
1543878
1544072
1544264
1544462
1544662
1544852
1545044
1545236
1545432
1545630
1545830
1546032
1546234
1546440
1546644
1546848
1547048
1547236
1547424
1547628
1547846
1548072
1548298
1548510
1548718
1548926
1549132
1549346
1549552
1549760
1549968
1550174
1550382
1550586
1550782
1550980
1551176
1551378
1551594
1551810
1552032
1552262
1552494
1552722
1552946
1553158
1553366
1553572
1553772
1553982
1554192
1554412
1554640
1554872
1555116
1555366
1555612
1555848
1556078
1556304
1556524
1556742
1556970
1557208
1557444
1557698
1557944
1558196
1558458
1558708
1558946
1559182
1559414
1559644
1559866
1560078
1560288
1560496
1560710
1560924
1561154
1561372
1561588
1561798
1562004
1562218
1562430
1562644
1562866
1563086
1563310
1563532
1563742
1563954
1564172
1564400
1564634
1564856
1565070
1565294
1565524
1565756
1565984
1566204
1566420
1566640
1566864
1567088
1567306
1567520
1567736
1567958
1568188
1568416
1568648
1568884
1569116
1569342
1569552
1569760
1569970
1570188
1570410
1570642
1570880
1571116
1571352
1571582
1571802
1572012
1572214
1572418
1572622
1572828
1573042
1573272
1573510
1573754
1574004
1574242
1574480
1574714
1574942
1575180
1575402
1575634
1575880
1576144
1576410
1576650
1576894
1577134
1577374
1577602
1577830
1578060
1578292
1578528
1578760
1578980
1579204
1579422
1579642
1579860
1580078
1580288
1580502
1580716
1580928
1581146
1581356
1581576
1581796
1582024
1582258
1582488
1582722
1582954
1583188
1583414
1583630
1583854
1584076
1584304
1584544
1584788
1585032
1585272
1585500
1585714
1585918
1586134
1586352
1586582
1586810
1587042
1587258
1587470
1587678
1587890
1588106
1588316
1588532
1588748
1588962
1589176
1589382
1589586
1589780
1589974
1590170
1590380
1590584
1590800
1591030
1591280
1591522
1591744
1591972
1592192
1592414
1592632
1592844
1593056
1593268
1593482
1593702
1593920
1594142
1594364
1594594
1594824
1595044
1595254
1595466
1595678
1595892
1596108
1596330
1596544
1596760
1596972
1597190
1597406
1597622
1597846
1598066
1598290
1598510
1598728
1598944
1599160
1599378
1599602
1599822
1600030
1600238
1600456
1600676
1600906
1601134
1601362
1601586
1601806
1602022
1602240
1602452
1602680
1602916
1603164
1603418
1603668
1603912
1604152
1604384
1604604
1604812
1605024
1605234
1605458
1605692
1605926
1606156
1606388
1606656
1606920
1607176
1607422
1607660
1607882
1608098
1608308
1608520
1608740
1608972
1609212
1609452
1609690
1609928
1610170
1610406
1610640
1610874
1611114
1611358
1611606
1611848
1612100
1612374
1612662
1612926
1613170
1613388
1613620
1613858
1614086
1614318
1614538
1614748
1614966
1615190
1615430
1615670
1615918
1616164
1616402
1616638
1616862
1617094
1617328
1617574
1617840
1618116
1618404
1618688
1618962
1619234
1619508
1619790
1620066
1620340
1620618
1620908
1621188
1621468
1621750
1622036
1622302
1622552
1622808
1623088
1623382
1623672
1623964
1624260
1624548
1624822
1625084
1625340
1625602
1625838
1626080
1626322
1626556
1626780
1627004
1627234
1627468
1627710
1627950
1628172
1628404
1628642
1628892
1629152
1629408
1629654
1629886
1630116
1630354
1630624
1630900
1631166
1631414
1631642
1631868
1632088
1632312
1632538
1632762
1632984
1633206
1633424
1633656
1633874
1634096
1634326
1634558
1634794
1635038
1635272
1635510
1635750
1635988
1636228
1636462
1636684
1636906
1637126
1637346
1637546
1637748
1637948
1638152
1638352
1638558
1638768
1638992
1639222
1639438
1639660
1639876
1640094
1640318
1640542
1640770
1640998
1641228
1641458
1641680
1641902
1642120
1642332
1642540
1642746
1642956
1643168
1643380
1643604
1643820
1644046
1644270
1644492
1644712
1644928
1645142
1645358
1645582
1645804
1646024
1646252
1646488
1646724
1646952
1647180
1647404
1647624
1647842
1648052
1648258
1648460
1648668
1648872
1649084
1649292
1649502
1649714
1649962
1650210
1650462
1650722
1650980
1651236
1651482
1651720
1651954
1652192
1652430
1652668
1652910
1653160
1653410
1653658
1653898
1654132
1654372
1654616
1654864
1655108
1655344
1655576
1655814
1656054
1656272
1656482
1656690
1656896
1657094
1657296
1657498
1657706
1657912
1658124
1658346
1658558
1658770
1658980
1659184
1659388
1659590
1659784
1659976
1660166
1660358
1660554
1660762
1660972
1661184
1661402
1661632
1661872
1662102
1662332
1662572
1662826
1663074
1663304
1663538
1663764
1663994
1664222
1664444
1664666
1664896
1665126
1665360
1665588
1665818
1666052
1666278
1666502
1666722
1666932
1667146
1667360
1667576
1667800
1668010
1668234
1668460
1668702
1668952
1669206
1669444
1669682
1669918
1670158
1670386
1670616
1670850
1671098
1671352
1671592
1671830
1672064
1672298
1672540
1672770
1672996
1673228
1673470
1673714
1673954
1674204
1674462
1674712
1674950
1675184
1675416
1675650
1675898
1676144
1676388
1676640
1676886
1677128
1677358
1677580
1677794
1678004
1678222
1678482
1678752
1679022
1679294
1679538
1679768
1680002
1680238
1680484
1680730
1680974
1681226
1681492
1681754
1682020
1682282
1682542
1682804
1683066
1683318
1683568
1683822
1684076
1684322
1684572
1684814
1685036
1685254
1685468
1685684
1685902
1686128
1686362
1686588
1686812
1687036
1687262
1687498
1687730
1687964
1688210
1688466
1688726
1688968
1689196
1689416
1689636
1689856
1690086
1690314
1690552
1690782
1691030
1691294
1691548
1691782
1692020
1692252
1692488
1692712
1692934
1693166
1693414
1693672
1693922
1694172
1694426
1694686
1694940
1695188
1695418
1695642
1695872
1696102
1696340
1696576
1696800
1697014
1697220
1697432
1697654
1697896
1698162
1698434
1698714
1698986
1699258
1699524
1699782
1700032
1700276
1700510
1700728
1700934
1701152
1701384
1701650
1701934
1702208
1702498
1702788
1703062
1703318
1703560
1703804
1704046
1704282
1704524
1704766
1705012
1705262
1705522
1705786
1706054
1706320
1706588
1706846
1707092
1707334
1707562
1707774
1707988
1708230
1708484
1708766
1709040
1709304
1709562
1709822
1710076
1710310
1710536
1710770
1711010
1711256
1711504
1711748
1711996
1712242
1712476
1712716
1712964
1713224
1713482
1713722
1713974
1714234
1714498
1714748
1714996
1715268
1715544
1715808
1716056
1716310
1716556
1716796
1717036
1717276
1717524
1717782
1718038
1718294
1718546
1718800
1719056
1719300
1719538
1719766
1720004
1720256
1720502
1720744
1720990
1721244
1721488
1721730
1721956
1722186
1722408
1722648
1722894
1723146
1723400
1723652
1723902
1724144
1724364
1724588
1724808
1725030
1725258
1725486
1725716
1725950
1726194
1726444
1726684
1726928
1727174
1727420
1727662
1727892
1728126
1728360
1728602
1728854
1729112
1729380
1729662
1729932
1730190
1730436
1730668
1730902
1731134
1731366
1731600
1731838
1732076
1732310
1732540
1732766
1732992
1733222
1733452
1733674
1733900
1734116
1734336
1734552
1734762
1734962
1735162
1735358
1735556
1735754
1735942
1736136
1736340
1736554
1736766
1736980
1737184
1737384
1737578
1737774
1737966
1738158
1738342
1738526
1738708
1738892
1739074
1739256
1739432
1739608
1739786
1739962
1740138
1740320
1740512
1740698
1740894
1741092
1741296
1741502
1741708
1741908
1742112
1742314
1742514
1742718
1742920
1743120
1743322
1743520
1743716
1743924
1744130
1744338
1744550
1744756
1744960
1745166
1745362
1745556
1745748
1745942
1746138
1746340
1746542
1746758
1746978
1747204
1747440
1747668
1747904
1748118
1748334
1748554
1748768
1748972
1749176
1749410
1749660
1749912
1750160
1750398
1750636
1750874
1751110
1751338
1751570
1751806
1752048
1752290
1752524
1752762
1753002
1753240
1753478
1753698
1753936
1754178
1754432
1754680
1754914
1755146
1755378
1755614
1755838
1756050
1756266
1756490
1756712
1756942
1757158
1757368
1757574
1757778
1757990
1758198
1758416
1758642
1758890
1759154
1759404
1759658
1759904
1760152
1760398
1760624
1760858
1761104
1761374
1761656
1761934
1762196
1762452
1762764
1763060
1763352
1763626
1763888
1764142
1764410
1764680
1764952
1765216
1765478
1765736
1765984
1766230
1766462
1766688
1766908
1767134
1767374
1767612
1767832
1768064
1768396
1768688
1768950
1769214
1769462
1769720
1769978
1770244
1770520
1770800
1771076
1771354
1771634
1771922
1772198
1772474
1772768
1773046
1773300
1773530
1773754
1773980
1774202
1774432
1774660
1774890
1775118
1775354
1775594
1775822
1776046
1776264
1776482
1776702
1776926
1777148
1777376
1777606
1777842
1778076
1778300
1778518
1778736
1778950
1779158
1779360
1779562
1779766
1779970
1780178
1780388
1780596
1780810
1781018
1781236
1781456
1781666
1781876
1782086
1782298
1782514
1782732
1782948
1783168
1783378
1783598
1783818
1784038
1784254
1784464
1784680
1784898
1785120
1785344
1785572
1785806
1786030
1786244
1786454
1786670
1786890
1787116
1787354
1787576
1787790
1788010
1788246
1788492
1788732
1788978
1789242
1789510
1789772
1790028
1790284
1790546
1790794
1791042
1791288
1791528
1791772
1792020
1792264
1792508
1792756
1793006
1793254
1793502
1793744
1793988
1794238
1794494
1794750
1795018
1795288
1795566
1795820
1796072
1796316
1796556
1796788
1796998
1797200
1797410
1797620
1797828
1798026
1798218
1798416
1798618
1798834
1799056
1799284
1799530
1799782
