peaks
81
361
646
892
1193
1482
1778
2072
2335
2644
2939
3191
3520
3831
4109
4405
4690
4975
5235
5571
5892
6193
6483
6776
7031
7331
7609
7894
8200
8479
8762
9043
9294
9604
9916
10196
10515
10782
11072
11356
11641
11908
12240
12547
12820
13124
13405
13673
13961
14252
14551
14866
15137
15423
15708
15961
16274
16571
16859
17147
17414
17720
17996
18255
18574
18861
19154
19437
19712
20001
20282
20544
20878
21171
21458
21736
22043
22305
22585
22911
23203
23475
23786
24083
24348
24633
24921
25218
25536
25805
26126
26400
26681
26986
27280
27604
27894
28190
28457
28768
29048
29343
29664
29954
30230
30544
30825
31089
31398
31693
31981
32275
32568
32826
33127
33390
33699
33994
34291
34591
34898
35191
35484
35801
36122
36434
36743
37058
37319
37634
37959
38280
38603
38914
39221
39524
39818
40139
40464
40773
41039
41362
41665
41943
42269
42575
42862
43177
43468
43743
44045
44339
44640
44960
45239
45529
45830
46092
46375
46681
46978
47265
47549
47815
48099
48377
48646
48964
49237
49524
49808
50087
50388
50656
50959
51262
51565
51840
52157
52435
52706
53037
53330
53636
53924
54236
54498
54813
55108
55399
55723
56017
56316
56603
56903
57172
57480
57791
58094
58375
58685
58952
59246
59548
59854
60130
60448
60717
61027
61295
61592
61887
62192
62482
62794
63077
63359
63668
63957
64289
64599
64907
65206
65514
65817
66134
66424
66750
67058
67326
67648
67914
68220
68543
68843
69139
69435
69693
70004
70292
70591
70918
71206
71470
71780
72055
72340
72646
72940
73229
73543
73805
74113
74393
74662
75001
75333
75633
75919
76194
76481
76777
77083
77392
77662
77985
78260
78557
78874
79173
79502
79778
80105
80390
80666
80978
81259
81598
81904
82201
82462
82779
83075
83386
83695
84006
84267
84583
84853
85152
85453
85727
86062
86353
86630
86944
87213
87500
87826
88128
88395
88716
89017
89283
89590
89894
90199
90512
90794
91062
91377
91650
91946
92248
92548
92834
93100
93409
93675
93961
94261
94545
94856
95145
95421
95702
95970
96271
96570
96843
97158
97451
97717
98029
98301
98605
98910
99209
99487
99779
100069
100327
100657
100968
101250
101543
101827
102107
102392
102689
102988
103318
103584
103903
104191
104477
104793
105097
105388
105712
106014
106280
106594
106891
107191
107523
107793
108089
108400
108666
108972
109274
109551
109874
110163
110452
110738
110992
111307
111604
111899
112196
112484
112763
113048
113336
113617
113952
114235
114531
114820
115110
115370
115712
116041
116360
116679
116992
117291
117581
117893
118176
118520
118840
119140
119433
119728
120058
120375
120682
120945
121262
121569
121830
122148
122453
122749
123066
123362
123626
123935
124204
124545
124832
125156
125429
125736
126006
126300
126606
126890
127192
127477
127743
128053
128319
128615
128910
129202
129492
129777
130039
130349
130608
130914
131215
131512
131773
132092
132369
132625
132956
133251
133524
133842
134119
134386
134698
134974
135274
135566
135859
136154
136441
136736
136995
137299
137602
137887
138185
138472
138732
139047
139320
139649
139927
140220
140508
140791
141077
141333
141667
141975
142257
142574
142867
143132
143431
143729
144048
144328
144646
144933
145216
145491
145810
146103
146402
146715
146994
147287
147590
147861
148160
148486
148787
149060
149371
149653
149912
150242
150525
150854
151132
151425
151713
151979
152310
152636
152947
153251
153560
153865
154174
154481
154789
155109
155383
155718
156041
156340
156658
156983
157303
157606
157897
158192
158457
158778
159113
159424
159727
160000
160315
160578
160891
161179
161516
161790
162105
162379
162666
162950
163231
163565
163848
164126
164442
164730
165029
165309
165617
165905
166226
166498
166826
167086
167407
167693
168052
168370
168651
168947
169209
169538
169825
170159
170453
170746
171036
171344
171610
171920
172232
172505
172830
173100
173406
173683
173956
174294
174587
174858
175155
175438
175693
176008
176295
176592
176880
177151
177444
177703
177985
178270
178567
178870
179161
179434
179744
180012
180277
180617
180904
181205
181470
181790
182053
182334
182644
182943
183214
183531
183812
184095
184378
184660
184936
185265
185541
185841
186125
186386
186673
186975
187283
187559
187874
188149
188430
188723
188996
189323
189606
189891
190188
190481
190739
191053
191381
191694
192000
192163
192545
192786
193204
193564
193737
194134
194304
194652
194819
195187
195356
195713
195883
196084
196256
196443
196629
196821
196974
199636
199946
200244
200554
200820
201120
201386
201552
201981
202348
202699
203016
203329
203588
203871
204133
204626
204820
205202
205366
205699
205866
206059
206225
206526
206697
206819
206991
207179
207410
207617
207793
207974
208157
208345
208511
208710
208905
209088
209419
209614
209773
209938
210115
210456
210852
211268
211711
212164
212526
212851
213224
213528
213824
214123
214421
214701
215008
215292
215618
215899
216212
216485
216763
217072
217380
217692
217972
218284
218580
218844
219153
219468
219744
220069
220227
220614
220851
221224
221494
221836
222008
222393
222793
222958
223514
223926
224115
224460
224627
225004
225178
225363
225576
225738
225906
226063
226202
226416
226616
226764
226931
227103
227304
227487
227654
227848
228036
228288
228523
228732
229035
229215
229406
229600
229885
233356
233643
233916
234185
234482
234782
235067
235352
235630
235885
236191
236467
236761
237060
237334
237622
237916
238191
238461
238760
239061
239350
239661
239947
240224
240504
240768
241079
241382
241651
241961
242240
242494
242796
242961
243351
243527
243854
244022
244387
244615
244960
245127
245486
245658
246029
246281
246655
246817
247162
247338
247728
248021
248174
248566
248872
249035
249404
249656
249821
250232
250407
250601
250841
251015
251199
251369
251530
251847
252012
252215
252392
252578
252759
252929
253087
253243
253418
253602
253991
255289
256142
256481
256651
257059
257228
257625
257793
257968
258160
258566
258740
259176
259348
259596
259747
259940
260156
260434
260686
260913
261106
261276
261489
261719
261880
262078
262242
262409
262603
262788
262966
263160
263328
263501
263681
263835
264015
264200
264378
264687
264884
265143
265369
265567
265946
266353
267429
267830
269187
270282
270440
270956
271103
271459
271630
271773
271898
272040
272221
272404
272539
272687
272845
273005
273182
273376
273546
276208
276498
276658
277585
277993
278171
278316
278463
278593
278731
278860
279001
279148
280985
281276
281553
281835
282134
282433
282724
283021
283295
283576
283861
284154
284466
284774
285042
285360
285518
285919
286089
287032
287762
288513
288698
288949
289107
289315
289546
289764
289939
290113
290324
290514
290695
293198
293493
293782
294066
294360
294628
294925
295253
295544
295838
296131
296423
296705
297029
297346
297636
297965
298129
298374
298525
298692
298872
299034
299201
299363
299561
301900
302067
302600
302852
304102
304240
304443
304610
304784
305833
306146
306452
306725
307007
307283
307549
307827
308137
308435
308697
309010
309287
309546
309870
310038
310633
310786
311112
311274
311493
311699
312011
312178
312410
312591
312752
312925
313084
313253
314839
315011
315673
315870
316287
316469
316720
316882
317105
317264
317430
317576
317718
317863
318127
318271
318491
318703
318948
320697
321758
322414
322688
322996
323279
323570
323856
324144
324412
324688
324963
325239
325555
325721
326114
326291
326845
326999
327238
327400
327544
327686
327947
328303
328667
328973
329290
329614
329956
330264
330578
330882
331177
331476
331754
331925
332334
332709
332870
333116
333279
333416
333603
333752
333965
334142
334317
334484
334707
334849
335119
335312
335519
335795
335977
336150
336461
336673
336889
337090
339803
340165
340465
340769
341050
341379
341656
341939
342221
342514
342802
343241
344046
344206
344789
344925
345144
345314
345493
345657
345815
345979
346134
346295
346473
346715
346896
348638
348808
349055
349266
349450
349629
349888
350227
350425
350613
350822
350977
351205
351406
351620
351841
352008
352229
352405
352611
352830
353054
353291
353446
353631
353868
354055
354273
354535
354706
354911
355068
355313
355750
356003
356212
356397
356684
356973
357167
357420
357622
357923
358186
358423
358694
358895
359123
359357
359614
359816
360029
360337
360557
360743
360892
361040
361173
361382
361558
361824
362032
362204
362369
362519
362677
362856
363078
363332
363560
363827
364092
364309
364469
364623
364761
364982
365299
365458
365680
365908
366095
366350
366542
366790
367000
367256
367543
367794
367965
368191
368389
368586
368812
369020
369318
369495
369638
369931
370088
370225
370521
370778
370936
371088
371258
371423
371569
371793
371971
372157
372372
372535
372682
372938
373093
373356
373562
373752
373900
374051
374314
374542
374783
375091
375395
375582
375877
376098
376278
376492
376668
376811
376959
377301
377552
377717
377990
378249
378485
378629
378775
379044
379225
379397
379624
379983
380219
380455
380610
380822
380961
381249
381538
381715
381865
382052
382261
382424
382654
382865
383133
383394
383624
383777
383913
384111
384255
384404
384662
384922
385128
385282
385504
385672
385821
385975
386234
386410
386642
386903
387105
388209
388538
389114
389690
390317
392062
392428
392794
393063
393363
393629
393902
394188
394476
394782
395086
395366
395644
395950
396224
396522
396830
397119
397411
397706
397956
398258
398536
398838
399133
399440
399720
400003
400264
400572
400860
401152
401453
401748
402017
402325
402595
402898
403170
403328
403942
404322
404553
404891
405157
405312
405716
405972
406286
406578
406876
407027
407413
407587
407944
408262
408559
408856
409141
409457
409771
410084
410361
410666
410926
411231
411498
411982
412372
412537
412899
413216
413505
413668
414055
414303
414703
415050
415205
415575
415748
416116
416297
416659
416827
417432
417837
418113
418559
418738
419093
419263
419634
419800
420151
420325
420719
420889
421268
421440
421788
421947
422329
422508
422875
423048
424317
424480
424830
425009
425348
425524
426057
426399
426574
427157
427742
428255
428770
429344
429490
430003
430526
431050
431605
432146
432664
433189
433333
433884
434393
434909
435458
435849
436015
436379
436553
436896
437054
437422
437597
437972
438141
438510
438676
439037
439196
439312
439563
439732
439942
440127
440430
440599
440734
441004
441201
441360
441522
441699
444234
444652
444824
445010
445415
445576
445768
446172
446341
446602
446765
446936
447084
447237
447399
447556
447708
447891
449690
449855
450046
450503
450683
451355
451526
451775
452151
452310
452580
452775
452997
453151
453302
453452
453693
453872
454021
454220
454371
454527
454696
457717
458261
458396
458598
459480
459630
459770
459953
460130
460307
460494
460656
460826
460953
461107
463000
463151
463383
463623
463776
464031
464983
465255
465546
465830
466122
466274
466404
466559
466731
468338
468482
468616
469272
469422
469540
469702
469983
470272
470587
470858
471134
471410
471664
471955
472118
472703
472958
473116
473256
473624
473782
473965
474342
474511
474711
475291
475907
476046
476603
476740
476923
477102
477411
477717
477994
478317
478478
478623
478771
478959
479179
479312
479479
479732
479887
480041
481409
481741
482097
482397
482546
482690
482830
483015
483224
483478
483648
483833
484009
484161
484322
484476
484831
485942
486383
486815
486979
487589
487900
488062
488284
488452
488618
488769
488910
489200
489471
489664
489819
489990
492435
492604
493145
493416
493581
493847
494044
494228
494375
494603
494818
494988
495179
495342
495540
495684
496782
497219
497668
498048
498217
498442
498605
498760
498922
499087
499245
499472
499679
499849
500248
501101
501550
501912
502243
502619
502784
503197
503559
503718
503958
504101
504300
504452
504873
505204
505525
505827
506120
506419
506725
507025
507300
507613
507766
508540
508712
508962
509120
509317
509499
509681
509894
510986
511284
511578
511880
512165
512439
512706
513017
513321
513601
513921
514079
514335
514825
515089
515531
515708
516741
516898
517111
517268
517473
518013
519021
520352
520504
520662
521023
521610
521815
522222
522393
522575
522799
522964
523109
523253
523397
523629
525620
525772
526146
526324
526948
527100
527301
527468
527675
527809
527966
528104
528368
528782
529338
529591
529740
529927
532677
532843
532979
533168
533364
533531
533728
533901
534060
534237
534433
534612
535987
536316
536616
536921
537229
537521
537862
538137
538420
538696
538990
539153
539283
539457
539595
539727
539926
540159
540344
540512
540739
540908
541048
541241
541387
541608
541817
541976
542278
542452
542651
542853
542981
544740
545012
545286
545569
545848
546126
546397
546662
546917
547181
547438
547721
547996
548281
548556
548829
549093
549355
549637
549928
550212
550498
550778
551032
551340
551610
551883
552184
552475
552628
552875
553029
553170
553325
553490
553679
553831
553988
554178
554375
554542
554723
554858
555012
555169
555326
555487
555652
555860
556102
556284
558812
559149
559497
559778
560049
560313
560604
560891
561207
561506
561768
562053
562339
562625
562928
563234
563521
563794
564110
564391
564671
564978
565137
565356
565525
565679
565852
566000
566146
566289
566450
566596
566755
566916
567078
567244
567413
567592
567752
569591
570427
570746
570901
571102
571274
571417
571628
573945
574253
574405
574547
574892
575191
575339
575470
575610
575778
575984
576179
576406
576554
576764
577025
577226
577403
577534
577688
577948
578166
578481
578626
578755
578898
579040
579185
579349
579585
579766
579935
580132
580381
580580
580737
580884
581033
581232
581466
581671
581853
582066
582300
582599
582845
582985
583219
583422
583656
583916
584113
584297
584581
584785
585000
585212
585431
585692
585862
586119
586310
586562
586932
587117
587254
587390
587608
587820
588072
588360
588594
588846
589009
589239
589458
589709
589942
590105
590283
590456
590704
590964
591184
591373
591628
591890
592225
592461
592619
592779
593083
593300
593442
593573
593702
593953
594206
594349
594550
594766
594940
595096
595252
595417
595650
595829
596050
596263
596489
596737
596915
597079
597272
597431
597713
597904
598044
598210
598505
598788
599022
599197
599471
599629
599883
600090
600268
600569
600862
601064
601197
601480
601730
601946
602242
602419
602694
602922
603088
603317
603465
603729
603909
604104
604398
604702
604899
605072
605373
605536
605746
605957
606155
606314
606596
606773
607031
607228
607431
607644
607890
608089
608258
608538
608723
608882
609036
609271
609519
609801
609988
610150
610345
610603
610813
611055
611342
611502
611704
611930
612082
612234
612520
612766
612922
613219
613436
613576
613798
613964
614181
614406
614615
614872
615042
615299
615454
615651
615790
615920
616117
616418
616701
616988
617305
617515
617773
617947
618098
618352
618524
618672
618815
619043
619341
619511
619747
619935
620080
620288
620512
620667
620949
621113
621401
621584
621757
621898
622095
622267
622524
622769
623035
623265
623498
623815
623984
624218
624444
624589
624839
625130
625349
625493
625751
625920
626207
626355
626494
626718
626958
627290
627524
627750
627950
628154
628425
628682
628872
629106
629411
629606
629757
629892
630172
630410
630623
630883
631187
631406
631646
631823
631972
632225
632453
632638
632909
633135
633361
633534
633797
634089
634337
634511
634742
634896
635209
635387
635624
635836
636034
636304
636615
636852
637057
637244
637426
637616
637816
638046
638367
638527
638712
638989
639134
639402
639659
639869
640033
640265
640511
640712
640943
641232
641413
641566
641694
641899
642111
642323
642658
642937
643152
643368
643560
643875
644043
644248
644387
644633
644819
644983
645244
645437
645569
645827
645982
646300
646461
646681
646976
647136
647386
647554
647721
648055
648240
648494
648719
648985
649157
649317
649600
649859
