peaks
180
527
847
1166
1512
1833
2460
2789
3088
3420
3754
4058
4386
4720
5035
5378
5740
6060
6415
6799
7122
7480
7827
8138
8478
8818
9137
9497
9853
10182
10538
10893
11224
11582
11917
12236
12589
12941
13261
13618
13949
14283
14626
14968
15288
15638
15977
16305
16651
17018
17353
17707
18049
18371
18715
19055
19366
19721
20054
20374
20730
21068
21383
21731
22060
22378
22726
23074
23396
23747
24084
24405
24769
25120
25446
25810
26157
26492
26841
27195
27546
27874
28205
28557
28888
29234
29593
29926
30280
30637
30975
31325
31692
32019
32360
32704
33027
33357
33712
34026
34652
34976
35587
36208
36840
37444
38056
38654
39264
39863
40458
41059
41648
42221
42788
43357
43937
44526
45113
45692
46256
46817
47398
48009
48598
49184
49782
50372
50970
51559
52143
52598
52995
53239
53392
53780
54109
54441
54771
55090
55426
55789
56118
56479
56844
57192
57568
57932
58262
58604
58936
59265
59606
59959
60294
60657
61029
61370
61748
62120
62478
62854
63230
63573
63939
64281
64621
65004
65351
65701
66056
66394
66731
67097
67453
67825
68199
68548
68893
69244
69585
69934
70283
70634
70984
71334
71695
72036
72387
72744
73083
73433
73793
74123
74487
74837
75177
75532
75898
76233
76592
76955
77294
77653
78011
78337
78680
79028
79345
79685
80032
80342
80671
81026
81344
81676
82037
82371
82690
83045
83376
83692
84042
84376
84685
85036
85367
85678
86009
86336
86644
86978
87324
87649
87991
88363
88714
89054
89411
89752
90083
90426
90758
91082
91423
91786
92113
92457
92816
93168
93508
93868
94192
94522
94867
95208
95527
95886
96207
96540
96886
97233
97557
97917
98261
98578
98923
99269
99597
99931
100285
100604
100945
101283
101596
101956
102308
102631
102985
103328
103649
103997
104330
104651
105012
105354
105683
106043
106389
106720
107085
107428
107764
108120
108462
108790
109140
109475
109808
110152
110490
110822
111172
111531
111895
112220
112568
112919
113248
113595
113947
114266
114617
114964
115286
115619
115962
116268
116604
116935
117253
117597
117967
118277
118625
118956
119586
119920
120528
121158
121792
122399
123028
123617
124212
124796
125390
125983
126571
127169
127760
128357
128937
129534
130142
130741
131333
131917
132504
133098
133710
134328
134960
135588
136196
136789
137380
137958
138546
139135
139726
140324
140911
141497
142076
142650
143212
143785
144377
144962
145553
146154
146739
147328
147947
148541
149156
149750
150328
150922
151508
152128
152722
153335
153947
154535
155139
155715
156290
156869
157455
158055
158630
159212
159779
160365
160959
161534
162132
162704
163301
163891
164490
165111
165723
166321
166941
167553
168169
168782
169424
170054
170678
171323
171936
172530
173129
173722
174329
174937
175543
176150
176737
177321
177918
178506
179114
179708
180291
180887
181481
182112
182720
183344
183946
184557
185166
185792
186385
187010
187630
188246
188855
189437
190038
190637
191243
191860
192440
193043
193620
194227
194800
195385
195959
196542
197141
197748
198348
198938
199529
200117
200688
201263
201877
202466
202778
203082
203401
203759
204097
204451
204824
205179
205515
205886
206224
206546
206875
207202
207510
207849
208172
208473
208803
209149
209462
209802
210145
210459
210799
211144
211462
211795
212146
212489
212820
213206
213569
213922
214290
214653
215020
215397
215762
216106
216446
216793
217130
217489
217859
218203
218573
218946
219307
219670
220031
220365
220719
221073
221401
221755
222104
222426
222780
223139
223462
223820
224158
224477
224822
225157
225471
225825
226174
226503
226836
227184
227520
227846
228180
228497
228803
229130
229461
229793
230115
230482
230833
231164
231543
231928
232261
232614
232972
233298
233650
234011
234330
234676
235029
235345
235690
236036
236343
236678
237027
237349
237669
237997
238316
238629
238964
239298
239631
239955
240322
240676
241005
241358
241717
242047
242398
242753
243086
243446
243804
244128
244475
244816
245137
245461
245809
246139
246460
246806
247152
247468
247818
248155
248479
248814
249156
249469
249810
250148
250470
250807
251159
251475
251802
252139
252483
252805
253168
253518
253854
254192
254542
254873
255216
255557
255887
256228
256558
257202
257519
257838
258168
258506
258833
259193
259550
259891
260237
260591
260935
261274
261625
261962
262284
262627
262958
263271
263624
263965
264273
264619
264972
265306
265649
266000
266341
266682
267047
267402
267749
268107
268450
268788
269130
269465
269783
270112
270439
270755
271083
271405
271722
272051
272389
272711
273082
273436
273783
274132
274483
274814
275162
275485
275803
276129
276465
276784
277148
277511
277864
278222
278591
278951
279281
279629
279988
280320
280663
281011
281342
281679
282014
282346
282673
283035
283387
283729
284078
284427
284761
285111
285453
285784
286108
286447
286771
287105
287442
287766
288381
288998
289634
290248
290882
291486
292078
292654
293228
293815
294384
294987
295575
296157
296740
297320
297915
298517
299105
299695
300268
300839
301417
301988
302591
303179
303816
304426
305036
305636
306215
306815
307395
307984
308569
309174
309796
310384
311002
311612
312229
312841
313460
314067
314666
315238
315835
316429
317033
317640
318252
318864
319461
320054
320667
321285
321884
322490
323087
323713
324327
324937
325556
326143
326746
327341
327938
328541
329132
329744
330341
330942
331555
332154
332749
333351
333932
334532
335116
335737
336336
336943
337571
338172
338797
339404
340015
340614
341196
341787
342388
342991
343619
344215
344830
345431
346020
346606
347210
347817
348420
349025
349631
350244
350832
351430
352005
352585
353174
353758
354360
354940
355549
356126
356708
357299
357880
358489
359089
359720
360340
360965
361583
362172
362762
363356
363960
364553
365159
365751
366352
366948
367542
368145
368752
369361
369968
370587
371228
371838
372443
373023
373609
374209
374824
375459
376064
376379
376677
377028
377370
377689
378070
378455
378817
379216
379578
379932
380300
380645
380990
381350
381694
382027
382367
382705
383040
383379
383723
384042
384400
384754
385099
385448
385799
386130
386492
386850
387195
387549
387898
388225
388562
388889
389207
389528
389858
390180
390531
390901
391247
391601
391968
392312
392660
393029
393361
393709
394071
394412
394770
395150
395487
395832
396170
396485
396820
397164
397474
397822
398184
398511
398863
399244
399591
399928
400279
400623
400961
401311
401669
402005
402376
402733
403076
403413
403744
404067
404406
404746
405063
405388
405725
406050
406385
406755
407106
407430
407777
408124
408435
408785
409128
409441
409752
410082
410400
410727
411074
411430
411766
412143
412494
412844
413195
413544
413874
414224
414573
414914
415265
415613
415944
416291
416633
416967
417307
417658
418007
418333
418672
419030
419346
419703
420088
420425
420817
421189
421531
421870
422209
422526
422890
423254
423594
423969
424333
424676
425045
425390
425720
426061
426390
426728
427067
427402
427762
428116
428457
428828
429178
429506
429870
430234
430581
430972
431347
431705
432067
432411
432750
433065
433387
433692
434287
434894
435475
436069
436666
437262
437877
438484
439083
439689
440275
440900
441481
442095
442689
443280
443870
444438
445020
445603
446187
446770
447349
447958
448583
448891
449200
449567
449942
450300
450728
451121
451490
451859
452198
452553
452904
453250
453579
453905
454224
454575
454916
455251
455616
455974
456313
456672
457008
457331
457682
458000
458325
458645
459236
459830
460417
461002
461595
462176
462762
463354
463956
464563
465164
465774
466372
466941
467520
468106
468709
469323
469943
470592
471207
471838
472446
473043
473635
474222
474808
475414
476006
476611
477208
477801
478411
479012
479630
480237
480849
481486
482086
482710
483309
483928
484534
485139
485739
486341
486920
487508
488089
488673
489286
489905
490522
491140
491758
492377
492987
493594
494213
494820
495414
496012
496593
497203
497804
498437
499064
499685
500311
500894
501505
502099
502689
503280
503872
504469
505086
505702
506321
506954
507577
507901
508210
508531
508878
509207
509536
509886
510214
510562
510934
511276
511633
512002
512344
512705
513073
513410
513758
514109
514432
514785
515143
515478
515837
516198
516545
516904
517274
517621
517993
518350
518713
519062
519409
519779
520117
520478
520833
521191
521554
521909
522270
522635
522994
523356
523729
524078
524432
524792
525136
525509
525890
526233
526598
526974
527326
527691
528042
528377
528740
529104
529435
529800
530149
530479
530826
531169
531484
531834
532174
532490
532848
533195
533517
533869
534212
534539
534895
535236
535565
535934
536285
536613
536976
537316
537655
537999
538375
538726
539080
539444
539801
540146
540522
540876
541254
541646
542002
542365
542740
543088
543454
543806
544136
544495
544860
545203
545589
545959
546300
546676
547014
547353
547716
548054
548388
548742
549083
549436
549809
550185
550535
550915
551300
551652
552025
552395
552737
553094
553450
553777
554123
554474
554817
555161
555532
555864
556192
556529
556844
557185
557556
557877
558244
558624
558960
559333
559669
559997
560317
560671
560987
561345
561694
562019
562389
562769
563100
563491
563848
564187
564563
564907
565249
565589
565911
566233
566581
566917
567259
567621
567973
568306
568686
569038
569387
569745
570091
570432
570780
571136
571467
571804
572144
572466
572812
573168
573489
573843
574192
574529
574878
575238
575572
575930
576308
576649
577008
577368
577692
578028
578353
578987
579311
579611
579951
580299
580617
580979
581353
581694
582051
582417
582749
583113
583457
583791
584160
584515
584838
585185
585514
585830
586171
586512
586834
587195
587541
587875
588250
588598
588945
589299
589649
589980
590345
590689
591029
591372
591710
592040
592373
592713
593044
593392
593748
594082
594427
594790
595130
595458
595827
596196
596534
596912
597272
597607
597989
598340
598673
599023
599348
599672
600021
600364
600714
601059
601414
601753
602101
602458
602806
603157
603501
603848
604196
604532
604875
605208
605542
605874
606208
606562
606903
607249
607607
607946
608301
608668
609005
609344
609687
610033
610366
610725
611073
611404
611761
612120
612453
612814
613154
613488
613849
614204
614562
614924
615302
615663
616030
616393
616741
617089
617436
617781
618123
618480
618817
619150
619500
619838
620181
620554
620887
621239
621603
621947
622301
622668
623007
623348
623704
624049
624391
624746
625097
625432
625787
626128
626466
626801
627136
627465
627805
628156
628490
628822
629175
629549
629886
630251
630604
630928
631281
631632
631950
632297
632622
633251
633581
633890
634242
634586
634907
635261
635623
635962
636346
636708
637058
637432
637787
638134
638493
638825
639161
639513
639853
640204
640560
640922
641265
641629
641990
642344
642707
643074
643424
643775
644141
644480
644833
645174
645514
645838
646167
646801
647128
647439
647777
648124
648456
648811
649142
649501
649862
