peaks
75010
75283
75544
75814
76086
76350
76616
76883
77138
77402
77669
77926
78187
78447
78699
78955
79212
79469
79723
79978
80243
80500
80761
81032
81297
81562
81835
82103
82367
82641
82917
83181
83455
83731
83994
84262
84540
84806
85075
85350
85624
85889
86161
86434
86694
86964
87238
87500
87770
88041
88304
88569
88844
89110
89372
89647
89921
90186
90456
90730
90991
91258
91534
91798
92068
92345
92611
92878
93154
93417
93688
93962
94223
94490
94763
95027
95297
95570
95830
96092
96359
96619
96885
97141
97398
97661
97918
98183
98449
98706
98977
99253
99522
99784
100057
100329
100593
100868
101140
101407
101683
101964
102231
102508
102788
103059
103327
103602
103868
104130
104402
104674
104932
105205
105476
105735
106003
106277
106542
106805
107079
107354
107619
107890
108166
108439
108705
108975
109250
109523
109792
110067
110342
110607
110881
111158
111428
111699
111981
112253
112518
112792
113067
113329
113601
113871
114131
114403
114671
114931
115201
115467
115728
115999
116264
116528
116798
117070
117332
117606
117880
118146
118416
118695
118970
119238
119516
119794
120064
120338
120620
120895
121160
121441
121716
121986
122260
122540
122819
123089
123370
123656
123927
124201
124481
124750
125020
125297
125558
125827
126101
126370
126633
126906
127172
127435
127710
127985
128247
128523
128800
129070
129334
129609
129885
130154
130425
130700
130971
131240
131517
131790
132059
132333
132610
132882
133150
133429
133712
133980
134254
134541
134820
135086
135364
135628
135899
136166
136435
136695
136969
137234
137495
137766
138030
138292
138564
138834
139096
139370
139644
139906
140182
140456
140725
140993
141270
141540
141806
142084
142364
142636
142911
143191
143471
143743
144027
144308
144583
144862
145148
145434
145709
145992
146282
146566
146846
147132
147420
147702
147979
148269
148556
148835
149112
149398
149667
149934
150210
150471
150741
151008
151271
151547
151814
152072
152344
152616
152878
153149
153424
153688
153960
154236
154510
154773
155055
155336
155611
155886
156167
156447
156725
157009
157296
157575
157857
158142
158428
158707
158990
159279
159566
159847
160131
160421
160702
160975
161261
161549
161823
162099
162384
162660
162924
163202
163484
163751
164027
164304
164574
164840
165117
165394
165660
165933
166213
166487
166756
167035
167315
167588
167866
168148
168421
168694
168976
169256
169529
169807
170090
170371
170644
170923
171209
171486
171757
172040
172322
172605
172877
173154
173438
173721
173999
174273
174557
174831
175097
175379
175663
175936
176218
176502
176777
177040
177322
177600
177871
178143
178422
178701
178972
179252
179530
179804
180084
180365
180634
180912
181196
181467
181734
182012
182295
182565
182836
183116
183392
183653
183932
184212
184482
184741
185022
185300
185569
185845
186130
186412
186683
186963
187248
187523
187794
188080
188364
188639
188911
189193
189476
189752
190026
190309
190602
190885
191156
191437
191723
191999
192262
192544
192829
193100
193367
193645
193928
194197
194467
194745
195027
195300
195567
195849
196129
196402
196676
196956
197240
197516
197788
198076
198363
198649
198926
199204
199489
199777
200056
200333
200621
200900
201172
201457
201739
202018
202284
202568
202834
203094
203372
203646
203907
204182
204464
204737
205009
205298
205588
205866
206139
206426
206713
206993
207271
207558
207846
208127
208407
208696
208984
209265
209540
209828
210117
210405
210687
210967
211258
211548
211830
212105
212392
212679
212953
213223
213506
213788
214057
214333
214617
214901
215170
215451
215734
216018
216300
216582
216867
217144
217415
217698
217984
218261
218533
218814
219104
219383
219653
219937
220225
220506
220782
221066
221351
221629
221901
222188
222472
222748
223030
223312
223585
223862
224157
224444
224712
224979
225272
225550
225819
226091
226356
226632
226912
227173
227448
227722
227984
228259
228536
228804
229069
229347
229628
229900
230174
230457
230739
231017
231294
231578
231863
232139
232422
232707
232991
233268
233551
233834
234121
234406
234682
234977
235271
235557
235832
236126
236420
236699
236984
237276
237552
237834
238129
238409
238676
238955
239241
239517
239781
240061
240344
240621
240890
241175
241458
241733
242008
242293
242577
242853
243131
243413
243692
243968
244253
244538
244813
245098
245388
245665
245936
246214
246491
246766
247026
247296
247550
247812
248074
248323
248576
248835
249089
249342
249605
249865
250115
250381
250654
250913
251184
251460
251732
251999
252280
252562
252838
253114
253396
253677
253952
254231
254513
254799
255086
255362
255644
255930
256220
256496
256781
257077
257361
257629
257912
258191
258462
258749
259018
259299
259582
259852
260125
260403
260667
260934
261212
261491
261761
262027
262306
262586
262859
263130
263409
263690
263960
264237
264521
264804
265080
265360
265646
265931
266208
266487
266768
267055
267339
267622
267915
268202
268483
268767
269041
269316
269598
269876
270145
270427
270705
270973
271249
271531
271802
272070
272350
272627
272897
273173
273451
273724
273993
274272
274554
274830
275104
275390
275677
275961
276245
276522
276811
277103
277394
277678
277964
278260
278556
278835
279119
279414
279702
279972
280259
280547
280819
281088
281373
281656
281931
282205
282484
282764
283035
283312
283594
283871
284144
284425
284704
284985
285263
285545
285829
286108
286380
286663
286952
287230
287510
287804
288092
288371
288644
288936
289213
289488
289775
290045
290320
290601
290867
291141
291421
291702
291970
292245
292526
292808
293081
293348
293632
293915
294195
294478
294758
295032
295312
295596
295878
296152
296435
296716
297001
297285
297559
297844
298133
298417
298705
298989
299275
299546
299832
300094
300362
300626
300896
301149
301418
301689
301946
302215
302489
302755
303017
303299
303579
303856
304133
304420
304705
304987
305264
305551
305842
306122
306403
306690
306980
307265
307541
307831
308123
308408
308689
308977
309271
309555
309847
310135
310405
310703
311002
311276
311564
311859
312122
312406
312693
312961
313244
313530
313810
314077
314357
314642
314922
315188
315470
315751
316031
316303
316589
316876
317161
317436
317721
318007
318287
318571
318868
319173
319472
319761
320042
320337
320636
320923
321203
321494
321769
322042
322330
322620
322893
323181
323467
323757
324037
324319
324608
324896
325174
325456
325741
326029
326308
326591
326877
327167
327450
327730
328018
328302
328591
328875
329159
329423
329703
329979
330252
330541
330815
331096
331377
331638
331916
332195
332457
332734
333013
333291
333552
333836
334123
334406
334682
334968
335257
335538
335810
336099
336397
336682
336958
337247
337536
337819
338094
338381
338668
338947
339223
339510
339798
340084
340360
340654
340943
341224
341497
341774
342043
342308
342564
342823
343082
343341
343605
343856
344108
344358
344621
344891
345148
345416
345698
345982
346255
346530
346814
347100
347374
347658
347948
348233
348506
348790
349074
349362
349642
349920
350204
350490
350771
351051
351342
351634
351923
352205
352502
352800
353090
353367
353653
353949
354232
354494
354777
355056
355308
355577
355841
356099
356359
356617
356872
357118
357366
357610
357855
358103
358330
358576
358820
359050
359299
359544
359780
360034
360295
360551
360817
361068
361324
361573
361825
362082
362335
362594
362860
363133
363397
363663
363940
364219
364489
364758
365038
365319
365602
365871
366153
366433
366705
366978
367255
367535
367808
368078
368356
368638
368918
369190
369466
369747
370032
370310
370588
370870
371154
371436
371717
371989
372272
372560
372846
373125
373408
373698
373975
374245
374524
374790
375068
375337
375602
375879
376153
376417
376693
376970
377237
377510
377789
378066
378333
378611
378890
379164
379436
379715
379996
380278
380552
380833
381116
381399
381675
381962
382248
382535
382817
383105
383396
383688
383975
384262
384556
384841
385115
385407
385693
385960
386246
386528
386800
387083
387359
387624
387904
388182
388447
388719
388997
389272
389539
389819
390101
390377
390653
390936
391216
391491
391774
392060
392343
392624
392900
393184
393469
393754
394046
394328
394612
394904
395184
395466
395758
396046
396321
396604
396891
397166
397438
397719
398002
398277
398558
398841
399116
399392
399675
399960
400240
400518
400804
401090
401371
401649
401929
402215
402500
402773
403047
403332
403618
403888
404170
404460
404738
405010
405292
405574
405844
406123
406406
406682
406953
407238
407525
407803
408082
408367
408646
408926
409210
409500
409789
410069
410346
410632
410920
411202
411480
411768
412055
412332
412613
412900
413177
413449
413738
414024
414297
414583
414878
415162
415435
415726
416015
416294
416563
416852
417136
417416
417694
417975
418249
418534
418817
419093
419377
419664
419954
420233
420516
420802
421086
421367
421653
421941
422226
422506
422787
423073
423355
423633
423920
424211
424496
424770
425050
425316
425585
425867
426124
426384
426647
426908
427156
427423
427692
427949
428216
428493
428764
429036
429320
429608
429884
430166
430454
430741
431018
431293
431580
431865
432142
432425
432714
432995
433272
433556
433844
434133
434413
434705
434998
435293
435592
435883
436174
436474
436771
437056
437343
437640
437929
438194
438486
438778
439059
439325
439605
439866
440143
440414
440676
440952
441228
441492
441768
442049
442323
442590
442867
443148
443425
443703
443988
444274
444551
444831
445119
445408
445688
445971
446259
446545
446828
447109
447399
447689
447974
448253
448551
448846
449134
449423
449721
450009
450276
450560
450831
451110
451397
451659
451937
452208
452472
452752
453031
453301
453569
453852
454130
454402
454678
454962
455245
455516
455794
456078
456359
456637
456922
457210
457488
457772
458060
458346
458627
458906
459197
459492
459778
460059
460354
460656
460944
461228
461507
461790
462063
462353
462644
462923
463180
463464
463754
464040
464316
464595
464878
465157
465426
465707
465989
466265
466543
466825
467111
467387
467664
467950
468234
468512
468792
469070
469348
469632
469914
470193
470483
470777
471063
471340
471616
471894
472162
472450
472723
473001
473288
473565
473826
474108
474383
474649
474929
475209
475478
475748
476031
476313
476585
476856
477143
477424
477696
477967
478250
478534
478814
479092
479380
479669
479953
480230
480515
480800
481082
481369
481653
481938
482219
482493
482787
483075
483357
483633
483924
484214
484493
484766
485054
485341
485616
485884
486172
486454
486725
486995
487277
487556
487829
488114
488401
488685
488964
489232
489517
489809
490097
490377
490659
490949
491236
491516
491790
492077
492364
492633
492915
493198
493472
493743
494030
494313
494591
494868
495143
495425
495700
495976
496261
496548
496830
497101
497383
497667
497951
498224
498491
498777
499067
499348
499611
499898
500184
500463
500731
501020
501310
501586
501869
502153
502434
502719
503006
503289
503576
503867
504146
504433
504720
505004
505282
505571
505860
506134
506416
506705
506983
507251
507538
507823
508103
508369
508652
508935
509209
509491
509772
510049
510316
510605
510892
511173
511445
511731
512019
512298
512571
512861
513149
513430
513699
513980
514261
514535
514808
515081
515361
515634
515903
516194
516485
516761
517033
517323
517611
517893
518167
518453
518742
519023
519299
519587
519873
520157
520429
520713
520998
521277
521553
521840
522123
522403
522679
522966
523257
523545
523825
524110
524400
524686
524960
