peaks
75098
75303
75505
75708
75908
76109
76312
76517
76722
76924
77129
77335
77543
77749
77950
78151
78355
78559
78762
78966
79171
79377
79587
79795
79999
80201
80404
80611
80817
81019
81225
81431
81637
81846
82051
82254
82460
82666
82872
83078
83282
83486
83688
83895
84100
84303
84501
84702
84906
85110
85314
85514
85716
85921
86127
86331
86535
86735
86935
87135
87338
87541
87739
87943
88145
88347
88552
88753
88945
89136
89324
89513
89699
89888
90075
90268
90462
90656
90853
91053
91255
91458
91661
91866
92070
92273
92475
92667
92838
93090
93311
93522
93730
93935
94138
94345
94551
94755
94962
95169
95379
95590
95798
96003
96213
96422
96639
96854
97066
97279
97492
97700
97904
98107
98311
98515
98718
98917
99119
99325
99531
99736
99937
100144
100352
100558
100761
100966
101170
101376
101581
101783
101986
102192
102399
102601
102805
103005
103213
103420
103623
103830
104036
104243
104454
104661
104868
105074
105279
105491
105699
105905
106108
106315
106522
106733
106940
107145
107351
107559
107768
107975
108180
108388
108595
108807
109015
109220
109426
109638
109847
110055
110262
110470
110678
110889
111095
111298
111503
111708
111916
112122
112324
112529
112735
112941
113146
113348
113553
113759
113965
114169
114371
114576
114782
114986
115186
115389
115592
115797
116002
116203
116404
116607
116810
117015
117217
117421
117626
117833
118043
118248
118455
118663
118871
119079
119285
119490
119695
119900
120105
120313
120515
120719
120925
121132
121337
121542
121748
121954
122163
122370
122576
122781
122986
123194
123401
123607
123811
124019
124228
124437
124645
124850
125056
125267
125476
125682
125887
126090
126301
126510
126713
126917
127122
127328
127537
127743
127945
128151
128354
128562
128766
128965
129166
129371
129578
129783
129984
130186
130391
130598
130804
131009
131214
131420
131629
131838
132044
132206
132451
132677
132894
133105
133313
133521
133733
133946
134155
134360
134567
134772
134983
135190
135394
135599
135804
136011
136217
136418
136619
136822
137026
137228
137435
137637
137840
138045
138252
138457
138662
138866
139070
139274
139480
139685
139887
140088
140294
140505
140713
140920
141126
141335
141548
141758
141966
142173
142385
142594
142805
143013
143218
143424
143635
143843
144046
144252
144458
144664
144872
145081
145288
145495
145700
145910
146121
146328
146531
146740
146946
147155
147359
147562
147767
147973
148178
148386
148588
148793
149001
149208
149414
149625
149830
150036
150241
150452
150659
150864
151069
151276
151487
151694
151899
152104
152312
152522
152730
152933
153138
153344
153553
153760
153965
154166
154369
154573
154779
154985
155188
155397
155606
155815
156022
156228
156437
156646
156851
157059
157263
157469
157676
157884
158092
158241
158494
158716
158928
159136
159339
159544
159748
159954
160162
160366
160571
160779
160991
161200
161409
161612
161820
162027
162235
162440
162646
162853
163060
163268
163478
163682
163889
164096
164305
164516
164724
164929
165136
165287
165537
165762
165977
166189
166403
166613
166823
167030
167237
167445
167657
167866
168072
168279
168489
168699
168911
169122
169328
169532
169741
169951
170157
170364
170570
170777
170986
171195
171403
171611
171815
172025
172237
172445
172651
172858
173061
173271
173481
173689
173892
174101
174312
174524
174736
174942
175150
175363
175576
175787
175993
176202
176410
176620
176830
177035
177242
177449
177659
177869
178077
178281
178485
178695
178904
179111
179317
179524
179733
179941
180147
180352
180559
180765
180974
181180
181387
181591
181797
182006
182214
182420
182626
182830
183037
183248
183456
183660
183867
184072
184282
184490
184693
184901
185108
185318
185525
185734
185938
186145
186358
186567
186774
186980
187187
187399
187611
187820
188026
188237
188449
188661
188869
189074
189280
189489
189700
189908
190113
190320
190526
190737
190947
191153
191358
191563
191770
191977
192181
192386
192589
192796
193004
193213
193420
193627
193835
194048
194258
194468
194676
194883
195091
195300
195507
195709
195918
196125
196337
196548
196754
196961
197167
197371
197578
197787
197988
198191
198398
198606
198813
199014
199218
199425
199633
199838
200044
200249
200457
200669
200879
201085
201291
201502
201712
201921
202128
202337
202545
202753
202964
203169
203375
203582
203790
203999
204206
204412
204620
204825
205033
205245
205454
205662
205870
206080
206293
206504
206711
206920
207131
207342
207550
207755
207958
208166
208375
208581
208784
208988
209194
209403
209611
209818
210016
210214
210410
210606
210804
211003
211204
211405
211608
211810
212017
212226
212433
212639
212847
213055
213265
213471
213676
213881
214087
214296
214502
214702
214907
215114
215322
215530
215735
215942
216146
216356
216566
216771
216977
217184
217398
217606
217813
218021
218231
218444
218656
218862
219072
219285
219500
219715
219924
220136
220348
220566
220778
220986
221193
221403
221614
221821
222030
222236
222441
222651
222862
223068
223274
223479
223685
223894
224101
224304
224509
224714
224921
225128
225330
225535
225742
225951
226159
226366
226571
226778
226986
227195
227397
227603
227808
228012
228219
228426
228628
228834
229039
229250
229461
229668
229877
230089
230299
230508
230719
230924
231131
231341
231550
231756
231958
232165
232376
232588
232797
233007
233219
233429
233646
233855
234062
234272
234479
234692
234900
235103
235305
235512
235720
235928
236133
236337
236544
236751
236956
237162
237367
237571
237776
237983
238190
238393
238594
238800
239006
239209
239414
239617
239821
240029
240234
240438
240643
240845
241051
241260
241467
241671
241878
242084
242294
242502
242706
242911
243120
243328
243534
243737
243941
244149
244360
244568
244774
244985
245193
245403
245612
245819
246022
246227
246433
246638
246841
247039
247243
247446
247649
247857
248060
248262
248465
248668
248876
249083
249288
249495
249702
249909
250114
250322
250525
250730
250935
251142
251348
251552
251756
251959
252166
252372
252576
252782
252989
253198
253410
253618
253824
254035
254248
254460
254669
254875
255081
255292
255503
255710
255917
256123
256332
256543
256750
256954
257161
257366
257573
257781
257987
258189
258394
258601
258810
259015
259218
259425
259632
259841
260047
260253
260458
260664
260872
261078
261281
261487
261692
261900
262107
262310
262515
262724
262933
263143
263350
263556
263766
263972
264181
264388
264594
264797
265005
265214
265422
265627
265831
266041
266251
266459
266665
266869
267079
267289
267499
267707
267910
268117
268325
268533
268738
268940
269145
269352
269561
269768
269972
270177
270383
270591
270798
271001
271205
271372
271615
271829
272037
272242
272452
272659
272868
273075
273278
273483
273690
273896
274104
274311
274515
274718
274923
275126
275331
275532
275735
275939
276144
276346
276552
276755
276956
277165
277369
277574
277773
277976
278179
278386
278592
278793
278997
279203
279411
279618
279819
280020
280223
280429
280637
280839
281040
281242
281446
281652
281856
282058
282261
282467
282675
282881
283082
283285
283491
283698
283903
284108
284312
284519
284727
284935
285142
285345
285551
285759
285970
286173
286381
286585
286792
286999
287204
287407
287612
287817
288024
288229
288434
288638
288845
289052
289258
289462
289668
289872
290078
290283
290487
290690
290895
291101
291308
291513
291718
291925
292137
292345
292550
292757
292963
293171
293379
293582
293786
293989
294192
294397
294600
294800
295002
295206
295411
295615
295816
296018
296225
296430
296634
296835
297036
297241
297448
297653
297859
298061
298264
298468
298674
298878
299079
299284
299488
299693
299899
300100
300303
300506
300710
300913
301117
301319
301524
301727
301933
302138
302343
302549
302753
302961
303168
303373
303576
303781
303987
304193
304401
304604
304809
305016
305222
305428
305632
305833
306039
306243
306446
306649
306852
307054
307260
307466
307670
307872
308076
308284
308492
308699
308865
309095
309301
309505
309713
309917
310118
310322
310527
310734
310940
311146
311348
311552
311757
311967
312173
312378
312583
312790
312998
313206
313413
313617
313823
314029
314238
314446
314655
314860
315068
315278
315487
315693
315899
316103
316308
316517
316720
316922
317123
317327
317533
317738
317939
318144
318350
318558
318765
318969
319171
319376
319580
319786
319989
320192
320392
320595
320798
321001
321203
321403
321604
321807
322009
322212
322413
322614
322820
323025
323229
323435
323638
323844
324048
324253
324458
324661
324864
325070
325278
325486
325691
325892
326096
326306
326514
326720
326925
327127
327332
327539
327744
327944
328148
328352
328558
328764
328969
329172
329375
329579
329785
329991
330194
330395
330601
330807
331014
331215
331416
331621
331826
332029
332234
332433
332633
332833
333039
333243
333446
333647
333851
334052
334259
334406
334653
334867
335077
335283
335491
335695
335898
336103
336309
336503
336717
336921
337125
337333
337539
337740
337943
338147
338351
338556
338760
338960
339162
339365
339570
339775
339977
340180
340386
340594
340802
340989
341203
341406
341610
341816
342020
342221
342422
342625
342827
343031
343236
343438
343640
343842
344050
344257
344463
344664
344867
345074
345281
345488
345692
345896
346100
346307
346514
346719
346921
347125
347333
347544
347750
347952
348155
348358
348565
348766
348960
349156
349354
349553
349751
349952
350150
350348
350549
350750
350951
351148
351345
351543
351742
351940
352136
352329
352524
352715
352906
353097
353284
353472
353659
353848
354037
354223
354413
354603
354791
354974
355161
355349
355537
355722
355906
356093
356279
356465
356649
356835
357021
357207
357391
357581
357770
357958
358145
358335
358526
358717
358904
359095
359286
359479
359669
359860
360050
360243
360438
360631
360827
361024
361225
361427
361626
361826
362027
362229
362433
362632
362832
363030
363229
363431
363630
363826
364028
364228
364430
364630
364829
365028
365228
365428
365623
365820
366024
366225
366426
366625
366830
367033
367233
367436
367638
367841
368044
368245
368444
368643
368840
369041
369240
369435
369633
369834
370034
370232
370429
370632
370833
371036
371237
371438
371641
371844
372048
372250
372450
372651
372852
373054
373257
373457
373661
373867
374074
374283
374488
374694
374900
375111
375317
375521
375720
375922
376125
376326
376524
376721
376924
377123
377322
377517
377711
377909
378104
378296
378489
378688
378884
379077
379270
379463
379664
379863
380058
380259
380458
380658
380860
381060
381213
381450
381661
381867
382070
382269
382469
382672
382873
383078
383283
383487
383692
383896
384100
384307
384513
384716
384926
385136
385353
385567
385780
385988
386206
386422
386635
386833
387048
387259
387469
387675
387888
388097
388297
388493
388690
388886
389082
389276
389466
389658
389852
390046
390236
390434
390632
390829
391032
391230
391432
391638
391843
392050
392256
392459
392663
392867
393072
393274
393474
393672
393870
394070
394271
394479
394687
394892
395094
395307
395529
395748
395960
396187
396402
396617
396833
397045
397255
397464
397664
397861
398059
398255
398448
398643
398840
399036
399230
399427
399627
399827
400027
400225
400423
400624
400825
401028
401229
401435
401642
401846
402049
402254
402465
402675
402884
403093
403303
403513
403727
403941
404151
404358
404571
404786
405001
405213
405421
405626
405841
406051
406257
406460
406664
406866
407062
407263
407466
407666
407864
408061
408260
408457
408652
408852
409047
409244
409439
409636
409834
410030
410228
410429
410633
410836
411036
411236
411439
411644
411851
412055
412262
412473
412686
412896
413104
413313
413521
413724
413929
414134
414343
414556
414766
414977
415183
415395
415616
415833
416051
416265
416490
416708
416920
417123
417332
417539
417740
417936
418137
418333
418529
418722
418919
419116
419312
419506
419705
419904
420102
420300
420502
420708
420915
421120
421325
421532
421675
421922
422146
422359
422569
422780
422990
423203
423413
423624
423837
424054
424270
424487
424700
424911
425124
425339
425556
425768
425977
426190
426404
426622
426833
427043
427259
427478
427695
427908
428121
428340
428552
428763
428967
429172
429376
429579
429776
429981
430186
430392
430595
430799
431005
431214
431419
431626
431832
432039
432246
432453
432659
432866
433070
433280
433488
433696
433906
434120
434333
434546
434759
434966
435176
435390
435608
435829
436047
436263
436487
436703
436916
437131
437347
437563
437771
437974
438176
438382
438585
438787
438983
439183
439389
439593
439793
439996
440203
440410
440616
440819
441027
441237
441447
441656
441860
442069
442276
442487
442698
442907
443112
443320
443532
443739
443951
444163
444375
444587
444794
445007
445224
445440
445661
445876
446087
446304
446521
446739
446960
447177
447393
447610
447829
448047
448257
448462
448671
448883
449092
449299
449511
449723
449934
450141
450350
450558
450765
450976
451180
451375
451591
451800
452012
452220
452425
452632
452843
453052
453266
453473
453677
453884
454094
454304
454516
454730
454941
455155
455373
455598
455817
456032
456245
456464
456686
456905
457122
457330
457549
457770
457987
458199
458410
458625
458838
459051
459265
459474
459689
459907
460122
460335
460543
460754
460966
461178
461388
461595
461805
462018
462228
462440
462645
462853
463063
463275
463486
463696
463903
464107
464316
464528
464739
464949
465156
465372
465591
465808
466022
466231
466446
466662
466878
467091
467301
467513
467729
467946
468159
468375
468583
468798
469015
469225
469436
469644
469858
470072
470284
470495
470702
470912
471127
471341
471551
471757
471965
472173
472383
472591
472794
473001
473210
473421
473632
473838
474043
474253
474464
474677
474889
475100
475312
475526
475746
475964
476176
476385
476594
476805
477015
477223
477427
477632
477840
478046
478254
478459
478670
478884
479097
479307
479521
479737
479954
480168
480377
480588
480800
481014
481226
481437
481647
481857
482070
482283
482492
482704
482911
483122
483335
483543
483755
483962
484171
484381
484593
484806
485014
485222
485427
485648
485861
486072
486280
486476
486701
486918
487131
487335
487547
487762
487975
488184
488389
488598
488806
489016
489223
489430
489635
489846
490055
490266
490474
490683
490895
491107
491322
491534
491742
491951
492160
492370
492577
492782
492986
493195
493405
493617
493829
494034
494245
494462
494677
494889
495097
495309
495530
495749
495965
496181
496396
496618
496839
497056
497270
497482
497694
497910
498121
498331
498538
498751
498969
499183
499392
499606
499820
500035
500248
500459
500667
500877
501088
501302
501513
501720
501933
502143
502356
502568
502773
502984
503195
503410
503622
503834
504043
504256
504472
504689
504905
505115
505331
505547
505765
505970
506186
506398
506614
506828
507041
507252
507464
507679
507893
508107
508321
508532
508746
508966
509182
509397
509609
509823
510040
510254
510467
510676
510889
511102
511315
511525
511733
511942
512154
512366
512575
512782
512993
513207
513420
513631
513838
514049
514264
514480
514696
514907
515116
515328
515542
515755
515966
516169
516378
516588
516799
517008
517212
517422
517636
517850
518062
518273
518485
518695
518905
519115
519325
519533
519738
519951
520164
520377
520586
520796
521008
521218
521431
521645
521854
522061
522273
522485
522694
522903
523110
523320
523532
523743
523954
524159
524368
524580
524793
