peaks
75012
75162
75312
75468
75625
75780
75934
76092
76251
76405
76563
76725
76885
77039
77193
77348
77507
77663
77823
77982
78137
78294
78454
78612
78764
78915
79067
79214
79363
79516
79673
79827
79979
80135
80294
80445
80594
80747
80896
81041
81186
81337
81491
81639
81789
81940
82088
82231
82376
82522
82667
82810
82955
83104
83252
83399
83549
83701
83849
83995
84147
84299
84450
84600
84753
84905
85054
85204
85343
85509
85656
85802
85951
86099
86245
86395
86546
86696
86843
86993
87145
87298
87449
87602
87757
87910
88060
88213
88366
88515
88661
88808
88957
89103
89249
89399
89548
89695
89845
89998
90149
90297
90453
90608
90760
90908
91059
91216
91369
91522
91679
91835
91988
92135
92287
92436
92581
92728
92878
93026
93171
93318
93467
93612
93754
93897
94042
94188
94328
94474
94625
94775
94913
95064
95210
95356
95500
95645
95792
95937
96081
96231
96386
96535
96681
96832
96986
97140
97291
97446
97600
97748
97897
98051
98205
98361
98516
98672
98825
98970
99117
99265
99414
99563
99717
99874
100027
100182
100335
100490
100638
100787
100938
101091
101243
101395
101552
101704
101854
102010
102168
102321
102471
102627
102784
102936
103088
103244
103399
103552
103705
103859
104012
104163
104316
104472
104620
104773
104926
105080
105234
105383
105536
105691
105839
105986
106137
106289
106438
106589
106745
106900
107052
107207
107364
107521
107674
107828
107983
108135
108287
108440
108593
108743
108900
109053
109203
109354
109509
109666
109818
109969
110122
110278
110429
110578
110731
110884
111031
111177
111330
111484
111635
111787
111939
112093
112246
112401
112558
112711
112863
113018
113170
113318
113464
113617
113771
113918
114066
114217
114373
114523
114672
114825
114977
115127
115278
115431
115580
115725
115876
116028
116176
116324
116479
116633
116784
116936
117090
117247
117397
117548
117702
117853
118005
118159
118315
118470
118622
118778
118933
119084
119236
119392
119548
119699
119852
120011
120169
120321
120475
120633
120786
120937
121093
121250
121403
121554
121706
121860
122011
122159
122312
122459
122602
122750
122899
123048
123196
123345
123495
123646
123794
123944
124097
124247
124393
124542
124689
124834
124979
125130
125280
125431
125579
125733
125883
126035
126187
126345
126503
126655
126808
126965
127118
127270
127425
127581
127733
127885
128040
128195
128347
128499
128662
128820
128971
129123
129277
129428
129575
129724
129877
130031
130183
130338
130494
130652
130810
130971
131130
131286
131443
131600
131755
131910
132069
132226
132380
132532
132683
132832
132976
133118
133265
133409
133550
133692
133841
133987
134131
134273
134417
134560
134697
134834
134974
135112
135248
135381
135516
135653
135794
135931
136071
136213
136354
136492
136633
136774
136913
137048
137185
137326
137462
137599
137732
137869
138004
138136
138272
138409
138547
138687
138826
138965
139107
139247
139386
139528
139673
139819
139961
140105
140255
140400
140542
140692
140844
140988
141131
141275
141421
141567
141714
141869
142021
142173
142326
142482
142633
142778
142925
143072
143221
143364
143506
143652
143798
143942
144086
144236
144385
144532
144680
144833
144981
145129
145279
145433
145585
145731
145879
146031
146184
146334
146490
146646
146798
146951
147105
147263
147414
147564
147716
147869
148019
148171
148325
148478
148625
148775
148927
149078
149228
149380
149533
149683
149833
149988
150147
150306
150464
150623
150783
150939
151100
151258
151412
151563
151721
151879
152029
152179
152335
152495
152652
152811
152970
153126
153286
153449
153613
153769
153922
154072
154219
154362
154506
154658
154810
154961
155114
155272
155431
155585
155742
155897
156054
156208
156364
156519
156668
156818
156969
157120
157274
157429
157584
157741
157895
158056
158215
158370
158522
158679
158832
158981
159134
159288
159441
159595
159751
159912
160071
160227
160383
160538
160688
160838
160994
161146
161295
161445
161596
161737
161881
162025
162173
162317
162459
162602
162745
162895
163039
163187
163337
163484
163628
163774
163921
164065
164213
164364
164514
164664
164811
164959
165107
165257
165407
165560
165712
165862
166010
166166
166318
166469
166623
166782
166942
167097
167249
167405
167556
167706
167856
168006
168150
168294
168440
168588
168736
168883
169036
169185
169336
169485
169636
169783
169930
170074
170222
170370
170514
170659
170806
170953
171099
171246
171399
171546
171692
171839
171989
172138
172284
172431
172583
172737
172889
173043
173201
173353
173503
173654
173805
173952
174101
174256
174411
174561
174714
174868
175021
175175
175328
175485
175637
175785
175935
176086
176234
176382
176531
176682
176830
176976
177126
177279
177428
177577
177731
177881
178028
178176
178328
178478
178625
178774
178925
179075
179218
179365
179512
179658
179805
179950
180102
180251
180396
180544
180692
180844
180994
181142
181292
181438
181582
181729
181874
182015
182154
182293
182444
182592
182738
182889
183038
183187
183336
183487
183639
183787
183937
184089
184237
184383
184530
184680
184830
184975
185122
185274
185421
185569
185721
185872
186025
186175
186327
186478
186631
186780
186933
187088
187235
187384
187535
187683
187828
187977
188131
188280
188427
188577
188729
188880
189028
189180
189331
189478
189622
189770
189918
190064
190208
190357
190508
190656
190801
190949
191097
191240
191384
191529
191672
191810
191948
192095
192246
192397
192546
192697
192845
192990
193135
193280
193425
193568
193710
193853
193999
194142
194283
194426
194571
194716
194859
195008
195155
195302
195449
195600
195749
195891
196036
196175
196324
196463
196600
196741
196881
197021
197159
197299
197439
197577
197715
197857
198000
198143
198284
198431
198580
198727
198871
199020
199169
199319
199470
199625
199778
199930
200077
200227
200377
200524
200670
200821
200969
201119
201273
201427
201583
201733
201886
202038
202187
202336
202490
202644
202792
202937
203087
203238
203385
203530
203680
203831
203977
204125
204275
204425
204575
204724
204875
205025
205173
205323
205476
205627
205775
205926
206084
206235
206385
206536
206690
206843
207001
207156
207309
207453
207599
207748
207894
208039
208185
208331
208477
208618
208762
208909
209056
209200
209350
209499
209644
209786
209932
210081
210229
210372
210519
210667
210815
210958
211104
211254
211401
211546
211694
211844
211990
212137
212284
212433
212578
212723
212870
213017
213160
213302
213443
213586
213723
213862
214003
214144
214284
214419
214560
214703
214844
214985
215127
215270
215415
215557
215700
215846
215990
216128
216271
216416
216562
216703
216844
216988
217130
217268
217412
217558
217706
217850
217994
218142
218290
218436
218585
218736
218889
219035
219179
219326
219471
219613
219755
219899
220042
220181
220321
220465
220607
220744
220883
221025
221167
221306
221446
221589
221732
221871
222009
222153
222297
222440
222584
222728
222875
223022
223166
223313
223459
223603
223743
223885
224025
224164
224304
224446
224590
224729
224867
225009
225153
225293
225431
225572
225715
225855
225992
226129
226268
226404
226537
226671
226806
226941
227074
227205
227340
227475
227610
227746
227874
228022
228157
228291
228430
228574
228717
228861
229006
229153
229297
229440
229586
229735
229881
230025
230171
230321
230472
230621
230773
230910
231074
231223
231377
231536
231690
231840
231996
232149
232302
232454
232607
232759
232908
233062
233218
233370
233523
233679
233837
233989
234144
234301
234459
234613
234770
234931
235090
235246
235401
235556
235712
235861
236014
236168
236320
236474
236626
236781
236931
237080
237231
237382
237534
237687
237842
237993
238144
238297
238451
238609
238763
238920
239074
239226
239382
239540
239694
239847
240004
240161
240317
240469
240624
240775
240918
241063
241215
241371
241522
241674
241832
241984
242132
242283
242439
242591
242743
242897
243052
243205
243360
243517
243672
243823
243976
244131
244285
244435
244588
244745
244895
245048
245203
245360
245513
245668
245824
245980
246132
246287
246444
246600
246751
246903
247057
247209
247359
247511
247664
247814
247960
248114
248265
248407
248558
248706
248853
248999
249145
249295
249444
249589
249736
249885
250034
250173
250325
250473
250620
250765
250910
251058
251205
251347
251493
251639
251783
251925
252071
252224
252374
252523
252673
252828
252976
253122
253267
253417
253561
253703
253845
253990
254130
254269
254412
254563
254711
254857
255011
255163
255311
255454
255602
255753
255900
256047
256197
256348
256495
256642
256791
256938
257082
257226
257372
257518
257659
257802
257948
258094
258240
258383
258528
258670
258810
258953
259100
259248
259394
259544
259699
259853
260004
260153
260306
260457
260609
260758
260909
261060
261209
261363
261514
261667
261813
261959
262109
262254
262400
262545
262694
262840
262987
263135
263284
263430
263576
263726
263874
264021
264171
264326
264480
264633
264787
264943
265097
265249
265400
265553
265706
265855
266007
266159
266308
266455
266606
266755
266901
267043
267188
267333
267477
267621
267770
267917
268061
268205
268353
268500
268643
268790
268936
269080
269225
269373
269525
269677
269826
269974
270123
270274
270423
270576
270731
270882
271030
271180
271331
271478
271626
271776
271927
272076
272227
272381
272536
272686
272839
272979
273144
273292
273442
273595
273746
273892
274043
274197
274347
274494
274645
274796
274946
275095
275247
275399
275548
275694
275842
275992
276135
276283
276435
276586
276735
276887
277043
277198
277351
277508
277669
277825
277980
278137
278295
278447
278597
278750
278900
279045
279196
279353
279509
279664
279819
279979
280130
280280
280434
280586
280738
280889
281046
281202
281352
281500
281650
281800
281947
282097
282249
282397
282540
282683
282828
282971
283109
283249
283396
283542
283688
283836
283988
284144
284296
284450
284606
284760
284912
285069
285220
285370
285517
285669
285823
285972
286121
286272
286422
286573
286726
286884
287037
287185
287339
287497
287650
287802
287962
288128
288288
288446
288607
288758
288903
289048
289200
289350
289501
289659
289822
289981
290136
290295
290453
290610
290766
290920
291078
291231
291389
291550
291704
291859
292018
292177
292333
292492
292655
292812
292969
293130
293292
293449
293600
293754
293907
294059
294214
294373
294531
294683
294839
294995
295148
295305
295463
295623
295779
295939
296103
296263
296422
296582
296740
296895
297048
297204
297363
297516
297671
297827
297980
298134
298289
298443
298593
298737
298883
299033
299181
299330
299478
299629
299779
299925
300077
300227
300374
300524
300686
300849
301003
301160
301316
301474
301626
301776
301924
302071
302216
302366
302516
302668
302818
302973
303126
303278
303428
303581
303730
303875
304022
304176
304333
304484
304638
304798
304955
305109
305269
305429
305585
305742
305900
306058
306208
306361
306519
306676
306829
306982
307136
307287
307440
307595
307748
307899
308049
308202
308356
308503
308651
308804
308954
309102
309249
309398
309544
309686
309829
309975
310122
310265
310407
310550
310695
310836
310980
311126
311269
311410
311554
311689
311846
311993
312139
312286
312431
312573
312716
312860
313003
313143
313286
313434
313578
313722
313868
314020
314170
314318
314470
314617
314765
314917
315064
315214
315360
315505
315652
315803
315949
316096
316246
316398
316549
316698
316848
316999
317145
317293
317446
317598
317742
317900
318052
318206
318356
318509
318667
318823
318973
319131
319286
319439
319590
319746
319902
320053
320205
320360
320514
320665
320821
320979
321132
321285
321442
321601
321754
321905
322062
322215
322365
322514
322663
322809
322952
323101
323253
323404
323553
323703
323858
324010
324157
324307
324460
324608
324753
324902
325049
325197
325340
325487
325634
325782
325926
326077
326232
326385
326537
326692
326845
326995
327150
327308
327464
327615
327770
327924
328079
328231
328386
328544
328700
328855
329015
329171
329325
329482
329638
329791
329943
330099
330260
330413
330565
330720
330876
331026
331167
331329
331479
331628
331778
331930
332079
332225
332377
332527
332673
332813
332959
333106
333254
333399
333548
333698
333844
333990
334137
334285
334432
334579
334731
334883
335032
335180
335329
335480
335627
335774
335923
336073
336223
336373
336530
336688
336843
337005
337166
337321
337469
337621
337775
337922
338081
338234
338388
338540
338691
338842
338993
339143
339297
339454
339607
339759
339915
340071
340226
340378
340532
340687
340841
340996
341155
341310
341461
341612
341768
341915
342060
342207
342355
342504
342652
342800
342947
343093
343248
343408
343567
343722
343880
344041
344204
344362
344521
344677
344835
344991
345146
345306
345459
345616
345774
345931
346083
346240
346399
346555
346709
346867
347024
347177
347331
347489
347647
347803
347958
348114
348267
348419
348574
348733
348888
349039
349191
349348
349506
349663
349826
349981
350136
350292
350449
350600
350752
350907
351063
351218
351378
351540
351701
351859
352015
352174
352327
352481
352638
352802
352961
353124
353294
353457
353617
353773
353930
354085
354239
354399
354557
354711
354868
355024
355178
355331
355486
355639
355791
355941
356098
356256
356408
356562
356722
356884
357039
357192
357347
357502
357655
357811
357966
358115
358260
358413
358563
358707
358841
359001
359148
359289
359430
359576
359723
359866
360009
360155
360302
360447
360592
360741
360889
361032
361176
361322
361469
361612
361758
361906
362056
362204
362351
362502
362651
362797
362945
363093
363241
363384
363533
363683
363830
363975
364124
364277
364428
364577
364730
364887
365035
365184
365336
365489
365640
365792
365945
366098
366247
366397
366554
366704
366854
367004
367159
367313
367466
367618
367773
367921
368068
368216
368364
368511
368656
368804
368951
369099
369246
369398
369547
369693
369838
369984
370130
370272
370414
370559
370702
370848
370998
371157
371314
371471
371627
371785
371938
372087
372242
372397
372546
372695
372848
373004
373156
373310
373467
373624
373780
373939
374101
374261
374418
374577
374735
374888
375038
375190
375343
375492
375643
375800
375958
376112
376269
376429
376585
376744
376904
377062
377217
377373
377529
377684
377835
377993
378151
378307
378458
378615
378770
378922
379076
379233
379388
379538
379691
379850
380005
380156
380312
380469
380623
380778
380939
381101
381257
381416
381575
381733
381888
382044
382203
382359
382515
382674
382836
382990
383150
383308
383467
383620
383775
383928
384074
384221
384376
384534
384687
384841
384997
385154
385310
385470
385630
385785
385930
386079
386235
386393
386550
386714
386878
387044
387208
387377
387541
387705
387869
388036
388193
388355
388516
388676
388835
388997
389156
389313
389468
389627
389785
389942
390101
390263
390421
390577
390739
390897
391049
391200
391357
391514
391666
391822
391978
392131
392282
392435
392586
392733
392879
393028
393179
393329
393480
393638
393794
393947
394102
394261
394420
394575
394727
394881
395033
395184
395334
395486
395636
395781
395934
396085
396237
396387
396544
396697
396846
396995
397152
397306
397459
397611
397767
397906
398064
398213
398364
398509
398656
398804
398957
399107
399257
399409
399563
399709
399857
400009
400159
400304
400452
400606
400757
400905
401056
401206
401360
401511
401663
401815
401967
402117
402271
402423
402576
402728
402883
403039
403192
403347
403502
403655
403808
403961
404116
404270
404422
404579
404733
404887
405039
405197
405353
405510
405667
405828
405985
406139
406294
406451
406604
406758
406917
407076
407230
407384
407540
407696
407849
408003
408160
408312
408465
408616
408767
408915
409062
409212
409363
409511
409658
409810
409961
410108
410257
410412
410566
410713
410862
411014
411165
411314
411471
411629
411784
411936
412091
412244
412392
412540
412693
412845
412990
413137
413285
413433
413573
413716
413860
414000
414146
414289
414437
414587
414736
414884
415032
415178
415319
415465
415612
415760
415903
416048
416193
416337
416481
416628
416779
416930
417076
417228
417380
417529
417674
417825
417977
418127
418279
418437
418593
418741
418891
419046
419201
419352
419507
419652
419813
419955
420110
420268
420426
420581
420733
420884
421032
421180
421332
421482
421627
421770
421921
422071
422220
422371
422529
422682
422831
422981
423134
423282
423432
423581
423732
423881
424027
424178
424334
424487
424638
424790
424942
425094
425244
425397
425549
425702
425857
426017
426173
426327
426480
426639
426793
426947
427099
427251
427401
427549
427700
427852
428001
428144
428299
428446
428589
428735
428882
429027
429172
429319
429470
429620
429765
429914
430066
430216
430359
430506
430656
430801
430944
431089
431240
431388
431532
431675
431820
431960
432097
432235
432375
432516
432658
432804
432952
433095
433238
433386
433536
433687
433834
433983
434134
434285
434437
434590
434742
434891
435038
435192
435346
435496
435646
435798
435948
436096
436246
436399
436556
436704
436855
437007
437153
437302
437452
437605
437753
437901
438052
438203
438352
438501
438657
438811
438963
439114
439268
439421
439569
439721
439889
440050
440210
440371
440529
440682
440831
440983
441138
441288
441442
441595
441748
441900
442056
442213
442366
442517
442671
442826
442980
443133
443284
443440
443586
443735
443888
444040
444188
444340
444493
444648
444799
444955
445112
445267
445419
445578
445736
445887
446038
446194
446348
446496
446648
446800
446958
447108
447264
447421
447571
447722
447873
448023
448168
448314
448461
448615
448766
448914
449063
449210
449357
449508
449662
449812
449958
450104
450256
450404
450549
450698
450847
450992
451134
451276
451421
451565
451705
451845
451984
452124
452264
452409
452557
452704
452848
452991
453136
453279
453418
453558
453702
453844
453985
454127
454273
454420
454565
454706
454848
454992
455138
455294
455452
455607
455757
455908
456061
456211
456358
456506
456660
456808
456957
457110
457267
457423
457579
457738
457896
458047
458201
458357
458512
458665
458816
458971
459123
459273
459424
459576
459727
459874
460025
460181
460329
460480
460630
460779
460925
461075
461229
461379
461526
461676
461825
461976
462123
462276
462435
462589
462742
462899
463056
463208
463359
463513
463664
463817
463975
464130
464282
464429
464583
464736
464888
465039
465194
465350
465507
465661
465815
465967
466116
466271
466428
466583
466734
466886
467044
467198
467351
467505
467656
467806
467959
468120
468283
468444
468608
468774
468943
469108
469276
469440
469600
469763
469926
470086
470242
470406
470566
470718
470875
471038
471200
471357
471518
471676
471833
471991
472150
472310
472462
472620
472775
472925
473068
473216
473366
473514
473652
473807
473958
474106
474255
474405
474558
474711
474863
475017
475174
475324
475477
475631
475789
475941
476093
476249
476404
476558
476714
476870
477023
477177
477334
477494
477649
477807
477975
478136
478297
478461
478627
478785
478940
479097
479256
479410
479569
479728
479888
480047
480209
480368
480527
480683
480839
480996
481154
481314
481476
481632
481779
481927
482078
482229
482385
482553
482724
482891
483055
483220
483382
483541
483700
483858
484014
484167
484325
484480
484633
484784
484942
485095
485249
485407
485565
485716
485869
486028
486183
486335
486489
486645
486797
486945
487098
487256
487408
487562
487720
487873
488027
488183
488346
488511
488670
488830
488993
489153
489311
489469
489628
489782
489942
490105
490264
490420
490584
490745
490901
491056
491215
491372
491526
491685
491842
491998
492153
492311
492470
492627
492781
492938
493097
493254
493413
493575
493736
493895
494051
494209
494366
494522
494679
494840
494996
495153
495312
495470
495623
495783
495940
496093
496246
496406
496566
496719
496879
497041
497198
497349
497505
497660
497820
497972
498130
498290
498450
498611
498775
498935
499093
499253
499417
499578
499733
499893
500051
500205
500360
500518
500674
500831
500993
501158
501317
501479
501645
501807
501966
502126
502284
502444
502597
502757
502917
503075
503231
503387
503542
503691
503844
504002
504161
504319
504482
504644
504801
504957
505115
505271
505426
505586
505742
505899
506055
506213
506357
506514
506661
506809
506959
507109
507264
507416
507569
507718
507868
508017
508165
508311
508458
508610
508763
508912
509063
509215
509365
509513
509666
509817
509966
510119
510279
510436
510591
510748
510903
511055
511205
511357
511511
511665
511818
511974
512131
512283
512439
512597
512752
512905
513062
513219
513373
513523
513673
513827
513981
514132
514288
514443
514597
514754
514916
515076
515233
515391
515552
515709
515859
516014
516172
516327
516485
516647
516806
516962
517121
517284
517441
517597
517757
517919
518073
518234
518398
518558
518714
518875
519034
519194
519352
519514
519674
519831
519991
520153
520313
520471
520632
520792
520951
521105
521262
521417
521567
521721
521873
522022
522172
522326
522481
522633
522786
522939
523095
523247
523395
523547
523706
523859
524012
524164
524316
524467
524625
524784
524942
