peaks
75141
75308
75476
75642
75809
75974
76139
76309
76478
76650
76823
76996
77172
77277
77487
77665
77838
78011
78182
78354
78525
78696
78864
79033
79205
79375
79544
79714
79886
80057
80231
80405
80577
80750
80923
81093
81265
81437
81611
81784
81955
82127
82296
82464
82635
82808
82980
83154
83329
83503
83678
83854
84033
84212
84391
84569
84746
84922
85098
85275
85449
85621
85794
85967
86141
86314
86489
86660
86836
87007
87177
87344
87514
87684
87850
88016
88182
88346
88509
88671
88830
88997
89164
89332
89501
89670
89838
90011
90180
90350
90528
90632
90846
91022
91194
91366
91537
91706
91879
92051
92223
92395
92568
92741
92915
93089
93266
93372
93579
93760
93932
94038
94251
94430
94607
94786
94964
95144
95326
95508
95692
95874
95981
96200
96385
96565
96747
96927
97105
97281
97457
97633
97810
97990
98173
98355
98536
98716
98898
99079
99269
99376
99606
99799
99984
100167
100272
100491
100675
100860
101043
101223
101401
101580
101760
101942
102124
102304
102488
102669
102849
103036
103221
103406
103591
103770
103963
104152
104260
104482
104676
104784
105017
105206
105313
105540
105722
105830
106051
106230
106337
106561
106741
106850
107074
107257
107432
107545
107768
107948
108124
108233
108440
108619
108791
108964
109136
109246
109467
109648
109757
109981
110163
110342
110454
110679
110864
111040
111218
111323
111536
111714
111889
112063
112237
112343
112548
112718
112893
113063
113171
113389
113567
113741
113849
114063
114236
114407
114578
114686
114902
115079
115249
115418
115589
115760
115867
116079
116253
116419
116587
116760
116867
117078
117257
117428
117537
117755
117931
118103
118212
118429
118604
118774
118885
119095
119269
119441
119551
119764
119940
120109
120279
120449
120619
120725
120938
121117
121284
121456
121627
121735
121952
122130
122237
122460
122640
122816
122990
123165
123341
123518
123694
123870
124043
124214
124321
124538
124713
124820
125034
125213
125319
125536
125709
125877
125987
126197
126370
126538
126707
126811
127023
127198
127367
127537
127706
127811
128027
128204
128378
128486
128708
128888
129063
129239
129346
129566
129743
129915
130088
130261
130435
130611
130718
130939
131119
131294
131467
131642
131817
131990
132164
132338
132507
132682
132787
133005
133181
133354
133530
133636
133860
134041
134146
134374
134557
134741
134926
135111
135295
135478
135662
135844
136027
136211
136392
136576
136759
136943
137051
137284
137475
137663
137852
138039
138148
138379
138572
138756
138941
139125
139308
139489
139672
139856
140037
140216
140395
140574
140753
140933
141112
141291
141469
141646
141754
141980
142164
142349
142537
142646
142883
143073
143259
143369
143600
143792
143979
144166
144345
144530
144716
144901
145085
145268
145451
145632
145813
145991
146171
146351
146531
146640
146865
147054
147162
147390
147575
147759
147943
148125
148235
148461
148648
148828
149008
149186
149364
149544
149720
149904
150085
150194
150418
150599
150776
150954
151132
151309
151484
151595
151810
151987
152160
152268
152486
152668
152773
152993
153170
153341
153513
153687
153862
154036
154207
154378
154549
154719
154892
155064
155237
155411
155584
155758
155932
156106
156282
156457
156632
156806
156980
157153
157327
157501
157676
157850
158026
158199
158373
158548
158720
158892
159062
159233
159402
159572
159742
159912
160083
160256
160428
160598
160773
160877
161084
161262
161433
161603
161771
161939
162107
162275
162444
162612
162716
162913
163080
163242
163404
163568
163733
163903
164073
164246
164416
164587
164758
164925
165104
165281
165457
165634
165811
165990
166168
166346
166527
166707
166888
167070
167248
167424
167600
167777
167956
168133
168312
168491
168671
168852
169035
169220
169406
169591
169777
169961
170148
170334
170517
170704
170888
171071
171255
171441
171626
171809
171989
172168
172349
172530
172711
172893
173073
173253
173432
173610
173789
173969
174150
174332
174516
174696
174876
175055
175236
175415
175595
175775
175956
176135
176314
176495
176678
176860
177044
177226
177410
177592
177778
177963
178145
178328
178508
178686
178865
179040
179225
179406
179587
179766
179952
180137
180326
180510
180691
180873
181054
181234
181414
181591
181766
181944
182123
182300
182476
182653
182834
183017
183198
183379
183562
183744
183928
184114
184304
184492
184679
184864
185049
185235
185421
185606
185789
185976
186158
186338
186444
186663
186845
187023
187199
187372
187544
187713
187881
188048
188217
188387
188555
188723
188893
189064
189236
189410
189584
189758
189933
190107
190281
190455
190628
190799
190967
191137
191309
191478
191647
191822
191994
192164
192337
192511
192685
192862
192969
193187
193368
193542
193715
193885
194057
194233
194408
194582
194687
194897
195073
195244
195414
195585
195760
195934
196040
196249
196427
196601
196776
196951
197130
197308
197417
197632
197814
197991
198167
198342
198517
198693
198868
199045
199226
199402
199579
199749
199926
200102
200277
200451
200620
200804
200983
201156
201334
201517
201701
201887
202071
202178
202400
202583
202762
202941
203122
203305
203486
203669
203851
204034
204213
204403
204589
204775
204959
205144
205329
205513
205698
205806
206028
206214
206394
206568
206678
206888
207071
207249
207429
207536
207754
207936
208113
208291
208468
208644
208822
208999
209177
209356
209536
209715
209891
210074
210259
210444
210629
210815
210998
211179
211361
211539
211719
211896
212077
212258
212438
212617
212795
212973
213154
213331
213516
213697
213877
214056
214234
214418
214603
214786
214966
215143
215323
215502
215682
215861
216040
216215
216390
216563
216735
216904
217078
217252
217427
217604
217780
217956
218133
218312
218490
218667
218772
218990
219169
219343
219519
219624
219831
220010
220111
220322
220499
220673
220777
220986
221163
221334
221508
221681
221857
222033
222208
222384
222558
222728
222899
223070
223241
223412
223591
223765
223942
224119
224296
224474
224653
224835
225016
225196
225376
225557
225662
225878
226061
226165
226385
226567
226739
226918
227092
227268
227444
227620
227798
227976
228152
228329
228506
228682
228857
229030
229216
229397
229579
229759
229942
230124
230307
230414
230636
230822
231005
231189
231372
231554
231737
231920
232107
232294
232480
232666
232851
233034
233217
233401
233590
233774
233968
234157
234343
234527
234712
234898
235084
235267
235447
235624
235801
235976
236152
236327
236504
236681
236861
237041
237225
237411
237600
237790
237899
238131
238324
238516
238626
238855
239047
239232
239417
239522
239741
239927
240111
240293
240405
240626
240809
240998
241184
241293
241519
241704
241884
242064
242242
242422
242601
242777
242954
243132
243241
243454
243634
243812
243986
244161
244270
244484
244663
244841
245019
245199
245377
245556
245736
245913
246090
246269
246448
246624
246735
246944
247121
247294
247468
247642
247810
247987
248163
248341
248518
248697
248878
249060
249244
249428
249611
249794
249977
250158
250338
250518
250698
250875
251058
251235
251411
251585
251757
251930
252106
252282
252458
252634
252809
252980
253151
253322
253493
253665
253837
254007
254180
254349
254518
254688
254860
255038
255213
255398
255576
255754
255932
256106
256286
256466
256644
256752
256966
257144
257247
257453
257635
257806
257980
258153
258327
258506
258685
258865
259044
259221
259405
259588
259769
259947
260132
260312
260490
260665
260843
261021
261195
261373
261547
261718
261890
262057
262230
262402
262570
262747
262919
263085
263258
263429
263600
263782
263957
264132
264309
264486
264660
264834
265008
265182
265356
265530
265705
265879
266054
266228
266404
266579
266749
266926
267098
267269
267443
267617
267792
267969
268147
268324
268503
268687
268875
269064
269253
269443
269637
269746
269977
270173
270364
270554
270744
270931
271117
271304
271491
271599
271825
272011
272199
272382
272568
272754
272939
273122
273307
273491
273675
273858
274043
274229
274413
274595
274778
274959
275141
275325
275510
275693
275875
276063
276249
276437
276630
276822
277012
277202
277393
277584
277776
277969
278160
278351
278538
278731
278923
279116
279305
279417
279643
279835
280026
280212
280397
280507
280722
280907
281088
281271
281381
281595
281780
281957
282132
282307
282482
282589
282795
282973
283145
283315
283485
283653
283820
283989
284160
284331
284505
284680
284855
285029
285203
285380
285556
285734
285910
286084
286255
286428
286601
286773
286945
287118
287293
287467
287644
287823
287997
288182
288365
288473
288692
288878
289058
289244
289351
289564
289743
289919
290095
290202
290407
290585
290755
290925
291028
291226
291398
291567
291734
291907
292077
292249
292422
292596
292772
292878
293090
293271
293449
293623
293798
293974
294152
294331
294506
294682
294857
295026
295206
295381
295556
295729
295901
296074
296244
296416
296522
296722
296899
297072
297244
297417
297591
297769
297948
298127
298307
298481
298666
298850
299035
299222
299408
299594
299780
299965
300148
300332
300513
300701
300886
301069
301254
301439
301625
301806
301992
302178
302285
302504
302691
302872
303058
303166
303382
303567
303749
303933
304116
304301
304484
304669
304852
305031
305218
305401
305584
305764
305947
306127
306304
306478
306651
306833
307011
307191
307370
307550
307730
307908
308088
308267
308446
308626
308806
308986
309164
309340
309520
309696
309871
310047
310221
310395
310576
310754
310933
311112
311290
311470
311647
311831
312010
312186
312359
312529
312700
312871
313047
313224
313405
313586
313765
313946
314131
314317
314504
314689
314874
314982
315200
315386
315567
315674
315893
316077
316258
316436
316611
316788
316968
317145
317325
317503
317684
317864
318043
318214
318386
318556
318724
318893
319059
319229
319396
319558
319729
319890
320056
320219
320381
320537
320704
320866
321026
321188
321343
321509
321673
321776
321968
322138
322305
322471
322643
322811
322917
323119
323302
323477
323654
323824
324003
324175
324350
324523
324694
324868
325043
325215
325385
325554
325723
325888
326053
326216
326374
326540
326700
326862
327031
327190
327353
327520
327681
327849
328011
328178
328347
328514
328680
328843
329004
329173
329339
329505
329673
329837
330008
330180
330347
330515
330686
330853
331020
331185
331347
331510
331677
331837
332003
332166
332329
332490
332653
332815
332980
333148
333312
333483
333647
333820
333924
334124
334305
334476
334644
334816
334985
335151
335318
335481
335644
335810
335915
336108
336282
336448
336611
336775
336941
337106
337276
337441
337607
337707
337905
338077
338243
338412
338512
338708
338876
339035
339201
339358
339522
339682
339841
340000
340157
340316
340473
340633
340794
340954
341125
341293
341459
341630
341801
341970
342151
342320
342502
342675
342847
342951
343157
343337
343516
343625
343831
344012
344184
344352
344520
344690
344860
345035
345209
345382
345491
345698
345884
345988
346201
346382
346554
346735
346839
347044
347223
347397
347569
347740
347913
348086
348196
348408
348586
348766
348873
349090
349270
349449
349558
349778
349965
350145
350325
350432
350653
350841
351028
351216
351409
351518
351743
351940
352136
352329
352517
352700
352893
353079
353268
353452
353633
353822
354007
354190
354375
354555
354745
354931
355115
355223
355442
355626
355808
355989
356168
356344
356522
356698
356878
356984
357202
357386
357563
357670
357879
358053
358229
358335
358546
358728
358906
359084
359264
359372
359595
359784
359970
360156
360262
360486
360674
360858
361042
361224
361405
361586
361765
361942
362116
362293
362473
362654
362835
363013
363192
363370
363556
363737
363924
364104
364284
364462
364638
364814
364988
365164
365342
365517
365690
365792
366002
366179
366356
366532
366637
366849
367030
367208
367387
367565
367740
367920
368097
368274
368453
368633
368811
368987
369163
369341
369511
369687
369858
370022
370193
370361
370529
370697
370871
371044
371225
371404
371583
371762
371939
372114
372291
372467
372639
372817
372988
373157
373330
373497
373662
373826
373999
374168
374339
374510
374684
374859
375036
375213
375387
375491
375709
375884
376060
376165
376371
376543
376712
376813
377016
377191
377366
377538
377712
377887
378062
378239
378345
378567
378755
378937
379118
379296
379470
379653
379831
380010
380188
380360
380538
380709
380879
381050
381223
381398
381577
381757
381933
382105
382290
382470
382648
382828
383007
383186
383368
383548
383726
383901
384077
384251
384423
384601
384776
384947
385126
385299
385473
385646
385821
385996
386177
386360
386542
386722
386903
387086
387271
387378
387597
387791
387977
388159
388340
388516
388624
388838
389023
389199
389375
389543
389717
389891
390066
390239
390414
390588
390762
390936
391112
391294
391476
391659
391765
391987
392168
392350
392532
392639
392858
393038
393143
393302
393517
393693
393866
394038
394142
394349
394526
394696
394800
395010
395189
395363
395537
395715
395819
396037
396221
396402
396580
396753
396933
397109
397282
397454
397628
397732
397936
398110
398276
398442
398608
398772
398937
399102
399265
399430
399600
399769
399937
400119
400301
400478
400656
400762
400979
401162
401268
401489
401671
401849
402025
402201
402304
402510
402686
402852
403019
403189
403354
403528
403701
403870
404050
404230
404331
404553
404740
404925
405111
405218
405441
405626
405808
405991
406096
406317
406505
406685
406864
407042
407219
407400
407584
407770
407958
408147
408338
408440
408672
408867
409053
409248
409437
409623
409810
409997
410183
410370
410558
410745
410851
411080
411272
411459
411643
411828
412013
412198
412380
412494
412716
412901
413080
413269
413375
413604
413797
413985
414171
414281
414508
414700
414886
415074
415266
415457
415649
415839
416026
416217
416409
416602
416794
416983
417174
417362
417550
417739
417928
418117
418303
418492
418675
418859
419047
419234
419418
419604
419790
419974
420158
420341
420526
420710
420897
421084
421272
421460
421646
421831
422020
422209
422319
422543
422738
422924
423110
423294
423481
423667
423854
424043
424233
424419
424603
424785
424968
425153
425338
425522
425708
425896
426084
426271
426460
426650
426841
427028
427213
427401
427589
427781
427967
428158
428343
428530
428716
428900
429083
429266
429445
429622
429801
429977
430151
430326
430495
430602
430807
430981
431153
431331
431507
431686
431864
432040
432222
432327
432546
432733
432915
433094
433271
433446
433622
433795
433969
434143
434317
434490
434664
434838
435011
435187
435364
435540
435717
435892
436069
436246
436424
436608
436792
436976
437160
437345
437530
437714
437897
438083
438263
438447
438625
438800
438977
439151
439324
439498
439671
439843
440014
440180
440351
440521
440689
440858
441031
441209
441389
441572
441753
441936
442117
442296
442476
442659
442839
443020
443199
443375
443549
443723
443900
444076
444254
444427
444600
444769
444936
445111
445286
445464
445644
445832
446019
446121
446350
446543
446734
446925
447115
447313
447505
447695
447882
448069
448257
448443
448627
448809
448993
449175
449355
449535
449717
449897
450077
450258
450439
450617
450792
450967
451142
451315
451490
451666
451838
452014
452189
452363
452535
452717
452899
453083
453268
453452
453637
453821
454002
454194
454384
454573
454760
454946
455135
455324
455511
455696
455878
456063
456247
456432
456612
456793
456973
457151
457332
457513
457694
457875
458057
458238
458414
458593
458777
458958
459138
459316
459493
459669
459843
460018
460191
460369
460542
460715
460888
461060
461229
461400
461571
461743
461916
462090
462264
462441
462626
462810
462992
463177
463361
463544
463726
463908
464091
464275
464459
464645
464830
464936
465156
465345
465530
465712
465819
466032
466213
466394
466499
466708
466890
467067
467249
467429
467537
467761
467950
468136
468246
468468
468656
468839
469025
469210
469394
469575
469756
469938
470120
470303
470485
470673
470854
471034
471211
471395
471576
471759
471941
472120
472296
472467
472640
472818
472998
473181
473365
473546
473728
473910
474096
474275
474461
474643
474824
475010
475193
475371
475548
475731
475911
476095
476276
476456
476637
476816
476998
477172
477343
477524
477701
477807
478018
478200
478379
478554
478728
478905
479083
479260
479440
479622
479798
479977
480155
480334
480516
480700
480885
481067
481253
481433
481612
481785
481959
482134
482311
482489
482668
482848
483029
483206
483391
483573
483757
483942
484126
484309
484492
484673
484854
485041
485224
485407
485591
485775
485953
486130
486305
486482
486663
486843
487022
487196
487374
487549
487726
487903
488082
488263
488445
488624
488803
488983
489166
489350
489538
489727
489913
490098
490282
490390
490615
490808
490997
491188
491381
491487
491727
491927
492124
492315
492512
492707
492901
493091
493284
493472
493659
493853
494040
494235
494425
494615
494804
494986
495179
495370
495558
495751
495937
496122
496307
496493
496679
496866
497050
497235
497419
497602
497784
497968
498150
498330
498506
498681
498853
499025
499198
499368
499544
499712
499888
500057
500226
500399
500573
500756
500942
501127
501316
501504
501693
501884
502075
502264
502454
502564
502787
502976
503160
503342
503526
503633
503851
504036
504217
504400
504584
504690
504908
505091
505277
505462
505646
505831
506014
506196
506376
506558
506739
506925
507100
507282
507460
507564
507769
507945
508118
508292
508397
508601
508776
508947
509118
509293
509467
509649
509756
509977
510163
510341
510524
510711
510889
510998
511221
511409
511591
511771
511952
512133
512239
512449
512631
512808
512987
513167
513351
513538
513720
513904
514085
514278
514477
514670
514860
515051
515240
515432
515541
515780
515980
516087
516310
516505
516691
516879
517068
517255
517445
517628
517809
517990
518172
518354
518535
518719
518902
519084
519265
519450
519554
519774
519965
520154
520340
520523
520708
520895
521077
521258
521436
521623
521806
521988
522172
522359
522539
522719
522896
523079
523258
523432
523607
523785
523957
524133
524310
524484
524660
524840
