peaks
75076
75391
75666
75942
76261
76550
76807
77095
77414
77698
77950
78239
78542
78801
79046
79326
79630
79900
80143
80421
80732
81015
81289
81584
81888
82144
82394
82679
82979
83250
83551
83877
84171
84426
84700
85021
85307
85567
85863
86165
86445
86712
87018
87319
87589
87853
88176
88487
88746
89039
89366
89669
89923
90199
90533
90827
91087
91407
91730
92021
92280
92561
92883
93170
93433
93745
94057
94333
94585
94892
95195
95458
95701
95966
96286
96565
96810
97086
97411
97685
97953
98287
98602
98858
99132
99450
99734
99977
100257
100569
100847
101109
101422
101737
102013
102301
102624
102906
103158
103444
103780
104080
104339
104615
104936
105221
105512
105830
106121
106380
106646
106962
107256
107508
107772
108071
108329
108598
108921
109220
109471
109731
110040
110313
110569
110899
111206
111480
111772
112089
112373
112631
112969
113292
113564
113814
114160
114474
114759
115021
115331
115628
115894
116161
116482
116776
117029
117315
117616
117897
118148
118439
118766
119064
119329
119650
119965
120232
120476
120746
121061
121345
121590
121862
122180
122449
122694
122993
123291
123555
123800
124120
124422
124677
124946
125255
125535
125808
126132
126440
126723
127044
127373
127667
127929
128246
128573
128866
129140
129453
129772
130037
130303
130612
130912
131177
131468
131795
132077
132330
132641
132965
133254
133517
133827
134149
134418
134677
135026
135341
135615
135869
136188
136502
136770
137061
137391
137671
137928
138225
138530
138793
139083
139385
139670
139922
140244
140580
140874
141137
141474
141788
142057
142339
142662
142941
143207
143532
143822
144087
144382
144693
144951
145220
145550
145838
146110
146403
146706
146961
147223
147503
147767
148042
148380
148702
148980
149297
149614
149899
150197
150529
150825
151088
151394
151710
151991
152252
152559
152863
153130
153401
153721
154020
154285
154595
154913
155178
155436
155737
155997
156244
156518
156856
157161
157428
157741
158089
158395
158678
159020
159336
159601
159898
160209
160476
160711
161034
161340
161600
161843
162184
162516
162792
163088
163399
163662
163910
164218
164552
164839
165136
165441
165750
166032
166349
166655
166918
167181
167498
167791
168047
168328
168626
168894
169153
169452
169758
170027
170293
170614
170898
171149
171419
171734
172013
172258
172532
172844
173130
173384
173689
174005
174296
174556
174861
175171
175436
175701
176032
176325
176580
176870
177197
177485
177733
178015
178306
178581
178847
179129
179420
179674
179943
180267
180550
180802
181125
181443
181713
181952
182271
182578
182837
183090
183424
183718
183964
184225
184537
184802
185070
185389
185679
185935
186250
186576
186863
187145
187476
187759
188009
188317
188619
188888
189149
189467
189767
190023
190283
190612
190902
191154
191449
191773
192046
192327
192629
192913
193177
193520
193837
194115
194454
194785
195076
195356
195684
195995
196253
196513
196851
197147
197406
197700
198023
198297
198552
198817
199103
199364
199624
199943
200246
200508
200778
201115
201424
201681
201959
202267
202550
202795
203085
203406
203692
203942
204231
204541
204838
205113
205429
205746
206034
206338
206671
206986
207271
207595
207909
208186
208482
208817
209121
209381
209654
209961
210247
210494
210744
211046
211325
211568
211868
212164
212435
212699
213028
213326
213588
213887
214208
214486
214752
215082
215391
215657
215959
216273
216556
216856
217178
217460
217715
218021
218332
218603
218891
219224
219505
219743
220026
220358
220666
220914
221203
221530
221812
222080
222395
222679
222932
223208
223543
223831
224116
224438
224723
224978
225253
225557
225842
226088
226409
226740
227034
227322
227650
227958
228235
228555
228886
229191
229465
229804
230130
230410
230716
231062
231375
231650
231952
232287
232588
232850
233159
233467
233738
233994
234299
234609
234875
235137
235432
235722
235982
236284
236597
236880
237134
237432
237738
238006
238279
238608
238927
239201
239505
239816
240114
240379
240675
240979
241256
241503
241789
242088
242350
242596
242883
243196
243464
243741
244043
244333
244578
244843
245142
245419
245673
245976
246309
246596
246862
247180
247475
247741
248040
248368
248666
248929
249243
249549
249815
250067
250309
250657
250984
251330
251591
251943
252284
252576
252933
253278
253589
253849
254147
254496
254816
255097
255422
255747
256027
256342
256661
256956
257209
257514
257810
258073
258337
258653
258944
259200
259502
259821
260122
260382
260702
261039
261342
261606
261926
262251
262540
262806
263110
263420
263684
263959
264271
264568
264832
265116
265428
265717
265980
266288
266612
266910
267185
267500
267816
268118
268377
268652
268983
269289
269573
269907
270218
270485
270804
271115
271405
271665
271985
272283
272541
272819
273134
273430
273692
274008
274332
274615
274896
275202
275504
275778
276082
276388
276658
276929
277240
277539
277799
278098
278424
278714
278990
279275
279576
279852
280116
280420
280723
281001
281305
281632
281924
282178
282467
282802
283104
283384
283709
284027
284313
284591
284921
285243
285503
285756
286070
286370
286633
286922
287248
287549
287815
288113
288422
288699
288990
289301
289584
289844
290189
290499
290798
291080
291432
291719
292021
292322
292623
292899
293177
293488
293778
294046
294317
294614
294912
295171
295465
295805
296113
296382
296717
297036
297318
297608
297935
298247
298507
298817
299145
299435
299705
300008
300319
300578
300867
301178
301461
301708
301989
302276
302543
302799
303112
303411
303675
303960
304263
304537
304786
305106
305419
305691
305970
306275
306553
306801
307084
307419
307685
307927
308213
308541
308829
309084
309400
309708
310007
310256
310602
310937
311233
311489
311816
312123
312395
312674
313022
313332
313600
313906
314227
314522
314785
315092
315407
315675
315941
316258
316535
316797
317106
317402
317673
317924
318193
318520
318812
319088
319393
319689
319964
320291
320628
320917
321176
321486
321803
322080
322386
322710
323004
323265
323556
323860
324129
324368
324680
324996
325254
325498
325866
326196
326503
326789
327139
327474
327751
328049
328404
328728
329011
329308
329647
329959
330228
330557
330867
331131
331418
331724
332031
332286
332583
332918
333216
333484
333803
334139
334423
334697
335027
335341
335627
335924
336242
336532
336844
337174
337464
337724
338018
338338
338621
338902
339211
339501
339773
340092
340396
340664
340936
341266
341556
341825
342157
342472
342730
342993
343291
343591
343862
344163
344487
344754
345080
345380
345640
345931
346270
346572
346846
347169
347489
347765
348057
348392
348689
348954
349261
349592
349885
350150
350474
350796
351085
351348
351649
351955
352219
352471
352768
353071
353345
353622
353926
354190
354432
354720
355033
355313
355593
355936
356233
356498
356821
357139
357412
357661
358003
358334
358604
358890
359202
359494
359752
360033
360343
360622
360904
361213
361525
361797
362075
362399
362682
362939
363245
363562
363851
364110
364430
364763
365039
365284
365564
365888
366174
366434
366748
367056
367325
367603
367911
368206
368462
368722
369035
369344
369617
369932
370252
370528
370817
371152
371466
371732
372039
372380
372686
372947
373265
373583
373864
374147
374456
374753
375000
375300
375612
375876
376145
376462
376786
377059
377360
377668
377960
378219
378525
378850
379136
379426
379727
380003
380249
380606
380917
381186
381475
381813
382121
382391
382680
383000
383277
383532
383823
384151
384445
384695
384977
385305
385612
385874
386180
386493
386767
387042
387341
387636
387902
388212
388539
388837
389108
389423
389737
390010
390299
390604
390883
391165
391474
391771
392047
392350
392668
392947
393256
393575
393875
394129
394428
394777
395072
395358
395699
396020
396305
396609
396920
397195
397433
397683
398007
398286
398543
398873
399180
399449
399745
400066
400359
400622
400950
401276
401561
401864
402193
402500
402807
403125
403426
403695
403951
404269
404576
404855
405160
405486
405772
406041
406367
406687
406966
407264
407590
407869
408135
408442
408755
409026
409291
409604
409897
410155
410429
410738
411028
411313
411631
411917
412160
412464
412755
413018
413298
413608
413897
414153
414466
414782
415052
415305
415651
415960
416227
416504
416847
417160
417439
417732
418058
418348
418649
418966
419260
419516
419787
420081
420365
420619
420895
421204
421463
421741
422054
422355
422617
422948
423283
423582
423854
424177
424501
424791
425070
425414
425722
425992
426293
426620
426908
427171
427520
427829
428117
428423
428753
429034
429287
429557
429891
430195
430448
430769
431092
431373
431688
432007
432290
432608
432941
433221
433494
433832
434105
434344
434600
434905
435174
435445
435763
436053
436353
436667
436965
437239
437568
437898
438181
438461
438800
439109
439396
439727
440058
440358
440623
440968
441293
441584
441883
442210
442515
442797
443115
443441
443730
443985
444300
444604
444866
445130
445433
445724
445989
446277
446583
446870
447135
447442
447744
448001
448269
448592
448892
449146
449427
449731
450006
450269
450582
450890
451160
451416
451719
452017
452282
452559
452896
453199
453467
453779
454106
454403
454690
455018
455321
455588
455877
456205
456488
456762
457069
457359
457621
457893
458217
458506
458767
459088
459403
459691
459951
460254
460568
460853
461144
461474
461775
462029
462296
462608
462918
463189
463465
463802
464114
464391
464705
465030
465320
465575
465893
466207
466474
466773
467096
467369
467627
467952
468285
468572
468869
469199
469507
469768
470089
470411
470703
470988
471313
471602
471883
472195
472495
472764
473059
473369
473649
473911
474226
474540
474816
475108
475426
475720
475975
476278
476603
476902
477161
477447
477775
478045
478293
478545
478846
479102
479372
479673
479922
480195
480500
480771
481014
481359
481668
481952
482254
482578
482879
483145
483471
483812
484118
484387
484721
485044
485315
485617
485937
486224
486487
486785
487088
487357
487624
487925
488190
488451
488773
489086
489357
489691
490016
490292
490573
490882
491197
491460
491782
492098
492374
492646
492964
493252
493510
493791
494114
494380
494619
494895
495205
495483
495790
496093
496378
496656
496958
497248
497502
497762
498097
498417
498691
498973
499300
499592
499846
500123
500451
500733
501003
501327
501634
501904
502185
502504
502817
503084
503357
503675
503969
504231
504551
504886
505196
505493
505853
506180
506459
506771
507094
507390
507642
507941
508272
508557
508810
509100
509413
509678
509916
510213
510535
510802
511070
511407
511692
511946
512217
512558
512837
513123
513453
513758
514029
514341
514658
514953
515250
515571
515855
516096
516344
516656
516938
517228
517541
517844
518102
518424
518744
519021
519264
519555
519902
520195
520460
520786
521120
521411
521715
522051
522357
522621
522922
523242
523530
523792
524118
524437
524707
