peaks
75062
75246
75430
75612
75798
75983
76165
76349
76531
76716
76900
77084
77267
77451
77636
77819
78001
78186
78370
78554
78738
78923
79107
79288
79474
79657
79841
80026
80208
80390
80576
80758
80943
81127
81310
81493
81678
81860
82047
82228
82414
82598
82783
82967
83149
83333
83517
83700
83883
84068
84253
84436
84631
84803
84987
85170
85354
85537
85721
85906
86088
86272
86455
86639
86823
87008
87190
87377
87559
87745
87927
88114
88295
88479
88663
88846
89029
89214
89397
89580
89764
89949
90131
90314
90498
90681
90866
91050
91234
91417
91603
91786
91971
92154
92338
92523
92708
92890
93073
93257
93441
93626
93809
93994
94178
94361
94545
94728
94912
95096
95278
95463
95646
95830
96013
96199
96382
96565
96749
96934
97118
97302
97485
97668
97855
98039
98222
98406
98589
98772
98956
99139
99323
99504
99689
99873
100057
100240
100423
100607
100793
100977
101160
101344
101527
101710
101897
102080
102263
102447
102631
102814
102998
103182
103365
103549
103732
103918
104102
104285
104469
104652
104837
105020
105204
105388
105572
105756
105940
106124
106306
106490
106674
106859
107041
107225
107411
107593
107777
107960
108145
108328
108512
108694
108879
109062
109247
109432
109615
109799
109984
110167
110349
110535
110718
110900
111086
111270
111451
111638
111821
112005
112190
112373
112557
112741
112923
113099
113291
113474
113658
113844
114027
114211
114395
114579
114761
114945
115129
115313
115496
115680
115862
116048
116231
116416
116599
116783
116967
117151
117334
117519
117701
117886
118071
118252
118437
118621
118806
118988
119173
119357
119540
119722
119908
120091
120274
120458
120643
120825
121010
121194
121377
121561
121746
121930
122115
122298
122483
122667
122851
123036
123219
123402
123586
123770
123953
124136
124320
124503
124687
124870
125056
125239
125421
125606
125790
125972
126156
126341
126523
126709
126893
127077
127262
127444
127629
127813
127996
128180
128363
128547
128732
128914
129099
129282
129465
129649
129833
130015
130200
130383
130567
130751
130936
131120
131303
131488
131673
131857
132040
132224
132408
132593
132774
132960
133143
133327
133510
133693
133876
134061
134243
134429
134611
134794
134980
135163
135347
135531
135715
135900
136083
136266
136449
136634
136818
137002
137186
137369
137553
137736
137920
138103
138287
138470
138653
138837
139021
139205
139389
139573
139757
139940
140124
140306
140493
140677
140862
141045
141230
141412
141596
141781
141966
142148
142331
142515
142698
142882
143065
143248
143432
143615
143799
143984
144168
144352
144536
144720
144903
145087
145272
145455
145638
145823
146007
146192
146375
146559
146743
146927
147111
147295
147479
147663
147845
148027
148212
148394
148579
148765
148948
149132
149317
149500
149684
149868
150052
150235
150419
150602
150786
150969
151154
151337
151521
151705
151889
152074
152258
152440
152624
152810
152994
153177
153361
153544
153726
153912
154094
154278
154461
154646
154831
155015
155197
155381
155565
155749
155932
156115
156300
156482
156666
156851
157035
157218
157404
157588
157772
157957
158139
158323
158505
158691
158875
159058
159241
159424
159607
159791
159976
160159
160342
160527
160709
160896
161079
161263
161446
161630
161815
161999
162184
162366
162552
162736
162919
163102
163285
163469
163653
163838
164021
164203
164388
164570
164755
164939
165123
165307
165491
165675
165859
166043
166225
166410
166594
166777
166962
167145
167329
167511
167696
167881
168062
168247
168431
168614
168799
168982
169166
169349
169532
169715
169901
170085
170269
170452
170637
170823
171006
171191
171374
171557
171741
171926
172107
172293
172476
172660
172843
173028
173211
173392
173579
173761
173946
174129
174312
174497
174681
174866
175049
175233
175417
175600
175784
175970
176155
176338
176523
176706
176891
177073
177257
177440
177624
177806
177990
178173
178358
178541
178725
178909
179093
179277
179461
179644
179827
180012
180196
180380
180563
180746
180931
181116
181299
181482
181666
181850
182034
182218
182402
182586
182770
182954
183136
183320
183505
183688
183871
184057
184241
184424
184608
184792
184975
185160
185344
185527
185711
185893
186077
186262
186446
186629
186815
186997
187181
187363
187549
187733
187918
188103
188284
188467
188652
188836
189021
189204
189387
189571
189754
189938
190122
190307
190489
190674
190858
191043
191226
191410
191593
191777
191961
192146
192328
192513
192697
192882
193065
193249
193432
193614
193798
193983
194166
194351
194534
194718
194901
195086
195270
195452
195638
195821
196005
196189
196371
196555
196739
196925
197108
197291
197475
197659
197843
198027
198210
198394
198578
198761
198943
199128
199312
199495
199679
199863
200046
200233
200416
200600
200786
200970
201152
201337
201522
201706
201890
202073
202255
202441
202624
202807
202991
203176
203356
203540
203726
203909
204093
204276
204461
204644
204829
205013
205196
205380
205564
205748
205934
206118
206300
206484
206667
206851
207035
207220
207401
207587
207771
207954
208137
208321
208505
208688
208873
209056
209239
209423
209608
209791
209975
210160
210342
210527
210713
210897
211080
211265
211449
211632
211817
212000
212183
212368
212550
212734
212918
213101
213282
213467
213652
213836
214020
214204
214384
214571
214755
214938
215123
215307
215490
215675
215858
216041
216226
216409
216592
216777
216959
217143
217327
217510
217694
217878
218062
218246
218429
218614
218797
218981
219165
219350
219531
219715
219901
220085
220269
220453
220635
220821
221003
221185
221371
221555
221737
221922
222106
222290
222473
222658
222843
223025
223209
223394
223576
223759
223945
224129
224312
224495
224680
224865
225047
225232
225416
225599
225785
225969
226153
226336
226518
226703
226886
227070
227255
227437
227622
227805
227991
228175
228357
228541
228725
228909
229093
229276
229459
229644
229828
230013
230195
230381
230562
230748
230930
231116
231298
231482
231668
231851
232036
232218
232402
232586
232770
232954
233137
233320
233503
233687
233871
234054
234238
234421
234606
234790
234974
235157
235343
235526
235711
235894
236079
236262
236447
236630
236813
236996
237180
237363
237547
237733
237915
238100
238284
238468
238649
238833
239018
239201
239385
239571
239752
239939
240122
240306
240491
240675
240858
241044
241227
241411
241594
241779
241961
242146
242328
242512
242695
242880
243063
243246
243430
243615
243798
243982
244167
244350
244535
244719
244902
245087
245270
245454
245639
245822
246006
246189
246373
246556
246739
246924
247108
247291
247474
247659
247842
248025
248208
248392
248576
248761
248945
249129
249314
249496
249680
249865
250049
250233
250417
250602
250785
250969
251153
251335
251520
251704
251887
252070
252254
252437
252621
252807
252990
253175
253359
253542
253727
253911
254095
254279
254463
254646
254831
255016
255200
255383
255565
255750
255934
256118
256300
256482
256669
256851
257035
257218
257402
257587
257769
257955
258140
258323
258506
258691
258875
259059
259243
259426
259609
259793
259976
260162
260345
260529
260712
260898
261081
261265
261448
261632
261817
262000
262184
262369
262552
262736
262920
263103
263286
263471
263653
263838
264022
264205
264389
264573
264755
264942
265126
265309
265493
265677
265861
266045
266229
266413
266595
266779
266963
267148
267332
267515
267700
267882
268067
268249
268434
268617
268802
268986
269170
269353
269537
269722
269905
270088
270274
270457
270641
270825
271011
271195
271379
271562
271746
271929
272113
272297
272478
272663
272846
273031
273213
273397
273580
273766
273950
274133
274317
274502
274684
274868
275052
275237
275420
275603
275788
275971
276155
276338
276523
276707
276889
277074
277256
277442
277626
277809
277993
278176
278359
278545
278729
278913
279097
279282
279465
279650
279835
280019
280203
280386
280570
280753
280938
281121
281303
281488
281671
281856
282039
282223
282405
282590
282776
282959
283142
283326
283510
283695
283880
284063
284246
284430
284616
284800
284982
285168
285350
285534
285717
285903
286086
286267
286450
286636
286819
287004
287188
287371
287554
287739
287923
288107
288292
288476
288660
288843
289027
289211
289395
289580
289765
289948
290131
290315
290499
290682
290866
291049
291234
291417
291601
291784
291968
292152
292335
292518
292704
292886
293072
293255
293438
293622
293807
293992
294175
294358
294540
294726
294910
295095
295277
295460
295643
295827
296013
296197
296377
296563
296748
296932
297115
297299
297482
297665
297850
298035
298217
298402
298585
298770
298954
299137
299322
299505
299690
299873
300058
300241
300423
300606
300792
300977
301159
301345
301527
301711
301895
302079
302263
302446
302630
302813
302999
303182
303366
303547
303734
303918
304100
304284
304469
304653
304838
305022
305205
305389
305571
305757
305941
306125
306309
306493
306677
306860
307045
307228
307411
307594
307779
307962
308146
308331
308515
308698
308882
309066
309250
309435
309617
309802
309987
310171
310354
310537
310723
310907
311091
311276
311457
311642
311826
312009
312191
312376
312558
312742
312927
313109
313292
313477
313661
313846
314031
314215
314398
314584
314768
314951
315137
315320
315502
315686
315869
316052
316237
316420
316604
316788
316972
317154
317340
317523
317707
317892
318076
318257
318443
318627
318811
318996
319180
319364
319549
319733
319917
320100
320285
320468
320652
320836
321019
321202
321386
321570
321754
321938
322121
322305
322489
322673
322858
323041
323226
323411
323594
323777
323962
324145
324330
324514
324697
324882
325065
325248
325431
325616
325799
325982
326167
326350
326532
326718
326902
327085
327270
327454
327636
327821
328006
328189
328374
328557
328741
328924
329110
329293
329478
329662
329845
330029
330212
330396
330580
330764
330947
331132
331315
331498
331684
331867
332051
332235
332418
332605
332787
332970
333156
333339
333524
333708
333890
334075
334259
334444
334627
334811
334994
335178
335361
335547
335730
335914
336097
336281
336466
336650
336833
337018
337202
337384
337567
337751
337936
338120
338304
338488
338672
338856
339042
339224
339409
339592
339777
339960
340144
340327
340512
340696
340880
341065
341249
341432
341616
341800
341982
342166
342349
342533
342717
342902
343084
343268
343453
343638
343821
344005
344190
344374
344558
344741
344927
345110
345293
345476
345661
345845
346029
346213
346397
346579
346762
346949
347132
347315
347497
347684
347868
348051
348235
348419
348604
348789
348974
349158
349340
349525
349709
349894
350077
350261
350444
350627
350811
350996
351177
351362
351546
351729
351914
352097
352279
352463
352647
352832
353015
353200
353384
353566
353754
353937
354121
354305
354488
354671
354856
355038
355222
355406
355589
355772
355957
356140
356323
356508
356692
356875
357060
357244
357427
357612
357797
357981
358164
358349
358532
358717
358901
359086
359269
359452
359637
359822
360005
360188
360371
360556
360739
360923
361107
361289
361474
361658
361842
362026
362209
362395
362578
362762
362948
363132
363316
363499
363683
363868
364052
364235
364420
364601
364787
364969
365154
365338
365520
365705
365890
366073
366257
366438
366624
366808
366992
367177
367360
367544
367729
367912
368098
368281
368464
368648
368831
369017
369198
369383
369568
369750
369934
370119
370303
370487
370671
370854
371038
371222
371406
371590
371774
371958
372143
372325
372509
372694
372877
373060
373246
373429
373613
373796
373979
374165
374348
374532
374716
374901
375084
375269
375452
375634
375821
376004
376188
376371
376555
376739
376923
377107
377290
377474
377659
377842
378028
378212
378396
378579
378764
378947
379129
379314
379497
379681
379865
380049
380233
380416
380601
380784
380969
381154
381336
381519
381703
381887
382069
382255
382439
382623
382807
382988
383173
383359
383543
383728
383912
384097
384280
384463
384647
384832
385016
385199
385382
385565
385750
385932
386117
386301
386484
386668
386854
387036
387220
387405
387589
387774
387958
388141
388324
388510
388694
388878
389063
389247
389431
389613
389798
389980
390165
390348
390531
390715
390899
391081
391266
391451
391639
391818
392003
392187
392370
392553
392739
392925
393108
393292
393476
393659
393844
394027
394211
394395
394578
394763
394946
395129
395312
395497
395680
395864
396047
396232
396415
396600
396782
396967
397152
397337
397519
397705
397889
398073
398257
398442
398624
398808
398992
399178
399361
399545
399728
399912
400097
400280
400463
400646
400832
401015
401200
401385
401568
401752
401937
402119
402303
402490
402673
402857
403043
403224
403408
403592
403776
403959
404143
404326
404508
404692
404878
405062
405246
405430
405614
405796
405982
406165
406347
406534
406717
406901
407083
407269
407452
407637
407822
408006
408190
408373
408557
408741
408924
409108
409293
409475
409658
409843
410029
410211
410395
410579
410764
410948
411132
411314
411499
411683
411867
412050
412235
412418
412601
412785
412972
413153
413336
413522
413707
413890
414073
414256
414440
414625
414808
414992
415176
415361
415543
415729
415911
416096
416280
416463
416645
416830
417015
417199
417383
417568
417751
417936
418121
418304
418486
418673
418856
419042
419224
419408
419592
419776
419960
420144
420327
420509
420694
420878
421061
421244
421430
421612
421795
421981
422164
422346
422531
422718
422901
423085
423268
423453
423638
423823
424007
424190
424375
424558
424741
424925
425110
425293
425476
425660
425846
426029
426212
426396
426579
426763
426949
427133
427318
427502
427687
427872
428055
428239
428423
428606
428790
428974
429159
429342
429524
429709
429894
430075
430260
430444
430628
430813
430996
431179
431364
431547
431731
431916
432099
432284
432467
432651
432836
433020
433202
433387
433571
433756
433939
434131
434306
434488
434672
434856
435041
435224
435409
435591
435776
435961
436145
436329
436513
436698
436880
437066
437250
437434
437617
437801
437987
438169
438353
438536
438720
438904
439089
439272
439456
439638
439821
440007
440192
440376
440560
440745
440929
441113
441297
441479
441664
441849
442034
442218
442402
442586
442769
442952
443138
443322
443506
443689
443872
444057
444239
444424
444607
444791
444975
445158
445343
445526
445711
445895
446080
446262
446447
446630
446815
447000
447183
447368
447551
447736
447921
448105
448287
448472
448654
448839
449022
449206
449390
449573
449758
449942
450125
450310
450494
450679
450861
451047
451229
451413
451597
451781
451965
452149
452333
452516
452701
452886
453070
453254
453437
453621
453806
453991
454174
454358
454541
454727
454911
455095
455276
455461
455645
455829
456013
456198
456381
456564
456748
456934
457116
457301
457486
457670
457855
458037
458221
458406
458588
458774
458957
459141
459324
459508
459692
459875
460060
460245
460427
460610
460795
460978
461163
461348
461531
461715
461899
462083
462266
462450
462636
462819
463004
463187
463371
463554
463739
463923
464105
464289
464473
464657
464840
465024
465208
465391
465577
465759
465946
466129
466312
466497
466680
466865
467048
467233
467419
467602
467786
467971
468154
468338
468521
468703
468890
469074
469256
469439
469622
469807
469991
470175
470357
470541
470728
470911
471095
471279
471462
471647
471833
472017
472202
472384
472567
472752
472938
473120
473302
473487
473669
473852
474037
474221
474403
474586
474772
474956
475141
475325
475510
475693
475876
476062
476245
476428
476614
476796
476982
477088
477270
477454
477640
477822
478008
478192
478375
478559
478744
478927
479110
479297
479478
479662
479847
480030
480214
480399
480581
480766
480952
481135
481319
481503
481688
481871
482057
482239
482423
482606
482789
482975
483159
483343
483527
483709
483894
484080
484262
484446
484632
484815
484999
485182
485366
485549
485735
485917
486102
486286
486469
486654
486839
487023
487207
487392
487575
487758
487942
488128
488311
488496
488680
488862
489047
489232
489415
489597
489782
489966
490149
490334
490518
490701
490885
491069
491265
491437
491622
491806
491990
492175
492356
492541
492726
492909
493094
493278
493462
493644
493830
494014
494197
494381
494564
494748
494932
495117
495299
495485
495668
495853
496037
496221
496404
496589
496773
496958
497143
497326
497510
497694
497878
498061
498245
498429
498611
498795
498980
499164
499346
499531
499714
499899
500083
500266
500449
500634
500817
501002
501186
501371
501555
501740
501924
502108
502291
502476
502659
502842
503027
503209
503394
503578
503762
503944
504130
504312
504496
504680
504865
505049
505232
505416
505601
505785
505971
506156
506339
506523
506707
506891
506999
507183
507367
507550
507737
507920
508114
508287
508470
508653
508838
509023
509205
509390
509572
509757
509941
510125
510307
510493
510677
510862
511047
511230
511414
511597
511783
511966
512149
512332
512515
512701
512884
513067
513251
513434
513619
513804
513988
514171
514355
514540
514723
514908
515092
515275
515460
515644
515830
516012
516197
516380
516563
516748
516931
517116
517299
517482
517667
517852
518037
518221
518402
518589
518773
518956
519141
519325
519507
519691
519877
520059
520244
520428
520612
520797
520981
521164
521349
521533
521717
521902
522085
522267
522451
522636
522820
523004
523187
523371
523555
523740
523924
524109
524291
524475
524659
524843
