peaks
75008
75144
75269
75402
75542
75723
75846
75972
76091
76221
76353
76482
76623
76809
76928
77057
77191
77313
77442
77588
77768
77886
78018
78140
78301
78431
78564
78695
78825
78945
79073
79221
79396
79512
79648
79815
79938
80066
80199
80323
80454
80577
80704
80820
80949
81072
81198
81318
81434
81570
81700
81867
82008
82139
82273
82398
82522
82649
82777
82897
83024
83146
83269
83393
83513
83639
83761
83886
84009
84137
84277
84451
84578
84713
84848
84976
85106
85230
85352
85478
85607
85735
85862
85993
86119
86308
86439
86565
86691
86822
86960
87089
87280
87420
87554
87686
87818
88003
88144
88293
88423
88620
88757
88901
89032
89166
89353
89490
89614
89765
89895
90052
90193
90324
90458
90581
90705
90834
90964
91092
91276
91413
91554
91683
91813
91950
92121
92251
92381
92513
92646
92768
92894
93019
93146
93272
93397
93591
93732
93862
93993
94119
94243
94365
94494
94617
94811
94942
95071
95198
95326
95453
95588
95720
95888
96018
96148
96281
96408
96534
96657
96787
96907
97020
97148
97272
97394
97516
97643
97797
97945
98076
98209
98341
98468
98595
98710
98826
98961
99084
99210
99330
99450
99581
99709
99829
99972
100157
100278
100402
100532
100664
100799
100925
101060
101191
101386
101523
101644
101789
101918
102058
102219
102333
102468
102598
102725
102850
102989
103122
103306
103446
103578
103710
103845
104032
104156
104291
104425
104557
104696
104827
104951
105073
105181
105360
105498
105623
105743
105874
106071
106189
106317
106450
106579
106701
106828
106951
107079
107213
107395
107518
107657
107786
107908
108034
108153
108279
108402
108553
108701
108838
108967
109106
109221
109352
109471
109596
109719
109840
109964
110089
110212
110334
110461
110588
110710
110833
110954
111077
111203
111326
111460
111642
111770
111898
112027
112157
112286
112411
112534
112656
112785
112913
113035
113160
113314
113479
113614
113742
113871
113994
114125
114255
114389
114560
114690
114816
114946
115081
115209
115330
115458
115587
115729
115897
116032
116165
116291
116420
116558
116742
116861
116992
117119
117278
117406
117526
117649
117844
118015
118137
118271
118394
118520
118649
118776
118900
119107
119242
119372
119500
119633
119780
119932
120053
120175
120303
120417
120541
120661
120783
120904
121027
121143
121267
121394
121523
121643
121774
121897
122031
122222
122341
122468
122599
122728
122855
122983
123115
123241
123373
123562
123680
123813
123982
124114
124240
124366
124496
124622
124778
124940
125076
125207
125339
125464
125599
125735
125907
126032
126163
126295
126422
126552
126690
126876
126994
127127
127255
127381
127514
127647
127821
127945
128072
128201
128329
128456
128585
128714
128917
129030
129166
129294
129421
129549
129674
129801
129974
130104
130230
130365
130492
130606
130747
130885
131075
131186
131309
131427
131549
131679
131802
131924
132054
132178
132295
132413
132541
132663
132784
132900
133031
133153
133276
133396
133517
133661
133840
133965
134089
134222
134343
134465
134578
134712
134834
134955
135079
135203
135329
135457
135580
135713
135837
135958
136082
136206
136328
136457
136582
136706
136844
137022
137156
137277
137412
137545
137671
137801
137926
138050
138190
138357
138496
138624
138754
138881
139007
139147
139326
139456
139574
139699
139827
139954
140084
140215
140399
140515
140640
140763
140884
141005
141134
141255
141399
141571
141692
141816
141935
142054
142179
142298
142423
142541
142662
142778
142900
143024
143142
143261
143400
143539
143703
143825
143946
144068
144187
144307
144422
144545
144665
144790
144907
145026
145156
145284
145404
145556
145724
145846
145968
146095
146223
146333
146451
146566
146687
146802
146923
147052
147176
147315
147445
147625
147791
147934
148096
148214
148337
148460
148580
148701
148825
148940
149064
149181
149304
149423
149553
149679
149811
149952
150085
150251
150376
150498
150618
150742
150859
150982
151101
151231
151352
151479
151607
151731
151874
152040
152159
152279
152404
152530
152662
152785
152912
153036
153166
153307
153470
153589
153712
153833
153950
154070
154192
154308
154434
154562
154685
154805
154955
155134
155253
155372
155490
155613
155729
155849
155961
156081
156203
156327
156444
156562
156681
156803
156926
157043
157159
157288
157409
157545
157685
157859
157978
158098
158215
158336
158455
158572
158692
158811
158939
159058
159178
159309
159463
159622
159745
159864
159983
160101
160219
160336
160455
160573
160694
160814
160932
161052
161172
161288
161409
161529
161646
161768
161890
162012
162135
162261
162407
162598
162729
162869
163069
163197
163326
163474
163644
163767
163887
164013
164143
164268
164409
164578
164705
164821
164941
165063
165178
165291
165409
165532
165646
165766
165887
166038
166181
166303
166415
166534
166652
166768
166883
166998
167120
167237
167353
167464
167582
167700
167825
167940
168055
168174
168293
168411
168526
168644
168766
168881
169001
169118
169234
169353
169473
169592
169709
169827
169944
170061
170177
170298
170418
170537
170661
170787
170925
171061
171230
171405
171526
171638
171760
171879
171992
172116
172228
172347
172460
172579
172695
172814
172934
173053
173172
173294
173424
173559
173692
173871
174002
174133
174278
174446
174567
174687
174805
174917
175037
175156
175275
175392
175507
175627
175750
175865
175984
176110
176235
176390
176560
176679
176792
176911
177033
177150
177260
177379
177494
177616
177735
177859
177984
178136
178315
178436
178573
178719
178887
179004
179126
179249
179369
179488
179613
179745
179889
180068
180184
180300
180422
180547
180680
180820
180953
181117
181252
181389
181521
181691
181811
181928
182049
182170
182286
182402
182520
182648
182768
182891
183017
183158
183345
183468
183598
183721
183869
184038
184156
184277
184397
184510
184628
184744
184859
184983
185096
185218
185339
185459
185585
185705
185844
185993
186148
186270
186392
186508
186623
186740
186861
186976
187093
187209
187329
187448
187568
187687
187807
187926
188047
188161
188285
188400
188523
188633
188757
188928
189066
189197
189346
189503
189625
189745
189861
189978
190094
190211
190333
190449
190568
190685
190805
190923
191041
191155
191273
191392
191511
191626
191746
191858
191980
192100
192223
192391
192518
192649
192794
192919
193086
193210
193328
193448
193565
193689
193807
193925
194041
194159
194282
194399
194518
194635
194755
194873
194993
195110
195224
195348
195473
195593
195715
195841
195966
196094
196236
196415
196542
196671
196794
196917
197071
197238
197355
197473
197589
197708
197828
197941
198060
198185
198310
198424
198543
198664
198791
198918
199045
199168
199313
199485
199600
199722
199838
199956
200079
200198
200317
200442
200565
200683
200808
200920
201040
201162
201275
201391
201508
201629
201749
201875
201980
202101
202218
202339
202458
202583
202743
202879
203004
203130
203273
203454
203579
203696
203806
203925
204042
204173
204284
204400
204518
204639
204761
204879
205000
205113
205237
205348
205468
205590
205711
205829
205944
206059
206181
206298
206419
206537
206655
206769
206892
207018
207183
207319
207453
207583
207725
207901
208022
208138
208261
208378
208495
208614
208732
208848
208967
209085
209204
209326
209442
209560
209675
209796
209916
210033
210151
210270
210387
210508
210619
210740
210857
210982
211096
211218
211349
211478
211600
211744
211937
212062
212186
212312
212434
212645
212779
212917
213048
213172
213359
213481
213624
213758
213928
214059
214176
214298
214424
214549
214675
214808
214946
215138
215250
215368
215482
215608
215721
215835
215949
216072
216190
216315
216432
216561
216680
216793
216917
217031
217154
217276
217397
217519
217643
217776
217915
218075
218198
218320
218438
218562
218678
218797
218928
219052
219192
219334
219487
219612
219743
219855
219971
220092
220215
220338
220462
220583
220708
220827
220947
221074
221193
221321
221448
221585
221715
221897
222033
222166
222306
222479
222603
222741
222865
222984
223130
223321
223434
223559
223688
223818
223964
224095
224268
224381
224489
224616
224729
224848
224965
225075
225266
225397
225551
225727
225846
225986
226119
226304
226421
226541
226660
226776
226894
227023
227154
227366
227506
227656
227790
227937
228064
228237
228364
228476
228600
228714
228829
228950
229082
229206
229346
229490
229638
229761
229882
230003
230122
230242
230360
230481
230603
230731
230851
230977
231113
231252
231430
231549
231671
231794
231912
232025
232147
232260
232384
232496
232615
232742
232864
232988
233118
233246
233387
233564
233683
233807
233921
234044
234161
234280
234400
234521
234640
234754
234878
235000
235119
235237
235362
235485
235607
235736
235869
235999
236133
236255
236426
236553
236672
236792
236910
237036
237157
237283
237411
237549
237724
237844
237965
238085
238208
238333
238449
238577
238701
238831
238963
239093
239220
239342
239511
239632
239760
239889
240015
240154
240295
240440
240564
240674
240801
240923
241045
241165
241311
241446
241577
241693
241814
241936
242054
242168
242289
242406
242525
242642
242755
242876
242995
243111
243228
243348
243464
243577
243702
243824
243949
244066
244181
244304
244428
244550
244665
244783
244905
245031
245151
245266
245386
245511
245635
245751
245867
245987
246111
246233
246351
246474
246595
246714
246837
246961
247071
247192
247309
247433
247551
247668
247783
247905
248021
248132
248247
248366
248483
248602
248724
248852
248974
249100
249226
249351
249487
249628
249798
249921
250038
250151
250283
250409
250532
250655
250793
250928
251058
251185
251365
251495
251620
251768
251900
252075
252189
252306
252424
252533
252650
252773
252889
253008
253130
253241
253361
253478
253598
253725
253841
253960
254074
254197
254322
254438
254556
254678
254804
254922
255042
255163
255288
255406
255526
255648
255771
255892
256011
256137
256257
256372
256493
256612
256727
256852
256975
257095
257215
257332
257451
257574
257702
257822
257943
258082
258217
258394
258509
258643
258768
258904
259036
259168
259385
259521
259646
259759
259891
260012
260138
260276
260404
260592
260754
260947
261119
261272
261393
261524
261686
261829
261953
262073
262197
262346
262523
262639
262772
262899
263034
263172
263356
263494
263637
263764
263999
264177
264295
264411
264531
264649
264772
264902
265024
265164
265344
265529
265665
265812
265939
266080
266237
266405
266536
266656
266777
266896
267023
267132
267255
267371
267506
267629
267752
267891
268030
268152
268333
268465
268614
268740
268975
269097
269268
269407
269518
269644
269771
269901
270038
270168
270349
270486
270619
270753
270901
271058
271174
271287
271409
271533
271655
271773
271891
272016
272133
272255
272371
272492
272625
272749
272883
273016
273141
273255
273376
273498
273621
273744
273869
273989
274114
274258
274445
274575
274699
274832
274967
275175
275297
275421
275550
275667
275783
275900
276025
276140
276261
276378
276507
276619
276739
276859
277019
277152
277274
277397
277516
277629
277746
277867
277988
278102
278221
278341
278463
278581
278697
278815
278942
279060
279176
279290
279415
279529
279642
279760
279875
279998
280117
280238
280354
280473
280590
280713
280836
280958
281075
281186
281313
281434
281555
281672
281810
281930
282059
282186
282323
282452
282578
282755
282885
283017
283155
283280
283402
283570
283691
283815
283933
284060
284180
284309
284432
284561
284695
284823
285001
285128
285248
285401
285525
285649
285761
285881
285998
286116
286231
286352
286468
286585
286701
286824
286939
287059
287176
287300
287415
287535
287653
287780
287891
288009
288129
288252
288370
288488
288607
288728
288844
288965
289086
289204
289320
289442
289566
289679
289797
289914
290043
290161
290278
290397
290519
290636
290758
290878
290997
291115
291240
291356
291477
291595
291714
291834
291957
292072
292191
292311
292437
292552
292671
292793
292913
293032
293153
293276
293391
293511
293632
293757
293871
293987
294114
294235
294346
294466
294584
294711
294826
294946
295063
295187
295308
295428
295544
295670
295790
295911
296028
296151
296269
296390
296510
296634
296753
296868
296993
297118
297232
297350
297469
297595
297713
297833
297953
298075
298197
298316
298427
298549
298675
298797
298911
299037
299212
299350
299476
299612
299731
299856
299977
300094
300209
300325
300446
300566
300685
300799
300921
301041
301160
301276
301398
301517
301637
301755
301877
301993
302114
302235
302359
302475
302594
302714
302837
302952
303072
303197
303313
303434
303558
303677
303799
303917
304036
304159
304274
304394
304516
304640
304757
304875
304992
305116
305236
305352
305473
305592
305716
305834
305956
306074
306195
306317
306435
306550
306671
306794
306914
307030
307152
307268
307391
307506
307621
307743
307868
307986
308101
308215
308341
308460
308581
308700
308823
308939
309059
309178
309299
309418
309535
309655
309777
309894
310017
310127
310253
310373
310493
310607
310727
310849
310971
311087
311206
311313
311451
311568
311686
311805
311930
312047
312161
312282
312409
312526
312647
312768
312886
313004
313122
313241
313359
313481
313600
313724
313841
313961
314082
314197
314320
314444
314564
314681
314800
314924
315043
315163
315279
315403
315523
315636
315755
315880
315991
316111
316232
316353
316472
316592
316714
316832
316953
317074
317192
317312
317433
317551
317669
317787
317908
318030
318146
318262
318383
318506
318624
318741
318858
318983
319100
319220
319337
319465
319581
319701
319820
319944
320122
320272
320411
320533
320652
320770
320895
321014
321150
321277
321398
321513
321640
321784
321958
322077
322203
322329
322459
322649
322777
322946
323081
323238
323355
323480
323601
323717
323828
323951
324080
324195
324315
324440
324568
324747
324948
325076
325198
325315
325449
325600
325721
325841
325961
326081
326194
326315
326434
326553
326673
326793
326910
327034
327149
327271
327390
327507
327628
327750
327873
327991
328111
328231
328354
328472
328590
328712
328833
328950
329067
329185
329309
329427
329542
329666
329784
329903
330023
330145
330258
330378
330503
330621
330736
330858
330981
331100
331213
331338
331455
331576
331693
331816
331933
332047
332166
332291
332406
332525
332644
332769
332880
333003
333123
333245
333362
333482
333601
333722
333839
333960
334082
334197
334314
334437
334557
334674
334792
334914
335028
335149
335268
335387
335506
335624
335743
335867
335983
336101
336224
336345
336463
336579
336703
336821
336941
337060
337177
337292
337417
337541
337655
337767
337891
338016
338135
338248
338370
338488
338610
338725
338853
338976
339097
339213
339337
339451
339562
339688
339811
339923
340041
340162
340284
340400
340518
340637
340759
340879
340995
341114
341238
341356
341476
341596
341716
341834
341952
342083
342197
342312
342432
342554
342674
342789
342909
343029
343147
343265
343389
343498
343622
343743
343866
343987
344103
344224
344348
344463
344583
344705
344826
344944
345066
345185
345303
345425
345546
345666
345784
345910
346027
346149
346267
346381
346503
346628
346761
346875
347041
347183
347313
347442
347594
347764
347884
348004
348123
348238
348357
348480
348598
348713
348832
348954
349074
349193
349309
349424
349555
349674
349793
349906
350025
350149
350271
350385
350513
350632
350750
350869
350990
351107
351227
351346
351463
351584
351704
351816
351945
352067
352185
352295
352410
352544
352664
352779
352900
353022
353141
353261
353375
353498
353617
353731
353851
353969
354090
354210
354327
354449
354571
354694
354813
354925
355052
355170
355289
355408
355531
355648
355768
355881
356008
356125
356241
356359
356480
356600
356718
356834
356952
357070
357189
357312
357439
357557
357678
357800
357920
358036
358160
358279
358401
358517
358637
358760
358884
359002
359119
359237
359363
359479
359599
359719
359846
359964
360084
360202
360319
360445
360562
360680
360803
360920
361041
361158
361280
361396
361515
361633
361761
361876
361999
362116
362241
362355
362470
362587
362713
362835
362945
363067
363191
363302
363433
363622
363747
363893
364018
364134
364257
364372
364524
364678
364807
364945
365082
365212
365376
365498
365617
365744
365855
365973
366090
366213
366334
366453
366567
366687
366809
366934
367054
367187
367325
367511
367635
367768
367912
368094
368236
368362
368504
368672
368803
368923
369039
369156
369286
369414
369554
369692
369853
369979
370155
370280
370413
370554
370707
370871
370988
371104
371220
371338
371467
371630
371770
371897
372031
372171
372301
372454
372575
372696
372816
372935
373054
373176
373294
373419
373532
373653
373771
373894
374015
374131
374249
374372
374493
374607
374726
374850
374970
375082
375203
375325
375443
375564
375678
375799
375916
376040
376158
376275
376390
376512
376634
376752
376869
376988
377109
377224
377335
377466
377586
377700
377822
377943
378060
378174
378290
378414
378531
378653
378768
378888
379008
379129
379244
379361
379481
379603
379720
379838
379962
380078
380188
380309
380431
380547
380665
380780
380902
381016
381141
381277
381389
381539
381671
381791
381915
382029
382151
382274
382392
382525
382673
382882
383020
383146
383267
383430
383561
383685
383810
383959
384137
384262
384388
384598
384738
384891
385067
385203
385415
385551
385751
385887
386047
386278
386449
386627
386806
386930
387058
387228
387396
387513
387634
387756
387876
388001
388131
388288
388467
388580
388699
388814
388938
389058
389188
389339
389521
389653
389801
389982
390108
390231
390354
390490
390634
390806
390912
391048
391169
391291
391422
391546
391690
391870
391998
392135
392268
392391
392512
392632
392753
392877
392996
393116
393236
393352
393472
393591
393704
393823
393944
394064
394184
394297
394414
394535
394653
394773
394883
395010
395126
395249
395367
395478
395606
395724
395843
395964
396078
396197
396319
396441
396551
396672
396794
396915
397034
397149
397267
397390
397508
397625
397740
397864
397983
398102
398218
398343
398456
398573
398695
398821
398932
399051
399175
399299
399415
399581
399721
399843
399993
400110
400229
400359
400477
400591
400708
400834
400952
401068
401181
401302
401419
401537
401659
401777
401898
402019
402134
402251
402368
402490
402605
402729
402845
402967
403083
403208
403325
403447
403565
403685
403806
403925
404047
404161
404280
404402
404523
404642
404759
404879
405003
405121
405234
405358
405479
405602
405720
405838
405958
406085
406200
406315
406436
406558
406679
406793
406911
407036
407155
407279
407395
407514
407631
407747
407868
407987
408108
408227
408346
408458
408585
408700
408821
408938
409058
409172
409291
409411
409530
409647
409767
409879
410000
410118
410234
410353
410468
410591
410708
410831
410945
411067
411183
411309
411429
411543
411658
411781
411901
412020
412135
412244
412367
412487
412654
412791
412923
413065
413258
413378
413500
413628
413750
413891
414030
414270
414381
414501
414627
414755
414890
415065
415266
415375
415505
415619
415749
415870
416030
416147
416266
416391
416515
416626
416748
416872
416989
417154
417300
417425
417562
417702
417830
418011
418136
418288
418408
418534
418682
418837
418966
419098
419238
419357
419480
419599
419720
419837
419959
420079
420199
420315
420433
420555
420676
420786
420911
421032
421155
421272
421388
421509
421631
421753
421869
421990
422109
422226
422342
422472
422589
422714
422836
422956
423076
423194
423315
423465
423610
423753
423872
424012
424140
424259
424381
424506
424622
424761
424949
425087
425212
425326
425451
425570
425692
425805
425924
426044
426161
426281
426395
426514
426632
426753
426869
426991
427111
427228
427344
427466
427586
427706
427821
427942
428063
428184
428300
428417
428536
428658
428769
428885
429005
429132
429251
429371
429486
429607
429730
429846
429957
430081
430205
430329
430436
430562
430681
430802
430920
431038
431156
431276
431387
431510
431619
431747
431870
431983
432107
432226
432347
432462
432583
432704
432825
432942
433063
433178
433303
433422
433541
433654
433779
433899
434019
434131
434257
434376
434499
434615
434735
434854
434980
435097
435215
435336
435460
435586
435707
435819
435941
436063
436187
436301
436419
436537
436662
436779
436896
437010
437135
437252
437377
437486
437610
437728
437854
437973
438092
438211
438331
438451
438567
438685
438805
438927
439043
439163
439281
439400
439518
439635
439754
439870
439989
440109
440220
440342
440466
440574
440706
440818
440963
441112
441298
441428
441543
441674
441827
442001
442125
442256
442380
442505
442650
442826
442940
443044
443194
443304
443422
443541
443667
443784
443901
444030
444153
444289
444436
444616
444743
444880
445023
445143
445271
445445
445660
445776
445899
446019
446136
446255
446382
446499
446618
446732
446854
446972
447089
447206
447324
447442
447558
447680
447799
447916
448038
448154
448275
448398
448512
448632
448753
448876
448995
449114
449232
449353
449473
449593
449704
449828
449950
450069
450185
450303
450424
450546
450663
450781
450902
451022
451146
451260
451381
451502
451626
451740
451860
451983
452106
452223
452345
452466
452584
452703
452818
452943
453060
453180
453298
453420
453537
453657
453775
453893
454016
454137
454253
454371
454493
454617
454733
454852
454973
455095
455215
455332
455455
455567
455695
455813
455937
456048
456171
456292
456416
456532
456651
456769
456894
457013
457129
457243
457368
457490
457606
457728
457846
457964
458085
458199
458323
458437
458557
458679
458798
458915
459033
459151
459272
459389
459509
459626
459750
459871
459989
460103
460226
460347
460467
460586
460703
460823
460943
461059
461180
461301
461420
461538
461662
461778
461895
462015
462140
462257
462377
462495
462618
462738
462854
462974
463087
463216
463337
463451
463572
463695
463811
463931
464050
464170
464288
464405
464528
464646
464761
464882
465006
465127
465248
465367
465487
465608
465733
465850
465969
466091
466214
466329
466447
466568
466691
466812
466930
467048
467170
467291
467410
467528
467648
467773
467893
468013
468132
468253
468372
468491
468611
468727
468847
468968
469092
469208
469324
469443
469568
469683
469802
469922
470043
470164
470284
470400
470523
470639
470764
470886
471004
471121
471243
471366
471484
471600
471720
471843
471961
472078
472201
472317
472435
472559
472677
472797
472919
473038
473160
473279
473397
473516
473639
473759
473877
473995
474119
474240
474356
474473
474596
474711
474832
474951
475074
475190
475315
475429
475551
475670
475792
475911
476031
476154
476275
476393
476519
476635
476758
476875
476995
477117
477238
477354
477475
477596
477719
477837
477952
478077
478197
478317
478437
478553
478680
478794
478915
479036
479159
479273
479394
479516
479637
479756
479874
479997
480116
480233
480352
480474
480594
480712
480831
480954
481073
481195
481313
481435
481551
481675
481797
481917
482031
482153
482274
482397
482513
482634
482751
482876
482992
483109
483229
483353
483471
483592
483711
483831
483953
484076
484193
484312
484432
484550
484674
484790
484910
485033
485153
485271
485393
485510
485628
485750
485862
485991
486107
486228
486349
486473
486589
486708
486829
486953
487070
487188
487310
487429
487552
487671
487789
487914
488033
488152
488267
488389
488511
488632
488752
488872
488989
489112
489234
489356
489474
489594
489714
489839
489957
490074
490193
490318
490439
490555
490677
490796
490918
491038
491158
491275
491395
491523
491640
491759
491883
492009
492120
492244
492374
492489
492614
492739
492857
492978
493097
493222
493340
493455
493576
493701
493817
493935
494049
494178
494299
494419
494537
494656
494778
494902
495022
495146
495256
495381
495500
495625
495743
495862
495979
496102
496224
496343
496456
496582
496701
496823
496940
497063
497177
497300
497423
497543
497664
497784
497899
498025
498144
498266
498387
498510
498631
498751
498867
498989
499110
499231
499349
499467
499591
499714
499830
499949
500073
500198
500317
500436
500553
500676
500801
500919
501037
501155
501278
501402
501517
501634
501755
501875
501999
502116
502233
502352
502476
502597
502716
502835
502957
503080
503201
503320
503440
503560
503686
503801
503918
504039
504161
504281
504402
504519
504631
504761
504881
504999
505120
505240
505366
505470
505602
505722
505845
505967
506085
506200
506322
506444
506555
506681
506801
506922
507045
507164
507281
507401
507522
507644
507763
507874
508003
508123
508247
508371
508486
508610
508728
508850
508966
509089
509212
509333
509455
509576
509695
509810
509932
510055
510173
510288
510411
510533
510656
510772
510889
511011
511133
511254
511372
511492
511614
511737
511855
511975
512095
512217
512338
512456
512572
512696
512818
512939
513055
513179
513297
513420
513536
513659
513780
513897
514021
514145
514266
514382
514503
514619
514743
514860
514980
515098
515221
515341
515458
515582
515699
515822
515941
516062
516182
516305
516427
516546
516664
516788
516906
517030
517150
517271
517385
517510
517629
517749
517866
517987
518107
518227
518345
518465
518589
518710
518827
518947
519065
519189
519312
519430
519552
519671
519787
519912
520031
520148
520267
520390
520510
520627
520749
520866
520984
521108
521226
521346
521471
521588
521708
521826
521947
522067
522192
522306
522426
522546
522669
522788
522909
523026
523147
523267
523386
523506
523613
523744
523864
523984
524106
524224
524346
524465
524588
524707
524825
524946
