peaks
75097
75262
75425
75592
75759
75920
76080
76243
76411
76570
76671
76901
77065
77226
77394
77556
77717
77871
78045
78201
78362
78523
78688
78845
79002
79163
79324
79483
79650
79811
79973
80139
80305
80474
80639
80806
80973
81142
81309
81477
81645
81811
81981
82150
82315
82485
82652
82820
82982
83148
83312
83475
83643
83808
83971
84135
84305
84471
84637
84803
84970
85134
85300
85465
85628
85795
85957
86120
86282
86444
86608
86772
86937
87097
87256
87419
87579
87743
87903
88065
88230
88396
88560
88723
88889
89051
89211
89375
89541
89702
89864
90028
90190
90351
90513
90678
90843
91004
91102
91330
91494
91657
91822
91987
92154
92321
92490
92657
92823
92988
93152
93313
93479
93645
93807
93960
94138
94305
94465
94630
94795
94963
95121
95286
95448
95608
95776
95946
96112
96278
96448
96613
96779
96943
97109
97271
97434
97598
97759
97920
98082
98242
98401
98559
98720
98881
99040
99197
99357
99516
99677
99834
99995
100151
100309
100466
100626
100782
100941
101099
101260
101416
101574
101735
101892
102051
102211
102371
102529
102687
102849
103007
103154
103319
103473
103630
103785
103944
104104
104261
104421
104588
104745
104908
105070
105176
105397
105562
105723
105886
106049
106216
106376
106539
106702
106867
107033
107196
107361
107479
107695
107858
108023
108187
108351
108515
108684
108847
109010
109119
109338
109502
109665
109826
109989
110156
110321
110485
110650
110815
110986
111151
111315
111482
111647
111815
111981
112147
112312
112476
112646
112809
112974
113140
113305
113472
113637
113802
113969
114136
114304
114469
114636
114804
114973
115141
115305
115477
115644
115769
115982
116152
116317
116487
116658
116763
116992
117162
117329
117499
117663
117831
117996
118158
118324
118486
118646
118808
118970
119132
119290
119458
119621
119784
119952
120117
120282
120447
120613
120778
120938
121096
121259
121421
121582
121742
121903
122062
122220
122381
122545
122701
122860
123021
123179
123333
123494
123657
123817
123975
124138
124298
124456
124621
124783
124940
125097
125260
125418
125578
125741
125900
126058
126216
126380
126540
126697
126859
127025
127185
127346
127509
127671
127836
128000
128165
128330
128497
128665
128835
128998
129164
129332
129454
129656
129820
129980
130138
130301
130462
130621
130780
130938
131102
131255
131411
131572
131729
131886
132040
132198
132353
132509
132670
132826
132983
133138
133295
133454
133614
133769
133932
134096
134260
134423
134587
134754
134919
135088
135250
135411
135576
135741
135903
136061
136222
136383
136542
136703
136865
137022
137178
137339
137500
137657
137813
137977
138141
138306
138471
138636
138802
138968
139136
139300
139464
139631
139797
139963
140128
140298
140465
140632
140801
140973
141138
141306
141480
141650
141817
141986
142151
142321
142483
142652
142766
142981
143151
143313
143475
143640
143806
143973
144140
144309
144476
144643
144814
144982
145146
145242
145481
145652
145814
145982
146146
146311
146476
146646
146812
146981
147149
147317
147479
147645
147810
147974
148136
148299
148464
148629
148793
148955
149124
149289
149456
149628
149793
149958
150126
150290
150457
150621
150784
150947
151108
151276
151438
151599
151761
151928
152094
152246
152421
152584
152747
152911
153074
153236
153397
153564
153728
153889
154050
154218
154377
154541
154700
154862
155025
155188
155348
155509
155668
155830
155992
156148
156307
156471
156632
156794
156952
157116
157274
157434
157600
157760
157918
158079
158241
158406
158564
158729
158890
159053
159217
159329
159542
159702
159863
160026
160185
160344
160510
160670
160830
160993
161153
161311
161475
161639
161803
161968
162136
162305
162471
162638
162805
162970
163135
163296
163463
163627
163792
163957
164117
164281
164443
164608
164772
164932
165096
165257
165418
165582
165747
165909
166068
166229
166396
166556
166717
166878
167039
167198
167359
167522
167681
167841
168002
168162
168319
168480
168639
168802
168958
169118
169278
169435
169594
169754
169912
170070
170231
170393
170549
170707
170866
171025
171181
171341
171502
171658
171814
171978
172135
172291
172447
172608
172769
172927
173086
173247
173404
173565
173728
173888
174047
174208
174372
174532
174690
174856
175017
175180
175340
175502
175662
175822
175983
176144
176302
176401
176619
176782
176940
177095
177253
177413
177572
177730
177887
178046
178205
178367
178527
178683
178837
178995
179153
179309
179466
179620
179772
179929
180085
180238
180392
180546
180702
180852
181004
181157
181308
181462
181619
181772
181929
182084
182242
182405
182564
182721
182878
183037
183193
183350
183505
183663
183779
183973
184128
184281
184433
184588
184747
184902
185054
185209
185364
185519
185674
185828
185981
186121
186287
186444
186596
186746
186900
187054
187208
187357
187514
187671
187826
187981
188139
188293
188448
188603
188711
188912
189068
189223
189377
189534
189687
189845
190002
190155
190311
190468
190625
190780
190932
191091
191245
191397
191551
191704
191860
192017
192175
192331
192489
192643
192805
192961
193121
193277
193436
193594
193750
193908
194063
194219
194377
194537
194693
194852
195010
195171
195330
195489
195655
195817
195980
196141
196299
196459
196617
196778
196940
197095
197254
197414
197577
197732
197892
198054
198212
198376
198535
198698
198853
199014
199175
199333
199486
199647
199807
199964
200118
200279
200436
200592
200749
200910
201068
201222
201381
201542
201701
201855
202015
202173
202331
202490
202650
202806
202961
203117
203277
203432
203585
203744
203899
204053
204208
204362
204518
204672
204829
204982
205091
205288
205446
205599
205752
205902
206055
206208
206363
206516
206671
206824
206974
207134
207285
207437
207593
207747
207905
208057
208208
208363
208517
208670
208827
208983
209138
209292
209447
209608
209764
209917
210075
210229
210385
210542
210701
210854
211008
211171
211331
211490
211648
211812
211971
212132
212288
212447
212609
212766
212924
213081
213238
213390
213552
213711
213866
214023
214180
214336
214494
214653
214810
214963
215118
215280
215432
215587
215741
215901
216061
216219
216377
216536
216692
216847
217010
217166
217320
217477
217637
217795
217949
218103
218261
218416
218573
218728
218885
219039
219194
219355
219508
219661
219816
219972
220127
220283
220439
220597
220752
220908
221068
221218
221369
221527
221636
221836
221991
222147
222302
222458
222615
222773
222928
223054
223229
223391
223545
223697
223854
224015
224172
224326
224483
224644
224800
224964
225127
225286
225446
225609
225770
225929
226088
226247
226406
226564
226720
226838
227034
227191
227351
227510
227663
227819
227977
228133
228287
228445
228605
228764
228920
229083
229243
229405
229567
229732
229896
230056
230220
230385
230549
230710
230876
231036
231198
231362
231525
231688
231851
232016
232132
232340
232504
232664
232825
232985
233144
233304
233458
233619
233782
233938
234093
234253
234413
234572
234731
234892
235052
235210
235329
235536
235695
235855
236016
236178
236335
236494
236655
236819
236925
237140
237301
237461
237620
237784
237946
238105
238264
238425
238586
238745
238903
239062
239218
239378
239540
239697
239855
240011
240174
240339
240500
240662
240821
240980
241139
241302
241459
241618
241776
241936
242091
242248
242408
242568
242727
242887
243049
243207
243368
243528
243687
243841
244001
244162
244318
244473
244633
244791
244946
245099
245255
245412
245566
245724
245877
246032
246187
246342
246500
246653
246807
246961
247118
247270
247425
247582
247737
247893
248051
248213
248371
248527
248688
248849
249006
249160
249320
249478
249633
249790
249947
250103
250254
250413
250526
250725
250881
251036
251192
251349
251500
251658
251814
251970
252125
252281
252436
252588
252743
252901
253053
253207
253360
253515
253673
253830
253985
254143
254301
254462
254621
254778
254933
255096
255252
255411
255511
255728
255885
256041
256199
256295
256510
256664
256816
256976
257128
257286
257387
257598
257753
257909
258065
258218
258379
258497
258697
258854
259012
259173
259329
259486
259645
259804
259959
260118
260275
260429
260586
260744
260906
261060
261215
261372
261529
261687
261844
262001
262156
262312
262468
262630
262786
262946
263103
263263
263423
263580
263740
263897
264053
264216
264375
264532
264692
264849
265014
265171
265328
265490
265651
265811
265963
266121
266278
266434
266593
266749
266904
267060
267218
267378
267535
267691
267846
268004
268162
268318
268475
268627
268784
268937
269098
269250
269407
269566
269720
269878
270035
270189
270342
270502
270662
270819
270973
271128
271286
271447
271604
271761
271919
272076
272232
272334
272544
272700
272856
273015
273171
273327
273421
273636
273790
273946
274101
274254
274403
274557
274716
274869
275019
275170
275325
275478
275632
275783
275936
276088
276239
276392
276549
276700
276850
277005
277163
277316
277470
277627
277780
277938
278090
278245
278399
278555
278712
278873
279029
279184
279347
279506
279667
279826
279989
280148
280308
280466
280623
280782
280937
281096
281252
281408
281563
281721
281879
282038
282198
282356
282512
282673
282836
282930
283148
283308
283467
283621
283777
283936
284090
284246
284406
284562
284717
284878
285032
285180
285349
285505
285652
285820
285977
286132
286289
286444
286604
286760
286920
287074
287229
287325
287540
287693
287847
288001
288155
288308
288467
288621
288772
288929
289085
289207
289400
289556
289713
289868
290024
290178
290336
290492
290646
290804
290956
291109
291260
291416
291572
291722
291875
292033
292189
292343
292502
292657
292809
292965
293120
293275
293429
293585
293741
293894
294053
294205
294361
294516
294670
294828
294984
295141
295295
295390
295612
295767
295921
296074
296226
296382
296534
296690
296840
296990
297145
297300
297453
297603
297754
297907
298058
298208
298356
298505
298655
298806
298959
299107
299257
299408
299561
299708
299862
300011
300164
300313
300464
300617
300768
300917
301067
301218
301369
301517
301672
301825
301975
302128
302277
302431
302578
302728
302881
303029
303180
303327
303479
303634
303785
303935
304088
304239
304390
304543
304694
304845
304992
305142
305297
305447
305596
305746
305899
306051
306203
306353
306504
306653
306809
306961
307112
307260
307410
307564
307719
307867
308014
308166
308316
308465
308616
308767
308918
309068
309221
309374
309524
309680
309834
309988
310145
310297
310451
310604
310754
310905
311060
311209
311358
311512
311665
311818
311965
312115
312267
312417
312568
312721
312818
313020
313172
313325
313474
313624
313774
313923
314071
314221
314370
314523
314674
314824
314977
315130
315279
315430
315581
315733
315885
316031
316180
316332
316482
316591
316783
316932
317084
317231
317385
317536
317685
317834
317985
318135
318286
318435
318586
318736
318884
319042
319193
319341
319490
319646
319800
319951
320100
320251
320402
320551
320703
320856
321006
321153
321301
321406
321603
321751
321901
322053
322209
322361
322512
322621
322814
322966
323118
323267
323414
323564
323715
323868
324015
324163
324314
324462
324612
324764
324917
325065
325217
325368
325522
325672
325823
325974
326128
326279
326428
326577
326731
326844
327029
327183
327332
327480
327631
327781
327935
328082
328233
328386
328536
328687
328836
328987
329138
329288
329441
329595
329748
329897
330051
330202
330357
330505
330658
330807
330957
331111
331264
331415
331566
331718
331871
332023
332169
332322
332474
332627
332777
332929
333081
333228
333379
333537
333692
333842
333993
334149
334305
334453
334607
334765
334919
335077
335233
335394
335551
335710
335876
336037
336194
336351
336513
336667
336824
336980
337135
337287
337437
337594
337745
337896
338046
338198
338351
338502
338650
338804
338956
339109
339260
339411
339565
339715
339868
340021
340168
340319
340471
340626
340779
340931
341084
341234
341380
341535
341636
341836
341983
342135
342288
342439
342584
342736
342887
343035
343188
343338
343490
343642
343795
343952
344060
344257
344415
344567
344721
344823
345023
345176
345324
345471
345626
345777
345923
346074
346227
346378
346488
346676
346829
346978
347124
347277
347426
347578
347727
347877
347989
348175
348324
348474
348624
348723
348924
349075
349225
349374
349499
349684
349840
349991
350145
350298
350417
350607
350759
350911
351062
351211
351364
351516
351665
351817
351969
352123
352272
352419
352573
352724
352877
353029
353185
353339
353493
353651
353810
353966
354123
354282
354443
354599
354756
354911
355063
355217
355371
355529
355681
355835
355990
356149
356305
356461
356618
356776
356934
357095
357257
357413
357572
357734
357889
358044
358199
358353
358514
358670
358826
358984
359140
359294
359450
359607
359762
359917
360076
360234
360387
360543
360699
360852
361005
361160
361312
361467
361624
361751
361937
362094
362248
362404
362562
362715
362869
363022
363173
363324
363482
363639
363794
363945
364103
364260
364410
364566
364721
364874
365024
365176
365334
365488
365642
365798
365952
366102
366253
366410
366561
366713
366863
367016
367171
367326
367426
367628
367783
367935
368090
368204
368390
368541
368694
368849
369000
369151
369306
369456
369572
369763
369916
370066
370215
370367
370520
370670
370821
370972
371125
371277
371431
371586
371738
371890
372040
372198
372352
372504
372661
372815
372971
373122
373274
373430
373584
373739
373895
374051
374207
374359
374519
374674
374826
374978
375132
375283
375436
375591
375744
375900
376052
376209
376361
376512
376665
376821
376980
377132
377284
377441
377594
377749
377906
378061
378211
378363
378520
378678
378829
378982
379141
379300
379451
379606
379765
379918
380073
380229
380381
380513
380685
380845
380999
381151
381302
381456
381610
381766
381915
382067
382215
382366
382520
382674
382823
382973
383128
383282
383434
383587
383746
383903
384061
384222
384381
384539
384699
384860
385021
385179
385338
385500
385661
385820
385979
386137
386295
386452
386614
386766
386925
387079
387236
387393
387546
387702
387858
388014
388175
388332
388488
388641
388798
388958
389060
389271
389431
389588
389746
389903
390058
390212
390366
390525
390684
390838
390993
391150
391307
391467
391621
391780
391935
392096
392256
392418
392575
392731
392891
392984
393206
393363
393521
393680
393838
393990
394151
394303
394462
394618
394775
394930
395085
395247
395407
395563
395718
395879
396034
396125
396350
396508
396662
396820
396978
397138
397295
397455
397618
397716
397934
398095
398252
398409
398569
398732
398829
399046
399211
399372
399530
399686
399846
400006
400165
400322
400480
400635
400797
400955
401115
401270
401426
401587
401748
401910
402058
402155
402344
402453
402644
402808
402965
403127
403287
403449
403605
403762
403923
404081
404238
404395
404553
404710
404866
405024
405182
405339
405496
405659
405818
405979
406138
406298
406458
406616
406779
406937
407094
407249
407410
407569
407720
407882
408041
408155
408356
408518
408675
408832
408926
409148
409307
409461
409617
409737
409934
410087
410241
410395
410511
410710
410866
411017
411172
411328
411485
411642
411794
411949
412105
412261
412365
412571
412726
412881
413036
413191
413343
413495
413652
413807
413962
414113
414269
414422
414576
414732
414889
415040
415192
415351
415513
415667
415821
415977
416134
416287
416444
416604
416759
416918
417076
417238
417395
417552
417709
417865
418026
418178
418339
418491
418649
418806
418963
419118
419269
419424
419580
419734
419886
420041
420195
420348
420501
420659
420811
420963
421112
421269
421421
421574
421728
421880
422036
422187
422344
422500
422657
422813
422972
423128
423286
423441
423604
423764
423921
424082
424240
424400
424560
424723
424883
425041
425203
425366
425523
425684
425846
426008
426168
426328
426489
426650
426809
426973
427082
427289
427449
427609
427765
427921
428050
428226
428383
428539
428695
428850
429001
429152
429310
429460
429612
429763
429916
430069
430220
430371
430522
430671
430821
430973
431119
431270
431415
431573
431728
431876
432030
432185
432339
432491
432644
432799
432951
433100
433252
433408
433559
433711
433863
434014
434169
434317
434470
434620
434772
434924
435076
435225
435376
435527
435682
435779
435985
436138
436290
436441
436597
436746
436899
437046
437196
437351
437502
437648
437799
437950
438103
438252
438403
438554
438706
438858
439013
439165
439318
439469
439622
439778
439929
440078
440231
440385
440536
440640
440845
441002
441151
441308
441465
441619
441772
441930
442085
442245
442398
442557
442711
442867
443023
443182
443334
443484
443643
443800
443951
444103
444255
444411
444564
444663
444870
445026
445177
445331
445488
445644
445796
445947
446103
446259
446411
446564
446718
446872
447026
447181
447334
447484
447637
447797
447947
448103
448257
448411
448566
448719
448875
449033
449184
449335
449496
449649
449803
449958
450111
450266
450416
450570
450725
450877
451030
451180
451334
451487
451639
451796
451948
452102
452253
452410
452566
452724
452876
453030
453185
453339
453497
453650
453801
453957
454112
454265
454416
454569
454722
454874
455024
455171
455324
455476
455629
455782
455943
456092
456244
456399
456557
456714
456869
457025
457179
457327
457485
457641
457792
457943
458097
458253
458406
458504
458710
458863
459015
459168
459321
459475
459623
459780
459938
460092
460244
460401
460557
460675
460864
461019
461172
461321
461481
461603
461790
461946
462103
462263
462420
462574
462732
462888
463040
463199
463354
463506
463656
463809
463921
464116
464268
464420
464577
464732
464883
465034
465186
465338
465488
465647
465799
465950
466097
466251
466358
466559
466711
466864
467011
467164
467316
467467
467616
467766
467923
468071
468222
468373
468528
468684
468833
468985
469140
469291
469443
469596
469747
469901
470049
470204
470353
470503
470651
470804
470955
471110
471260
471412
471566
471717
471878
472035
472184
472338
472493
472652
472805
472959
473112
473267
473422
473577
473733
473886
474037
474191
474347
474501
474653
474808
474960
475114
475265
475418
475570
475722
475876
476026
476175
476325
476476
476632
476784
476934
477084
477237
477389
477540
477699
477852
478003
478159
478315
478467
478617
478770
478925
479081
479234
479387
479545
479700
479857
480013
480167
480321
480471
480628
480786
480942
481094
481249
481404
481557
481707
481863
482015
482167
482322
482423
482627
482781
482931
483086
483236
483388
483538
483692
483847
483995
484114
484293
484444
484592
484745
484897
485046
485196
485347
485499
485649
485800
485951
486100
486249
486402
486553
486702
486854
487004
487156
487301
487450
487606
487754
487910
488060
488211
488363
488512
488666
488821
488968
489119
489270
489423
489573
489722
489871
490023
490173
490325
490474
490623
490772
490922
491077
491225
491369
491522
491674
491825
491975
492125
492279
492430
492581
492739
492890
493042
493194
493348
493504
493656
493806
493956
494107
494258
494410
494561
494714
494860
495013
495168
495318
495470
495621
495776
495926
496078
496230
496383
496534
496687
496842
496992
497144
497293
497451
497604
497753
497906
498062
498210
498364
498516
498668
498821
498970
499123
499273
499422
499571
499726
499878
500027
500177
500329
500480
500632
500782
500935
501085
501233
501387
501543
501693
501843
501992
502144
502295
502450
502603
502755
502906
503061
503215
503367
503518
503669
503823
503978
504128
504280
504432
504581
504733
504887
505037
505186
505339
505493
505647
505800
505955
506113
506265
506419
506577
506732
506887
507038
507195
507349
507499
507652
507807
507958
508110
508262
508414
508565
508715
508870
509021
509171
509320
509473
509628
509778
509930
510084
510233
510382
510538
510689
510840
510984
511136
511289
511438
511584
511735
511883
512033
512183
512335
512483
512634
512781
512938
513091
513242
513394
513548
513706
513857
513950
514165
514319
514471
514623
514775
514929
515083
515243
515401
515555
515708
515865
516018
516176
516327
516485
516595
516791
516951
517104
517258
517404
517563
517718
517827
518018
518175
518324
518477
518630
518785
518938
519085
519230
519350
519538
519690
519838
519995
520148
520298
520450
520601
520752
520904
521065
521220
521375
521528
521685
521844
521997
522153
522308
522465
522622
522779
522932
523087
523244
523404
523557
523707
523867
524023
524176
524332
524485
524638
524789
524942
