peaks
75004
75270
75540
75807
76080
76356
76631
76902
77174
77452
77727
78000
78273
78547
78825
79105
79384
79661
79938
80217
80496
80777
81053
81334
81617
81896
82180
82471
82748
83027
83310
83599
83882
84167
84451
84735
85014
85296
85578
85859
86132
86404
86531
86919
87201
87486
87770
88058
88349
88641
88767
88905
89211
89510
89804
90091
90385
90680
90965
91091
91494
91778
92056
92219
92594
92870
93034
93400
93668
93935
94198
94468
94740
95016
95300
95432
95828
96122
96253
96650
96941
97232
97409
97795
98084
98375
98667
98957
99238
99521
99811
99935
100341
100633
100922
101208
101497
101784
101927
102324
102606
102774
103151
103425
103704
103985
104271
104558
104855
105156
105457
105762
106068
106373
106521
106933
107239
107406
107806
108097
108384
108663
108945
109223
109503
109779
110057
110333
110609
110887
111014
111404
111677
111948
112110
112473
112740
113004
113256
113534
113797
114067
114344
114619
114746
115135
115418
115694
115849
116227
116499
116772
117047
117319
117596
117874
118156
118312
118698
118980
119261
119536
119705
120078
120355
120623
120896
121170
121449
121732
122022
122316
122607
122733
123139
123432
123720
123870
124261
124543
124824
125100
125378
125653
125934
126218
126345
126747
127036
127325
127484
127875
128159
128446
128729
128878
129268
129546
129822
130099
130372
130652
130932
131215
131343
131743
132031
132317
132474
132860
133143
133423
133706
133987
134274
134412
134811
135100
135387
135675
135959
136243
136526
136810
136953
137342
137625
137905
138189
138474
138761
139044
139216
139613
139909
140205
140502
140799
140969
141373
141670
141964
142257
142550
142837
143129
143423
143563
143968
144265
144561
144856
145149
145449
145576
146016
146305
146597
146884
147169
147310
147705
147986
148269
148549
148823
149096
149376
149662
149952
150242
150533
150827
151122
151423
151725
152030
152337
152644
152950
153257
153565
153868
154023
154437
154737
155033
155327
155477
155878
156164
156441
156714
156990
157260
157534
157806
157949
158333
158607
158880
159155
159427
159558
159944
160229
160509
160788
161063
161328
161611
161893
162031
162431
162729
163025
163317
163621
163921
164225
164366
164784
165089
165391
165549
165953
166252
166545
166838
166992
167396
167691
167985
168276
168569
168865
169159
169458
169598
170006
170297
170584
170871
171159
171450
171741
172032
172330
172456
172889
173180
173465
173748
174038
174179
174576
174866
175151
175440
175728
176018
176307
176599
176886
177014
177423
177701
177977
178253
178522
178795
179065
179339
179615
179743
180134
180419
180698
180854
181237
181514
181791
182065
182218
182599
182877
183157
183438
183725
184013
184306
184491
184882
185178
185472
185765
186056
186348
186640
186932
187074
187477
187772
188062
188349
188639
188771
189174
189463
189751
190035
190316
190601
190887
191176
191319
191724
192020
192313
192604
192892
193039
193436
193724
194005
194285
194565
194850
195138
195433
195559
195995
196293
196590
196741
197146
197445
197603
198005
198303
198599
198893
199186
199482
199778
200075
200215
200626
200931
201228
201519
201816
202107
202396
202540
202946
203244
203538
203692
204093
204396
204697
204999
205306
205615
205924
206240
206557
206876
207196
207512
207830
208138
208277
208727
209037
209339
209496
209902
210197
210492
210779
211071
211358
211649
211943
212240
212536
212832
213119
213246
213677
213969
214267
214422
214828
215126
215429
215585
215994
216298
216606
216912
217222
217532
217843
218159
218311
218739
219059
219378
219693
219843
220268
220579
220881
221178
221346
221750
222046
222218
222617
222903
223192
223484
223773
224064
224356
224652
224949
225242
225538
225834
225962
226394
226681
226964
227127
227508
227790
228071
228349
228503
228887
229166
229442
229715
229993
230275
230560
230740
231125
231420
231718
232014
232314
232465
232876
233183
233489
233795
234102
234410
234718
235027
235338
235645
235811
236229
236544
236851
237152
237444
237746
238041
238190
238593
238888
239193
239370
239770
240072
240377
240681
240987
241302
241618
241936
242259
242579
242898
243214
243526
243839
244149
244461
244773
245079
245253
245668
245977
246283
246440
246849
247148
247443
247736
248026
248316
248609
248900
249194
249492
249791
250090
250275
250675
250977
251274
251572
251723
252121
252416
252707
252991
253152
253544
253826
254111
254390
254670
254948
255118
255499
255781
256065
256350
256640
256933
257229
257526
257831
257959
258409
258712
259007
259311
259614
259923
260234
260379
260804
261114
261420
261573
261983
262288
262590
262890
263040
263454
263761
264063
264366
264667
264964
265130
265536
265838
266129
266423
266720
266892
267288
267588
267884
268177
268466
268770
269072
269377
269682
269993
270306
270622
270942
271093
271520
271837
271993
272413
272723
273030
273336
273488
273899
274192
274480
274765
275044
275322
275606
275776
276153
276439
276714
276996
277277
277561
277728
278117
278407
278700
278870
279265
279559
279847
280139
280435
280729
281023
281321
281614
281742
282180
282477
282778
283076
283383
283552
283972
284284
284593
284902
285055
285475
285784
286087
286387
286542
286958
287260
287558
287857
288155
288454
288754
289059
289231
289641
289949
290257
290414
290831
291137
291436
291734
292027
292326
292626
292920
293065
293477
293779
294079
294375
294677
294847
295256
295558
295859
296013
296418
296713
297004
297165
297566
297855
298141
298426
298709
298997
299288
299458
299857
300155
300448
300748
301043
301341
301640
301936
302234
302417
302815
303115
303421
303724
304028
304333
304645
304955
305266
305392
305834
306133
306425
306585
306978
307265
307546
307827
308106
308382
308666
308948
309235
309375
309778
310078
310376
310672
310973
311140
311539
311841
312146
312306
312711
313009
313307
313466
313864
314151
314441
314604
314991
315274
315557
315836
316116
316392
316674
316844
317225
317512
317789
317969
318348
318633
318910
319207
319495
319782
319955
320353
320649
320943
321231
321392
321790
322088
322383
322675
322969
323269
323571
323739
324148
324450
324758
325061
325366
325672
325980
326112
326567
326877
327189
327495
327795
328095
328404
328544
328961
329269
329574
329877
330182
330323
330741
331049
331352
331649
331953
332120
332529
332833
333130
333432
333735
334038
334211
334627
334934
335243
335410
335815
336121
336415
336699
336987
337276
337559
337842
338131
338418
338713
339008
339305
339601
339895
340192
340492
340790
340960
341364
341668
341968
342124
342532
342831
343131
343287
343690
343988
344284
344441
344831
345118
345404
345543
345934
346222
346507
346790
347070
347208
347603
347892
348175
348464
348752
349045
349341
349642
349949
350255
350398
350820
351128
351443
351596
352015
352324
352483
352902
353208
353506
353798
353959
354363
354655
354949
355115
355512
355797
356083
356239
356631
356913
357193
357475
357755
358046
358340
358637
358941
359112
359524
359839
360153
360469
360618
361046
361358
361514
361857
362161
362463
362623
363031
363331
363630
363790
364195
364495
364793
364958
365358
365652
365944
366233
366525
366813
367107
367403
367536
367949
368248
368554
368851
369157
369324
369734
370043
370349
370507
370918
371222
371520
371687
372088
372386
372677
372964
373260
373562
373861
374163
374478
374615
375072
375386
375699
375851
376264
376573
376733
377138
377442
377741
378038
378192
378599
378896
379192
379487
379645
380048
380345
380645
380940
381239
381545
381707
382123
382432
382743
382904
383323
383637
383947
384252
384400
384823
385134
385442
385744
386040
386331
386638
386945
387079
387503
387816
388125
388429
388740
388871
389320
389629
389934
390087
390504
390815
391123
391431
391599
392013
392325
392633
392934
393242
393556
393867
394177
394312
394766
395073
395380
395676
395973
396278
396575
396706
397144
397449
397748
398047
398339
398634
398932
399096
399505
399804
400103
400260
400665
400968
401130
401534
401833
402133
402430
402581
402989
403290
403590
403888
404178
404473
404636
405043
405345
405649
405805
406213
406515
406810
407109
407406
407699
407981
408282
408423
408834
409143
409451
409601
410019
410332
410487
410904
411209
411364
411772
412069
412226
412622
412914
413204
413498
413657
414060
414367
414673
414831
415243
415546
415848
416150
416307
416716
417018
417307
417473
417866
418148
418428
418710
418999
419287
419587
419885
420186
420330
420746
421046
421352
421503
421914
422219
422377
422786
423085
423383
423681
423976
424270
424436
424839
425135
425428
425595
425987
426275
426561
426727
427115
427393
427680
427866
428237
428531
428815
429089
429373
429661
429949
430242
430530
430666
431071
431364
431645
431938
432226
432359
432764
433062
433356
433655
433951
434086
434523
434822
435117
435271
435672
435963
436121
436524
436811
437100
437393
437545
437948
438243
438542
438837
439129
439427
439557
439998
440304
440608
440761
441175
441482
441640
442048
442345
442633
442921
443216
443511
443816
444113
444432
444755
444887
445032
445363
445688
446008
446328
446649
446780
446925
447260
447580
447894
448046
448469
448778
449083
449384
449536
449945
450245
450531
450824
451122
451415
451708
451999
452297
452603
452735
453181
453485
453793
454100
454410
454541
455001
455319
455634
455786
456210
456528
456686
457103
457413
457714
458014
458176
458575
458871
459160
459442
459733
460023
460314
460603
460891
461032
461431
461720
462016
462305
462595
462729
463134
463432
463723
463878
464272
464562
464848
465132
465303
465692
465982
466272
466432
466825
467118
467287
467677
467965
468254
468543
468712
469106
469396
469684
469972
470264
470560
470860
471155
471452
471759
472073
472206
472666
472983
473286
473442
473857
474161
474317
474719
475012
475297
475582
475872
476030
476424
476712
476992
477274
477548
477792
478045
478308
478440
478806
479062
479309
479450
479769
479999
480227
480453
480674
480804
481104
481349
481571
481717
482013
482233
482452
482604
482893
483116
483339
483482
483784
483997
484220
484366
484666
484888
485106
485324
485459
485754
485975
486111
486401
486636
486852
486995
487287
487507
487641
487929
488159
488373
488548
488806
489017
489233
489361
489668
489883
490101
490316
490537
490754
490972
491195
491421
491646
491873
492100
492328
492554
492698
493011
493234
493366
493679
493902
494120
494264
494565
494780
494997
495122
495421
495637
495769
496062
496274
496487
496650
496916
497129
497262
497560
497774
497988
498199
498414
498530
498845
499061
499196
499506
499725
499859
500168
500387
500523
500828
501044
501182
501481
501696
501912
502037
502343
502559
502773
502900
503205
503420
503633
503759
504058
504268
504402
504689
504893
505028
505313
505516
505651
505936
506142
506279
506572
506781
506916
507219
507432
507567
507863
508074
508208
508503
508710
508921
509132
509344
509560
509773
509909
510215
510434
510566
510879
511094
511227
511529
511743
511875
512174
512389
512526
512814
513026
513166
513452
513661
513803
514089
514301
514443
514731
514940
515080
515366
515570
515707
515997
516202
516341
516624
516832
516968
517252
517461
517597
517883
518092
518232
518517
518723
518860
519152
519361
519576
519704
520009
520224
520360
520656
520867
521001
521297
521507
521643
521930
522138
522274
522561
522769
522904
523188
523395
523533
523817
524023
524159
524449
524658
524871
