peaks
75129
75282
75437
75591
75749
75902
76056
76212
76367
76523
76680
76814
76992
77147
77303
77457
77612
77764
77897
78075
78231
78384
78537
78693
78844
78999
79155
79311
79468
79628
79785
79944
80104
80265
80425
80586
80744
80907
81067
81226
81389
81552
81710
81873
82034
82199
82362
82525
82688
82851
83010
83168
83336
83475
83655
83815
83974
84110
84293
84450
84607
84766
84924
85079
85237
85396
85552
85707
85863
86019
86174
86330
86485
86638
86791
86942
87094
87248
87401
87552
87704
87856
88007
88158
88311
88462
88613
88763
88918
89055
89220
89373
89506
89677
89827
89964
90132
90282
90434
90586
90740
90895
91048
91205
91362
91517
91675
91833
91988
92147
92305
92462
92594
92776
92932
93090
93223
93404
93562
93718
93875
94032
94190
94345
94503
94661
94817
94975
95131
95291
95448
95604
95761
95918
96074
96231
96389
96546
96704
96862
97022
97182
97340
97498
97657
97813
97947
98128
98283
98440
98596
98750
98905
99057
99213
99370
99526
99682
99842
100000
100160
100319
100478
100637
100794
100952
101110
101268
101426
101585
101742
101897
102055
102213
102371
102528
102685
102844
103001
103157
103317
103473
103629
103787
103944
104100
104255
104411
104545
104719
104874
105028
105181
105331
105484
105638
105790
105942
106094
106251
106408
106563
106719
106879
107037
107196
107359
107520
107654
107844
108009
108171
108333
108495
108656
108817
108979
109142
109304
109464
109624
109782
109943
110103
110267
110428
110588
110751
110915
111079
111211
111408
111572
111731
111894
112057
112217
112378
112538
112674
112854
113013
113171
113328
113486
113644
113800
113959
114115
114272
114429
114583
114741
114898
115042
115211
115371
115529
115689
115821
116008
116165
116325
116485
116644
116801
116960
117113
117257
117436
117591
117727
117903
118058
118189
118372
118527
118656
118847
119007
119134
119331
119497
119662
119828
119997
120168
120337
120505
120676
120844
121011
121181
121348
121515
121681
121849
122015
122180
122347
122514
122648
122848
123014
123180
123346
123511
123675
123839
124004
124168
124332
124494
124659
124821
124982
125143
125275
125467
125629
125790
125953
126116
126278
126444
126607
126772
126939
127103
127270
127434
127600
127766
127899
128098
128265
128427
128591
128754
128918
129079
129245
129407
129568
129731
129870
130059
130224
130389
130554
130717
130881
131046
131211
131373
131537
131699
131861
132022
132184
132320
132507
132667
132826
132986
133143
133304
133464
133623
133782
133945
134105
134267
134429
134591
134753
134914
135058
135237
135398
135533
135723
135884
136017
136213
136378
136509
136719
136890
137065
137240
137420
137598
137775
137954
138131
138306
138479
138653
138826
138997
139168
139338
139507
139678
139848
140016
140185
140354
140521
140688
140817
141022
141187
141326
141519
141680
141813
142009
142173
142300
142503
142665
142793
142991
143154
143284
143473
143630
143790
143948
144108
144268
144431
144593
144754
144921
145086
145248
145376
145579
145742
145871
146074
146237
146399
146560
146722
146880
147042
147202
147361
147524
147684
147846
147975
148171
148336
148464
148663
148828
148957
149156
149323
149484
149649
149812
149976
150142
150306
150472
150636
150801
150966
151094
151297
151463
151627
151791
151952
152113
152275
152408
152598
152759
152924
153089
153251
153417
153584
153722
153913
154078
154244
154406
154568
154732
154894
155057
155222
155387
155551
155715
155880
156044
156210
156376
156542
156705
156869
157037
157202
157369
157535
157703
157869
158033
158199
158363
158527
158692
158825
159021
159183
159347
159510
159672
159834
159996
160157
160318
160451
160640
160798
160958
161118
161262
161436
161595
161753
161912
162072
162233
162392
162554
162717
162848
163048
163219
163392
163564
163742
163921
164103
164288
164467
164650
164828
165006
165185
165360
165532
165708
165880
166054
166227
166400
166571
166744
166915
167085
167258
167432
167604
167779
167954
168129
168302
168479
168654
168827
169005
169178
169351
169478
169698
169870
170041
170217
170391
170568
170751
170932
171113
171293
171474
171654
171833
172017
172146
172389
172575
172762
172944
173128
173312
173499
173683
173870
174050
174236
174420
174597
174778
174956
175131
175310
175489
175665
175841
176018
176198
176377
176556
176735
176913
177093
177276
177458
177637
177819
178000
178179
178356
178533
178708
178887
179064
179244
179372
179613
179796
179980
180163
180344
180529
180712
180899
181086
181274
181459
181643
181826
182010
182194
182335
182561
182743
182930
183078
183301
183490
183678
183869
184062
184254
184446
184639
184831
185024
185216
185409
185601
185794
185985
186177
186372
186562
186753
186946
187138
187329
187522
187712
187905
188097
188290
188483
188678
188870
189061
189255
189444
189633
189825
190017
190209
190407
190598
190792
190993
191189
191383
191577
191769
191959
192151
192341
192531
192724
192913
193105
193297
193487
193677
193868
194060
194250
194442
194631
194823
195016
195206
195398
195589
195781
195971
196102
196353
196541
196663
196908
197093
197220
197455
197639
197775
198002
198186
198321
198548
198731
198911
199092
199271
199451
199629
199805
199981
200158
200335
200511
200687
200865
201041
201219
201397
201574
201748
201925
202100
202274
202448
202623
202796
202968
203141
203313
203483
203655
203826
203995
204165
204336
204502
204670
204839
205006
205173
205341
205509
205676
205843
206012
206181
206351
206520
206691
206860
207031
207201
207372
207542
207712
207882
208052
208225
208396
208567
208737
208907
209078
209250
209424
209598
209771
209949
210128
210304
210482
210659
210836
211014
211191
211367
211543
211717
211892
212065
212239
212411
212581
212752
212922
213091
213260
213431
213600
213767
213938
214109
214278
214448
214618
214789
214960
215130
215303
215472
215642
215813
215985
216157
216330
216504
216677
216850
217023
217196
217369
217542
217714
217887
218059
218232
218402
218573
218744
218915
219084
219259
219430
219603
219779
219954
220132
220312
220491
220673
220854
221039
221223
221405
221595
221778
221961
222148
222332
222512
222696
222879
223058
223243
223427
223608
223794
223982
224165
224353
224542
224729
224920
225111
225299
225488
225679
225808
226056
226249
226437
226626
226816
227005
227196
227387
227576
227765
227953
228143
228333
228521
228709
228895
229082
229267
229454
229639
229823
230009
230195
230378
230564
230748
230935
231121
231311
231497
231678
231863
232047
232231
232419
232608
232794
232982
233170
233306
233541
233728
233914
234097
234282
234467
234650
234835
235020
235204
235389
235574
235756
235940
236124
236307
236489
236672
236854
237037
237223
237407
237593
237724
237965
238155
238289
238528
238715
238903
239087
239272
239457
239640
239820
240003
240184
240367
240550
240735
240920
241048
241298
241489
241620
241866
242054
242186
242429
242617
242803
242987
243174
243365
243552
243743
243934
244128
244319
244510
244702
244894
245084
245278
245471
245665
245857
246046
246236
246427
246614
246802
246991
247180
247367
247554
247740
247925
248113
248302
248486
248680
248870
249058
249251
249440
249628
249818
250007
250196
250387
250577
250766
250956
251149
251337
251530
251723
251913
252111
252305
252495
252701
252895
253091
253287
253483
253677
253869
254058
254244
254436
254625
254810
255007
255202
255393
255587
255775
255965
256150
256338
256527
256714
256903
257092
257282
257473
257601
257856
258048
258238
258429
258616
258806
258996
259189
259381
259572
259763
259953
260141
260330
260517
260703
260891
261078
261267
261455
261640
261824
262009
262196
262386
262573
262761
262953
263141
263333
263523
263712
263903
264094
264284
264474
264663
264851
265039
265227
265417
265604
265790
265978
266165
266351
266539
266728
266860
267102
267293
267427
267665
267853
268037
268224
268412
268600
268786
268891
269163
269352
269544
269734
269923
270115
270307
270497
270687
270872
271058
271251
271439
271629
271822
272012
272205
272396
272583
272770
272958
273145
273330
273518
273704
273890
274080
274267
274459
274649
274838
275029
275220
275337
275599
275789
275978
276163
276354
276546
276735
276927
277119
277311
277448
277693
277886
278078
278264
278455
278645
278835
279024
279214
279412
279542
279805
280002
280196
280393
280588
280781
280975
281167
281358
281545
281733
281916
282100
282282
282464
282646
282830
283014
283193
283377
283557
283744
283937
284127
284319
284514
284706
284905
285102
285298
285498
285700
285897
286097
286298
286496
286695
286893
287092
287288
287486
287616
287882
288083
288282
288480
288677
288873
289069
289265
289461
289657
289850
290046
290242
290437
290632
290828
291026
291223
291419
291614
291812
292011
292207
292408
292604
292801
293001
293199
293399
293598
293796
293996
294197
294396
294595
294795
294991
295183
295379
295571
295759
295950
296141
296334
296528
296719
296912
297108
297303
297498
297687
297879
298074
298262
298455
298645
298833
299023
299211
299397
299588
299776
299963
300156
300350
300540
300737
300933
301132
301331
301530
301730
301930
302128
302332
302532
302738
302944
303146
303349
303548
303747
303946
304150
304347
304545
304745
304939
305135
305330
305522
305716
305910
306102
306296
306492
306685
306879
307074
307266
307460
307657
307850
308046
308243
308437
308632
308829
309022
309214
309411
309602
309796
309990
310180
310375
310570
310760
310954
311145
311338
311530
311720
311911
312103
312291
312480
312670
312857
313047
313236
313426
313614
313803
313991
314179
314367
314553
314740
314929
315117
315302
315489
315677
315862
316048
316238
316424
316612
316801
316990
317178
317368
317555
317743
317931
318122
318312
318499
318688
318876
319066
319252
319441
319633
319818
320007
320196
320385
320572
320758
320946
321134
321322
321510
321697
321884
322071
322260
322449
322634
322821
323011
323199
323388
323578
323767
323958
324149
324342
324533
324726
324917
325109
325301
325492
325686
325878
326069
326261
326454
326646
326837
327028
327224
327415
327606
327801
327991
328181
328369
328555
328740
328928
329110
329292
329473
329649
329830
330010
330190
330368
330548
330733
330914
331099
331286
331468
331655
331841
332028
332215
332404
332593
332781
332966
333155
333346
333537
333729
333920
334113
334302
334488
334679
334866
335057
335252
335441
335636
335830
336025
336221
336420
336609
336801
336993
337185
337376
337563
337752
337941
338127
338318
338507
338700
338891
339084
339282
339479
339673
339869
340057
340253
340448
340636
340829
341025
341218
341415
341610
341799
341990
342186
342382
342577
342771
342968
343161
343358
343548
343739
343930
344122
344311
344499
344689
344879
345066
345255
345442
345629
345810
345996
346182
346362
346545
346728
346907
347093
347278
347464
347652
347841
348031
348227
348421
348620
348817
349019
349221
349423
349628
349829
350032
350238
350439
350640
350843
351041
351242
351444
351643
351841
352042
352239
352440
352641
352772
353036
353237
353369
353627
353824
353962
354208
354402
354549
354784
354978
355169
355365
355561
355752
355951
356152
356349
356551
356751
356948
357146
357340
357531
357720
357913
358100
358308
358510
358713
358918
359121
359335
359542
359746
359953
360161
360364
360573
360778
360978
361180
361379
361578
361774
361966
362160
362355
362547
362739
362934
363124
363317
363508
363700
363890
364082
364272
364461
364653
364839
365027
365211
365395
365579
365764
365949
366129
366311
366495
366672
366850
367027
367203
367379
367552
367719
367890
368062
368230
368395
368566
368735
368900
369067
369231
369399
369565
369732
369900
370068
370235
370408
370579
370748
370926
371102
371280
371456
371636
371812
371990
372168
372344
372519
372694
372868
373040
373211
373385
373553
373719
373892
374057
374224
374390
374556
374719
374881
375040
375205
375366
375529
375693
375855
376015
376177
376341
376502
376665
376826
376990
377157
377323
377490
377657
377824
377993
378159
378328
378496
378663
378831
379000
379171
379337
379505
379670
379835
379999
380162
380331
380497
380663
380833
381003
381171
381342
381513
381681
381848
382019
382188
382356
382524
382692
382857
383025
383198
383364
383535
383705
383874
384044
384214
384383
384552
384722
384891
385063
385232
385407
385582
385755
385930
386106
386282
386455
386634
386810
386984
387164
387340
387516
387695
387878
388059
388235
388415
388597
388773
388951
389130
389308
389484
389662
389839
390018
390201
390380
390561
390739
390918
391097
391277
391453
391629
391804
391980
392153
392328
392503
392679
392854
393032
393213
393390
393568
393746
393922
394104
394280
394454
394633
394811
394987
395168
395348
395523
395703
395882
396061
396240
396419
396597
396774
396953
397133
397309
397491
397670
397850
398029
398209
398388
398572
398753
398933
399116
399300
399487
399672
399863
400049
400236
400423
400616
400806
400995
401184
401325
401563
401749
401931
402114
402296
402478
402656
402836
403018
403196
403376
403556
403735
403918
404098
404277
404460
404640
404818
404999
405182
405361
405544
405717
405898
406072
406244
406409
406584
406750
406918
407086
407251
407418
407585
407750
407917
408085
408253
408427
408598
408765
408933
409103
409272
409437
409605
409773
409941
410107
410278
410448
410615
410784
410952
411117
411282
411447
411612
411775
411941
412108
412273
412440
412606
412770
412934
413098
413264
413431
413596
413764
413932
414098
414266
414435
414601
414765
414934
415100
415266
415433
415598
415762
415927
416093
416259
416423
416592
416760
416926
417094
417262
417431
417599
417766
417935
418106
418275
418447
418617
418789
418965
419135
419308
419482
419655
419826
420000
420174
420349
420523
420693
420867
421042
421215
421384
421566
421748
421933
422114
422298
422481
422659
422839
423017
423195
423369
423545
423718
423892
424067
424241
424414
424588
424763
424938
425116
425295
425476
425652
425836
426018
426196
426378
426554
426730
426907
427083
427262
427440
427613
427789
427967
428147
428326
428503
428682
428863
429041
429220
429399
429579
429759
429939
430121
430304
430487
430664
430845
431025
431206
431386
431566
431747
431929
432113
432295
432477
432657
432834
433013
433193
433374
433552
433733
433912
434091
434265
434442
434613
434788
434958
435135
435314
435492
435672
435851
436029
436204
436378
436552
436727
436901
437073
437242
437413
437581
437745
437912
438076
438242
438408
438576
438743
438911
439079
439248
439411
439578
439744
439907
440071
440239
440406
440572
440740
440913
441087
441265
441440
441613
441790
441963
442142
442315
442492
442667
442841
443013
443187
443363
443537
443713
443891
444070
444253
444433
444615
444795
444974
445154
445334
445511
445688
445866
446043
446221
446393
446564
446735
446905
447077
447254
447430
447608
447783
447960
448136
448314
448489
448660
448837
449013
449187
449364
449541
449717
449892
450070
450247
450423
450600
450749
450946
451121
451297
451466
451636
451810
451985
452159
452331
452505
452678
452851
453022
453195
453367
453541
453711
453881
454049
454219
454397
454568
454741
454919
455093
455271
455446
455624
455801
455981
456160
456340
456521
456697
456873
457052
457231
457404
457584
457759
457936
458115
458297
458544
458741
458845
459138
459335
459521
459712
459898
460082
460266
460454
460644
460833
461024
461213
461396
461579
461763
461948
462136
462322
462505
462689
462873
463052
463230
463410
463586
463764
463940
464114
464287
464453
464621
464789
464958
465126
465294
465462
465631
465796
465962
466131
466299
466465
466633
466802
466971
467141
467306
467476
467641
467808
467976
468143
468317
468490
468667
468843
469019
469201
469378
469559
469742
469920
470099
470278
470452
470629
470806
470981
471157
471335
471514
471691
471870
472051
472227
472408
472587
472765
472945
473124
473302
473480
473660
473836
474011
474189
474368
474544
474721
474899
475081
475262
475445
475625
475801
475984
476164
476345
476528
476707
476886
477068
477251
477433
477620
477771
478003
478192
478373
478564
478750
478939
479121
479310
479493
479677
479859
480038
480213
480391
480570
480748
480925
481099
481275
481451
481627
481802
481978
482154
482331
482509
482688
482868
483044
483224
483406
483588
483774
483959
484145
484331
484516
484701
484884
485067
485251
485431
485609
485791
485970
486148
486330
486505
486681
486857
487035
487214
487391
487569
487745
487923
488103
488280
488456
488634
488812
488985
489160
489332
489506
489676
489851
490023
490194
490364
490533
490703
490870
491038
491204
491367
491536
491700
491863
492028
492196
492361
492527
492697
492870
493042
493216
493392
493566
493740
493920
494098
494280
494461
494641
494823
495004
495185
495365
495547
495730
495911
496094
496277
496457
496639
496820
497002
497181
497363
497538
497719
497896
498078
498256
498437
498614
498792
498970
499153
499331
499512
499693
499871
500053
500234
500412
500589
500762
500937
501116
501294
501472
501646
501823
501997
502174
502349
502522
502695
502870
503044
503218
503389
503561
503736
503906
504081
504254
504427
504598
504768
504935
505105
505278
505451
505621
505795
505972
506153
506333
506514
506697
506880
507068
507252
507435
507618
507797
507975
508153
508332
508507
508683
508860
509037
509212
509385
509562
509738
509911
510089
510269
510449
510629
510809
510986
511170
511352
511528
511711
511891
512068
512248
512426
512605
512782
512964
513142
513318
513496
513671
513845
514021
514202
514379
514554
514734
514911
515089
515266
515443
515617
515791
515966
516139
516312
516485
516656
516826
516997
517167
517339
517508
517681
517853
518025
518195
518368
518539
518712
518881
519050
519221
519392
519562
519731
519901
520070
520241
520411
520582
520749
520869
521089
521255
521427
521593
521761
521926
522094
522261
522427
522592
522758
522923
523091
523259
523430
523604
523778
523955
524129
524305
524480
524658
524837
