peaks
75155
75349
75547
75736
75928
76119
76310
76501
76697
76892
77089
77283
77474
77666
77856
78042
78230
78416
78598
78785
78971
79154
79339
79449
79703
79884
80066
80240
80414
80590
80705
80933
81105
81271
81432
81598
81763
81873
82090
82251
82412
82572
82742
82910
83080
83249
83419
83513
83757
83928
84103
84277
84454
84633
84812
84993
85103
85365
85546
85725
85903
86079
86256
86431
86602
86774
86945
87118
87291
87468
87647
87738
88012
88190
88372
88552
88733
88912
89093
89275
89457
89640
89823
90008
90197
90385
90570
90756
90942
91130
91316
91495
91680
91857
92033
92209
92304
92560
92736
92915
93093
93275
93462
93652
93840
94031
94218
94407
94592
94778
94965
95147
95332
95517
95701
95885
96070
96257
96441
96626
96810
96994
97184
97374
97559
97750
97939
98126
98222
98499
98678
98867
99049
99233
99417
99604
99733
99977
100160
100345
100527
100710
100893
101076
101265
101455
101644
101830
102017
102204
102395
102582
102771
102961
103149
103334
103515
103698
103879
104061
104248
104436
104626
104819
105015
105209
105405
105595
105787
105978
106168
106359
106547
106735
106927
107117
107310
107504
107698
107892
108088
108266
108471
108659
108846
109035
109224
109414
109605
109794
109984
110176
110368
110559
110750
110884
111126
111310
111497
111682
111865
112051
112239
112426
112614
112803
112991
113181
113371
113560
113746
113935
114121
114307
114496
114682
114871
115060
115246
115434
115622
115808
115996
116186
116374
116566
116757
116950
117141
117336
117527
117714
117900
118083
118268
118450
118636
118820
119006
119195
119384
119573
119768
119961
120154
120349
120541
120732
120921
121108
121294
121480
121664
121848
122032
122216
122400
122585
122769
122953
123137
123320
123503
123689
123879
124071
124261
124451
124634
124820
125007
125193
125382
125570
125758
125946
126133
126318
126506
126694
126884
127079
127274
127470
127664
127854
128050
128245
128440
128634
128825
129018
129206
129394
129582
129767
129956
130151
130339
130531
130627
130908
131096
131290
131474
131659
131845
132029
132215
132402
132588
132776
132969
133163
133360
133540
133761
133962
134164
134359
134558
134758
134953
135144
135329
135516
135703
135888
136075
136256
136437
136609
136788
136957
137133
137309
137484
137662
137842
138028
138219
138324
138600
138787
138968
139149
139327
139507
139688
139870
140055
140241
140427
140617
140806
141007
141205
141334
141589
141776
141964
142152
142248
142525
142710
142901
143076
143265
143448
143633
143818
144006
144200
144388
144579
144769
144956
145148
145340
145532
145721
145915
146110
146302
146490
146682
146874
147061
147251
147380
147621
147801
147985
148162
148341
148520
148700
148879
149060
149238
149412
149585
149755
149922
150092
150268
150446
150625
150808
150996
151182
151370
151559
151749
151939
152130
152320
152520
152713
152908
153114
153308
153501
153697
153891
154079
154268
154459
154646
154763
155028
155210
155410
155599
155786
155973
156161
156343
156526
156710
156896
157078
157264
157450
157635
157822
158014
158205
158395
158584
158771
158959
159148
159334
159521
159710
159901
160091
160283
160481
160674
160864
161056
161250
161441
161634
161830
162021
162215
162408
162598
162792
162987
163181
163377
163567
163756
163944
164134
164322
164513
164704
164891
165082
165270
165461
165650
165840
166030
166218
166412
166605
166797
166993
167193
167387
167585
167767
167975
168168
168366
168556
168746
168938
169129
169317
169506
169689
169876
170066
170253
170440
170629
170820
171009
171203
171400
171592
171785
171977
172169
172358
172552
172745
172936
173126
173320
173511
173705
173900
174089
174278
174468
174657
174845
175041
175234
175425
175615
175809
176000
176192
176386
176582
176776
176970
177163
177352
177540
177731
177926
178117
178311
178508
178700
178891
179086
179281
179459
179680
179873
180068
180271
180464
180639
180858
181047
181251
181445
181652
181853
182060
182260
182466
182662
182861
183071
183277
183478
183686
183883
184080
184281
184477
184651
184870
185064
185258
185451
185643
185831
186022
186213
186400
186589
186777
186968
187161
187357
187558
187753
187957
188158
188353
188528
188748
188943
189141
189346
189546
189738
189937
190140
190339
190535
190739
190938
191139
191350
191558
191758
191956
192158
192360
192558
192755
192959
193158
193361
193567
193764
193981
194196
194396
194601
194805
194998
195204
195406
195607
195804
196018
196228
196434
196649
196878
197093
197309
197522
197735
197954
198169
198371
198569
198770
198968
199167
199375
199583
199785
199998
200224
200438
200655
200872
201077
201282
201489
201689
201886
202092
202294
202492
202688
202891
203086
203284
203490
203689
203894
204106
204312
204439
204713
204912
205110
205315
205513
205712
205923
206132
206331
206528
206727
206926
207125
207331
207536
207734
207934
208135
208332
208536
208749
208951
209148
209347
209541
209727
209917
210108
210299
210490
210683
210876
211068
211255
211447
211639
211830
212016
212209
212399
212591
212782
212976
213171
213361
213551
213737
213921
214104
214286
214459
214636
214814
214990
215164
215347
215523
215705
215884
216070
216257
216453
216656
216852
217047
217238
217426
217608
217791
217972
218154
218333
218511
218688
218868
219046
219228
219410
219589
219769
219953
220136
220320
220498
220676
220850
221029
221205
221301
221556
221726
221904
222076
222249
222424
222523
222770
223778
223937
224103
224268
224430
224602
224770
224875
225116
225287
225464
225634
225813
225989
226168
226350
226533
226716
226904
227102
227298
227500
227705
227903
228109
228313
228514
228711
228900
229086
229271
229447
229629
229803
229980
230161
230334
230517
230692
230870
231050
231228
231406
231583
231757
231936
232111
232287
232465
232641
232814
232983
233156
233324
233492
233658
233834
234009
234186
234367
234550
234741
234929
235123
235331
235533
235732
235921
236140
236333
236525
236717
236895
237096
237287
237479
237670
237867
238060
238252
238446
238635
238824
239012
239205
239394
239585
239779
239969
240166
240363
240553
240747
240936
241130
241318
241509
241699
241889
242080
242270
242457
242646
242837
243026
243217
243408
243600
243790
243986
244179
244369
244559
244756
244949
245139
245330
245520
245711
245909
246105
246303
246502
246701
246874
247102
247297
247495
247697
247893
248079
248295
248494
248692
248891
249088
249282
249477
249672
249864
250057
250253
250455
250650
250849
251054
251252
251452
251665
251865
252073
252286
252489
252685
252892
253092
253290
253486
253666
253876
254075
254282
254482
254686
254892
255094
255297
255503
255697
255901
256097
256295
256482
256693
256889
257082
257257
257465
257651
257835
258012
258192
258366
258544
258715
258888
259061
259237
259417
259601
259796
259990
260199
260425
260655
260891
261108
261334
261556
261776
261998
262225
262444
262671
262895
263117
263345
263563
263788
264012
264231
264457
264677
264892
265112
265328
265550
265772
265990
266213
266432
266648
266874
267095
267315
267539
267758
267983
268208
268430
268655
268880
269105
269334
269561
269782
270006
270224
270448
270663
270883
271103
271320
271539
271758
271973
272192
272409
272620
272838
273049
273261
273480
273694
273907
274121
274326
274524
274723
274915
275145
275355
275556
275757
275963
276164
276370
276578
276783
277001
277219
277427
277636
277843
278047
278267
278483
278692
278921
279151
279383
279609
279828
280056
280278
280500
280724
280939
281166
281393
281620
281848
282067
282290
282511
282730
282950
283169
283387
283604
283820
284036
284255
284467
284682
284896
285109
285326
285540
285751
285970
286188
286405
286628
286848
287065
287286
287505
287726
287949
288164
288386
288607
288827
289051
289272
289495
289719
289939
290170
290395
290612
290838
291053
291272
291481
291701
291920
292138
292359
292580
292801
293025
293249
293472
293695
293917
294147
294376
294606
294836
295062
295285
295514
295736
295961
296189
296409
296634
296857
297078
297304
297526
297745
297969
298189
298405
298623
298835
299047
299261
299474
299689
299904
300119
300333
300548
300762
300973
301193
301409
301620
301839
302058
302276
302500
302721
302942
303167
303387
303605
303826
304043
304258
304468
304669
304867
305070
305268
305464
305662
305867
306073
306279
306503
306714
306937
307162
307375
307491
307813
308049
308277
308488
308702
308913
309120
309333
309539
309741
309945
310146
310348
310584
310824
311060
311286
311508
311743
311969
312195
312426
312654
312878
313102
313327
313555
313782
314007
314233
314457
314678
314899
315120
315334
315555
315769
315989
316213
316434
316657
316879
317097
317324
317542
317765
317991
318210
318436
318658
318876
319101
319322
319539
319752
319960
320174
320404
320618
320874
321106
321345
321579
321808
322041
322269
322493
322717
322937
323159
323382
323601
323824
324046
324270
324499
324723
324947
325174
325403
325626
325853
326075
326292
326519
326734
326955
327180
327403
327627
327851
328072
328300
328528
328751
328979
329203
329432
329664
329892
330127
330359
330591
330823
331049
331282
331508
331738
331972
332200
332435
332668
332897
333132
333366
333593
333821
334048
334274
334503
334732
334959
335192
335424
335656
335894
336122
336352
336576
336804
337026
337254
337471
337695
337914
338131
338359
338579
338800
339025
339246
339472
339693
339910
340134
340357
340576
340798
341020
341244
341469
341686
341905
342132
342349
342566
342792
343015
343243
343470
343690
343920
344143
344359
344564
344755
344946
345138
345333
345520
345774
345997
346225
346443
346658
346879
347092
347322
347549
347764
348006
348237
348466
348711
348936
349169
349399
349626
349856
350082
350317
350542
350770
351004
351235
351469
351693
351912
352113
352317
352513
352719
352926
353136
353373
353619
353849
354079
354309
354541
354768
354997
355231
355456
355683
355914
356128
356336
356550
356764
356972
357181
357391
357593
357804
358012
358231
358456
358674
358918
359164
359428
359542
359874
360120
360346
360576
360804
361031
361269
361498
361724
361959
362185
362418
362647
362872
363105
363333
363562
363791
364015
364238
364458
364679
364903
365130
365353
365579
365808
366030
366262
366492
366717
366955
367185
367414
367646
367870
368094
368320
368532
368759
368970
369174
369381
369588
369794
370007
370227
370440
370660
370876
371036
371317
371536
371755
371983
372205
372446
372691
372925
373154
373371
373579
373800
374011
374229
374456
374673
374902
375136
375353
375570
375785
375992
376205
376414
376623
376836
377052
377270
377489
377710
377925
378144
378359
378564
378776
378989
379191
379398
379600
379804
380011
380226
380432
380659
380888
381106
381327
381532
381737
381946
382150
382417
382653
382877
383107
383339
383564
383797
384026
384254
384489
384717
384951
385183
385414
385645
385877
386106
386339
386570
386792
387023
387250
387473
387697
387917
388136
388357
388564
388762
388976
389172
389369
389565
389765
389968
390172
390381
390590
390796
391026
391251
391467
391685
391897
392110
392324
392536
392746
392977
393208
393432
393651
393867
394071
394290
394498
394707
394927
395142
395350
395574
395784
395982
396177
396368
396561
396759
396959
397161
397368
397572
397790
398005
398215
398433
398651
398862
399107
399343
399568
399788
399997
400200
400443
400668
400883
401103
401318
401531
401754
401966
402172
402378
402577
402776
402994
403197
403399
403606
403816
404025
404239
404461
404672
404889
405159
405402
405652
405896
406139
406381
406619
406854
407086
407315
407544
407767
407999
408225
408449
408674
408899
409123
409354
409581
409805
410040
410272
410496
410727
410953
411179
411400
411606
411808
412019
412219
412426
412637
412838
413059
413275
413478
413693
413895
414099
414314
414516
414724
414944
415158
415365
415625
415859
416080
416285
416504
416708
416916
417140
417351
417581
417819
418040
418265
418499
418715
418928
419145
419357
419590
419812
420021
420220
420436
420638
420846
421057
421277
421486
421751
421990
422138
422456
422685
422908
423133
423360
423582
423805
424031
424251
424465
424670
424869
425068
425276
425480
425678
425892
426093
426300
426519
426727
426933
427186
427428
427665
427901
428133
428368
428592
428811
429021
429222
429424
429621
429817
430024
430221
430432
430633
430836
431047
431247
431448
431653
431857
432059
432278
432488
432694
432824
433132
433396
433629
433856
434087
434319
434547
434780
435009
435228
435446
435648
435843
436044
436248
436448
436650
436869
437078
437285
437524
437756
437972
438184
438404
438613
438821
439036
439245
439453
439671
439877
440089
440306
440512
440713
440908
441100
441292
441486
441677
441883
442097
442303
442530
442754
442982
443232
443463
443684
443905
444113
444316
444528
444732
444936
445190
445422
445635
445842
446045
446240
446437
446634
446832
447043
447244
447457
447674
447886
448112
448331
448543
448769
448981
449196
449406
449608
449813
450013
450180
450442
450667
450905
451125
451341
451549
451759
451967
452172
452379
452511
452785
452989
453199
453403
453614
453824
454031
454245
454447
454644
454838
455029
455223
455420
455625
455833
456036
456238
456447
456656
456860
457073
457291
457448
457730
457970
458206
458442
458671
458903
459129
459365
459595
459823
460055
460291
460519
460751
460981
461217
461448
461660
461863
462069
462264
462467
462672
462868
463071
463279
463482
463707
463941
464212
464457
464691
464924
465149
465375
465604
465823
466053
466280
466505
466729
466933
467136
467349
467562
467775
468026
468257
468492
468723
468952
469192
469412
469625
469839
470047
470261
470472
470679
470893
471110
471321
471584
471820
472054
472276
472483
472681
472881
473093
473291
473495
473690
473897
474117
474326
474578
474810
475050
475288
475511
475739
475956
476165
476391
476601
476816
477033
477247
477484
477724
477965
478187
478388
478584
478778
478975
479176
479380
479579
479778
479991
480200
480415
480631
480846
481073
481295
481565
481809
482052
482291
482519
482753
482979
483210
483438
483660
483886
484108
484337
484564
484787
485014
485239
485459
485661
485861
486059
486267
486471
486685
486903
487125
487349
487569
487788
488060
488304
488545
488780
489013
489249
489475
489711
489941
490168
490401
490627
490860
491089
491312
491527
491732
491936
492147
492357
492566
492786
493000
493213
493425
493636
493860
494082
494302
494546
494779
495029
495255
495481
495710
495926
496144
496362
496574
496779
496978
497174
497371
497570
497771
497976
498182
498385
498594
498799
499007
499215
499419
499623
499830
500044
500261
500527
500769
501003
501234
501464
501700
501922
502152
502383
502608
502840
503069
503295
503523
503725
503924
504127
504332
504541
504752
504974
505231
505491
505733
505973
506210
506450
506683
506926
507161
507398
507632
507860
508093
508321
508547
508776
509001
509232
509466
509697
509936
510167
510395
510621
510834
511037
511242
511444
511659
511876
512092
512343
512601
512838
513072
513313
513550
513783
514025
514256
514484
514720
514949
515190
515418
515643
515858
516056
516250
516437
516627
516823
517053
517288
517545
517787
518034
518277
518511
518746
518977
519210
519440
519667
519899
520130
520357
520590
520819
521043
521273
521496
521721
521948
522168
522393
522602
522795
522994
523197
523405
523662
523891
524123
524358
524590
524822
