peaks
75147
75364
75597
75826
76053
76166
76303
76511
76771
77052
77304
77549
77794
78053
78322
78564
78832
79102
79360
79604
79866
80110
80346
80599
80842
81079
81327
81572
81811
82045
82284
82529
82761
83010
83255
83488
83720
83971
84213
84446
84691
84944
85178
85426
85684
85943
86175
86426
86671
86910
87145
87393
87638
87873
88141
88382
88618
88856
89111
89347
89575
89688
89824
90048
90291
90516
90754
90860
91003
91216
91451
91701
91964
92211
92453
92688
92939
93174
93411
93639
93881
93993
94132
94345
94583
94848
95106
95346
95606
95860
96105
96347
96611
96869
97110
97364
97634
97872
98113
98367
98633
98873
99121
99385
99639
99885
100126
100388
100640
100875
101116
101365
101612
101848
102084
102318
102551
102661
102798
103001
103236
103461
103689
103940
104187
104420
104658
104918
105170
105406
105647
105904
106152
106397
106656
106919
107158
107402
107656
107916
108155
108404
108662
108901
109138
109397
109641
109883
110115
110359
110593
110824
110930
111076
111296
111606
111856
112115
112367
112611
112867
113147
113401
113652
113917
114194
114437
114689
114954
115195
115440
115700
115946
116186
116416
116659
116917
117152
117388
117659
117893
118133
118382
118614
118857
119100
119338
119567
119795
120026
120143
120476
120698
120925
121150
121365
121588
121815
122044
122274
122384
122519
122735
122992
123237
123481
123742
123981
124231
124503
124783
125023
125283
125536
125776
126014
126268
126503
126743
126991
127225
127461
127705
127949
128191
128423
128655
128889
128999
129137
129347
129590
129824
130051
130280
130412
130548
130754
130981
131199
131469
131714
131948
132196
132444
132680
132914
133021
133168
133388
133628
133855
134100
134206
134352
134565
134822
135075
135317
135556
135805
136050
136285
136515
136754
136863
137013
137234
137481
137766
138028
138273
138569
138830
139078
139320
139578
139840
140086
140326
140594
140845
141079
141321
141565
141799
142045
142285
142515
142751
142997
143242
143473
143708
143953
144194
144430
144534
144680
144912
145197
145460
145736
146015
146267
146513
146752
147018
147250
147500
147806
148068
148329
148598
148861
149111
149392
149649
149885
150130
150380
150616
150846
151084
151332
151561
151790
151904
152039
152247
152481
152716
152963
153202
153436
153547
153692
153922
154168
154308
154640
154899
155129
155247
155383
155599
155842
156078
156336
156592
156831
157072
157331
157590
157829
158076
158323
158564
158802
159052
159293
159527
159759
159864
160009
160231
160463
160692
160936
161049
161191
161409
161654
161895
162132
162244
162382
162598
162846
163077
163316
163425
163572
163788
164026
164264
164519
164758
164996
165105
165247
165480
165763
166010
166274
166528
166769
167021
167269
167520
167746
167990
168244
168483
168721
168978
169233
169473
169705
169815
169959
170182
170425
170641
170903
171151
171383
171492
171653
171901
172150
172392
172650
172918
173161
173426
173688
173946
174186
174446
174695
174931
175181
175433
175678
175911
176158
176399
176633
176871
177110
177341
177445
177589
177791
178025
178259
178492
178744
178994
179234
179481
179744
179991
180224
180483
180737
180973
181211
181465
181713
181949
182200
182464
182711
182971
183199
183444
183683
183908
184164
184405
184635
184741
184880
185101
185335
185571
185802
185910
186059
186284
186522
186702
187050
187317
187570
187831
188078
188312
188557
188804
189040
189274
189539
189795
190038
190303
190563
190816
191060
191313
191557
191803
192045
192281
192511
192621
192765
192992
193241
193474
193722
193969
194209
194455
194697
194929
195168
195272
195434
195683
195934
196204
196464
196705
196941
197187
197431
197672
197930
198174
198420
198656
198909
199155
199395
199637
199884
200129
200368
200616
200855
201104
201338
201584
201827
202062
202292
202546
202798
203042
203266
203526
203782
204022
204248
204488
204592
204743
204964
205190
205461
205705
205931
206179
206289
206430
206650
206880
207140
207410
207653
207898
208168
208435
208684
208936
209209
209473
209719
209980
210248
210487
210728
210983
211231
211475
211741
212014
212276
212512
212760
212989
213227
213470
213716
213955
214182
214436
214686
214925
215180
215428
215666
215915
216166
216405
216639
216889
217152
217396
217651
217917
218177
218415
218680
218941
219209
219438
219703
219944
220184
220424
220680
220943
221184
221424
221685
221937
222183
222418
222680
222930
223168
223410
223660
223900
224130
224377
224620
224848
224954
225095
225313
225559
225797
226028
226272
226501
226736
226982
227229
227465
227696
227936
228190
228424
228653
228900
229140
229372
229484
229629
229841
230079
230324
230573
230813
231054
231160
231321
231560
231813
231928
232077
232313
232571
232809
233066
233317
233559
233812
234065
234311
234551
234835
235087
235324
235589
235831
236065
236292
236541
236788
237020
237129
237266
237487
237736
237918
238226
238478
238711
238953
239204
239443
239681
239788
239929
240148
240415
240658
240905
241146
241386
241495
241645
241868
242118
242348
242642
242896
243138
243405
243667
243911
244169
244447
244707
244955
245217
245489
245734
245977
246228
246474
246712
246942
247187
247421
247654
247757
247917
248163
248398
248647
248917
249168
249409
249665
249919
250157
250395
250647
250905
251146
251286
251576
251847
252090
252331
252577
252815
253044
253309
253562
253795
254035
254301
254557
254788
255028
255277
255507
255734
255860
255982
256219
256483
256728
256998
257267
257517
257762
258030
258272
258505
258756
259003
259233
259483
259739
259993
260231
260497
260755
261004
261251
261511
261758
261998
262230
262480
262729
262964
263205
263457
263703
263940
264186
264436
264681
264919
265167
265410
265638
265877
265981
266142
266374
266622
266720
266879
267121
267420
267575
267933
268191
268422
268666
268896
269140
269363
269477
269616
269831
270073
270306
270559
270794
271031
271142
271286
271529
271801
272050
272328
272588
272838
273089
273344
273607
273840
274092
274350
274588
274823
275073
275312
275543
275783
275892
276036
276248
276479
276721
276936
277154
277274
277586
277790
277895
278210
278411
278543
278816
279010
279211
279411
279610
279804
279998
280199
280400
280611
280817
281031
281244
281465
281689
281934
282170
282419
282666
282908
283142
283395
283643
283891
284142
284386
284629
284879
285119
285359
285604
285848
286084
286312
286426
286767
286992
287206
287419
287632
287836
287943
288254
288455
288562
288860
289060
289261
289474
289706
289947
290057
290196
290426
290734
290997
291261
291513
291756
292032
292290
292552
292797
293040
293284
293521
293760
294011
294248
294484
294734
294973
295215
295455
295706
295958
296183
296416
296639
296857
297070
297174
297488
297688
297807
298106
298308
298420
298724
298936
299060
299358
299559
299668
299972
300171
300285
300624
300735
300894
301076
301389
301683
301996
302292
302582
302887
303180
303437
303721
303997
304247
304494
304746
304989
305222
305473
305712
305941
306163
306382
306597
306807
307013
307225
307464
307687
307804
307953
308180
308418
308702
308957
309199
309483
309746
309992
310248
310535
310825
311079
311329
311583
311847
312099
312353
312598
312840
313101
313341
313607
313865
314129
314384
314630
314914
315218
315477
315735
315994
316259
316501
316746
317016
317266
317503
317744
317981
318233
318485
318721
318992
319235
319487
319743
320008
320249
320500
320762
321014
321265
321509
321761
322002
322245
322491
322732
322967
323210
323451
323701
323939
324174
324414
324673
324911
325146
325383
325640
325882
326125
326376
326618
326859
327097
327325
327573
327806
328033
328140
328287
328507
328783
329033
329311
329584
329842
330091
330359
330624
330873
331131
331405
331690
331956
332209
332495
332749
333000
333218
333467
333707
333941
334170
334413
334672
334948
335204
335489
335784
336039
336283
336539
336795
337046
337295
337560
337816
338059
338310
338584
338837
339074
339324
339578
339841
340093
340365
340614
340858
341108
341355
341599
341836
342097
342346
342579
342815
343052
343292
343527
343761
344012
344258
344500
344737
344967
345226
345476
345712
345963
346220
346486
346726
346976
347244
347510
347750
347987
348263
348517
348765
349001
349267
349528
349769
350016
350268
350511
350744
350977
351209
351452
351695
351924
352035
352174
352395
352654
352894
353144
353389
353622
353862
354107
354355
354594
354824
355099
355339
355574
355817
356062
356295
356546
356808
357072
357313
357563
357840
358109
358367
358627
358921
359173
359423
359686
359940
360182
360422
360678
360923
361157
361406
361650
361904
362143
362388
362628
362871
363102
363332
363578
363833
364077
364325
364603
364884
365152
365403
365675
365935
366176
366435
366698
366953
367200
367446
367702
367940
368198
368449
368697
368929
369161
369408
369649
369886
370124
370385
370626
370871
371111
371348
371592
371826
372063
372304
372536
372648
372972
373181
373388
373597
373799
374005
374211
374415
374624
374865
375093
375205
375345
375576
375839
376113
376393
376653
376941
377225
377490
377757
378022
378284
378530
378797
379039
379279
379512
379750
379989
380224
380456
380563
380710
380933
381199
381445
381707
381984
382229
382484
382727
382981
383221
383479
383727
383958
384206
384467
384708
384956
385231
385486
385733
385975
386214
386452
386679
386791
386927
387146
387402
387639
387894
388150
388401
388641
388892
389123
389358
389461
389796
390005
390205
390408
390614
390814
391012
391208
391414
391618
391822
392030
392236
392454
392672
392895
393003
393141
393350
393584
393833
394084
394341
394597
394846
395094
395380
395651
395914
396177
396426
396669
396919
397170
397402
397643
397889
398141
398377
398620
398875
399119
399356
399609
399857
400104
400342
400579
400805
401030
401247
401457
401564
401870
402083
402296
402513
402744
402994
403239
403486
403745
403994
404239
404485
404728
404973
405232
405489
405765
406065
406346
406629
406932
407215
407476
407740
407990
408233
408482
408722
408957
409199
409436
409676
409908
410145
410424
410684
410922
411154
411410
411647
411880
412117
412382
412633
412868
413117
413354
413582
413805
413913
414231
414443
414549
414845
415041
415147
415452
415662
415768
415915
416110
416352
416644
416937
417202
417505
417789
418088
418368
418661
418953
419251
419519
419805
420080
420367
420644
420938
421215
421500
421771
422027
422293
422582
422846
423093
423345
423634
423890
424145
424406
424717
424987
425238
425497
425756
426001
426237
426475
426759
427019
427258
427532
427790
428034
428315
428592
428866
429118
429411
429694
429955
430240
430504
430775
431039
431313
431586
431862
432131
432380
432646
432929
433191
433475
433757
434032
434288
434564
434833
435093
435337
435624
435876
436116
436383
436667
436941
437191
437447
437720
437981
438229
438497
438770
439022
439278
439568
439837
440077
440324
440582
440837
441070
441310
441578
441813
442065
442302
442560
442813
443053
443295
443575
443845
444103
444373
444642
444916
445175
445436
445714
445975
446231
446483
446752
447010
447251
447500
447751
447989
448221
448475
448724
448961
449200
449478
449739
449989
450250
450516
450772
451023
451298
451572
451840
452095
452350
452616
452857
453105
453355
453609
453852
454089
454327
454583
454827
455060
455316
455575
455828
456062
456311
456569
456811
457058
457322
457565
457807
458073
458336
458577
458812
459072
459337
459593
459865
460140
460411
460677
460947
461221
461495
461749
462004
462285
462535
462786
463035
463291
463537
463791
464044
464296
464535
464789
465047
465298
465559
465826
466080
466324
466583
466833
467075
467313
467563
467815
468055
468309
468582
468850
469106
469363
469639
469896
470161
470430
470692
470950
471199
471450
471715
471972
472212
472477
472745
472980
473221
473468
473704
473939
474168
474425
474678
474920
475169
475412
475649
475891
476141
476387
476636
476867
477137
477397
477646
477896
478161
478424
478680
478924
479193
479446
479687
479934
480194
480445
480692
480951
481228
481490
481746
482015
482292
482546
482805
483074
483337
483584
483846
484095
484352
484601
484857
485116
485367
485616
485880
486146
486407
486655
486897
487159
487414
487656
487917
488166
488422
488659
488897
489146
489395
489640
489913
490167
490421
490663
490939
491187
491426
491662
491918
492172
492409
492686
492949
493201
493455
493731
494013
494279
494538
494808
495066
495322
495565
495831
496079
496314
496574
496815
497074
497313
497558
497814
498061
498303
498544
498786
499029
499261
499513
499759
499994
500250
500502
500752
500991
501250
501495
501748
501986
502239
502493
502750
502991
503255
503504
503768
504010
504274
504529
504794
505042
505297
505548
505785
506031
506288
506536
506777
507009
507249
507489
507721
507951
508200
508453
508691
508944
509201
509452
509700
509952
510203
510440
510676
510914
511146
511377
511627
511862
512091
512321
512434
512564
512799
513060
513317
513577
513854
514119
514377
514616
514903
515166
515416
515662
515915
516159
516406
516673
516924
517163
517416
517684
517937
518182
518432
518685
518946
519199
519450
519703
519952
520210
520452
520719
520952
521189
521432
521671
521920
522154
522387
522629
522871
523113
523349
523609
523858
524101
524335
524592
524864
