peaks
75083
75270
75453
75635
75806
75978
76150
76329
76513
76710
76912
77110
77316
77520
77722
77917
78109
78299
78488
78599
78861
79042
79222
79400
79572
79748
79930
80121
80314
80521
80748
80979
81206
81435
81644
81854
82064
82273
82483
82691
82888
83077
83257
83440
83620
83806
83989
84182
84386
84586
84787
84973
85160
85346
85527
85723
85910
86098
86279
86458
86638
86813
86991
87180
87385
87592
87810
88037
88270
88489
88713
88934
89147
89349
89551
89749
89949
90147
90337
90517
90695
90869
91038
91209
91379
91548
91722
91897
92077
92254
92432
92612
92798
92993
93196
93413
93634
93850
94057
94267
94479
94686
94890
95093
95289
95480
95673
95873
96068
96266
96470
96667
96854
97042
97233
97426
97623
97822
98020
98220
98421
98619
98822
99023
99220
99421
99627
99839
100058
100281
100500
100711
100913
101115
101310
101492
101675
101856
102040
102222
102405
102599
102802
103008
103217
103426
103626
103827
104018
104207
104399
104590
104779
104968
105164
105363
105566
105771
105977
106188
106401
106612
106824
107028
107231
107436
107639
107847
108054
108258
108465
108671
108871
109066
109257
109434
109607
109780
109949
110123
110299
110482
110676
110875
111072
111275
111485
111687
111885
112085
112282
112473
112665
112856
113045
113236
113429
113623
113818
114017
114216
114411
114608
114811
115016
115218
115423
115632
115834
116042
116256
116474
116693
116899
117115
117314
117512
117712
117915
118117
118322
118529
118732
118934
119139
119348
119564
119777
119993
120208
120414
120613
120811
121008
121202
121394
121592
121800
122002
122203
122408
122611
122810
123011
123213
123414
123619
123819
124015
124211
124402
124608
124807
125001
125212
125415
125613
125807
125999
126195
126399
126604
126810
127019
127228
127437
127642
127844
128045
128246
128442
128641
128835
129027
129219
129414
129610
129808
130000
130191
130388
130578
130771
130966
131166
131359
131553
131749
131944
132144
132341
132541
132745
132948
133147
133348
133554
133760
133969
134170
134373
134580
134784
134985
135186
135388
135598
135807
136008
136216
136425
136634
136834
137027
137223
137430
137636
137841
138038
138228
138411
138595
138782
138972
139167
139362
139546
139735
139921
140110
140301
140485
140663
140843
141024
141213
141397
141581
141770
141966
142165
142365
142567
142763
142951
143132
143311
143492
143666
143858
144037
144219
144395
144565
144734
144906
145086
145269
145383
145639
145819
145998
146180
146360
146543
146729
146919
147110
147303
147494
147686
147881
147988
148273
148468
148658
148848
149040
149230
149427
149623
149823
150031
150244
150457
150680
150895
151110
151326
151542
151763
151980
152186
152388
152589
152788
152979
153173
153372
153587
153803
154023
154248
154471
154691
154908
155122
155336
155549
155761
155970
156183
156405
156625
156846
157071
157292
157509
157716
157917
158112
158310
158511
158716
158920
159131
159349
159567
159790
160015
160233
160448
160657
160865
161073
161261
161438
161615
161808
162012
162232
162458
162692
162928
163161
163388
163611
163828
164043
164249
164453
164655
164855
165055
165251
165442
165635
165829
166025
166226
166424
166616
166814
167014
167212
167402
167594
167790
167989
168179
168368
168557
168741
168921
169104
169290
169481
169677
169868
170057
170249
170442
170630
170820
170999
171171
171340
171507
171674
171841
172017
172196
172379
172572
172770
172971
173181
173388
173593
173799
173995
174185
174366
174546
174729
174917
175101
175289
175485
175684
175888
176093
176299
176504
176708
176907
177102
177291
177484
177674
177863
178047
178228
178408
178587
178769
178952
179133
179310
179491
179665
179831
179997
180168
180339
180515
180695
180875
181060
181241
181418
181588
181755
181921
182082
182239
182401
182569
182753
182953
183166
183393
183633
183865
184095
184307
184494
184673
184843
185010
185179
185353
185530
185713
185894
186069
186248
186428
186607
186787
186965
187144
187317
187487
187656
187836
188031
188238
188452
188662
188867
189064
189243
189416
189583
189745
189915
190094
190292
190503
190716
190942
191169
191391
191618
191838
192051
192261
192452
192639
192832
193019
193202
193309
193586
193769
193952
194133
194313
194490
194667
194855
195062
195274
195495
195720
195943
196156
196367
196571
196765
196948
197125
197305
197491
197680
197876
198067
198262
198470
198695
198919
199141
199357
199563
199763
199965
200168
200278
200571
200772
200966
201152
201332
201504
201675
201843
201952
202196
202359
202520
202680
202842
203012
203201
203396
203605
203818
204027
204222
204414
204603
204794
204985
205172
205358
205543
205716
205882
206053
206223
206396
206580
206772
206969
207174
207377
207574
207754
207930
208107
208285
208471
208657
208844
209036
209234
209441
209638
209828
210028
210234
210440
210640
210836
211026
211208
211387
211568
211754
211944
212125
212297
212469
212641
212818
213002
213192
213385
213587
213787
213987
214187
214381
214561
214741
214921
215102
215288
215477
215666
215860
216051
216239
216420
216601
216785
216976
217176
217376
217575
217763
217939
218110
218281
218452
218624
218807
219001
219214
219439
219651
219869
220091
220306
220514
220721
220929
221136
221338
221541
221745
221939
222127
222279
222506
222691
222877
223060
223240
223420
223615
223832
224064
224293
224519
224736
224941
225144
225337
225536
225742
225952
226156
226348
226528
226703
226884
227073
227277
227491
227709
227931
228144
228352
228563
228773
228980
229187
229392
229595
229796
229987
230178
230370
230557
230735
230918
231093
231272
231464
231663
231870
232076
232280
232490
232695
232898
233102
233301
233494
233689
233879
234075
234280
234491
234698
234904
235108
235309
235506
235695
235882
236065
236243
236412
236589
236767
236946
237139
237350
237562
237779
238001
238218
238435
238644
238845
239047
239243
239435
239625
239807
239984
240161
240338
240522
240720
240930
241138
241351
241566
241783
241997
242204
242402
242590
242768
242946
243118
243285
243458
243643
243831
244031
244244
244462
244678
244893
245105
245318
245522
245723
245926
246129
246325
246526
246726
246927
247124
247321
247524
247730
247923
248120
248321
248519
248717
248914
249108
249296
249480
249663
249849
250030
250211
250401
250601
250802
250999
251191
251379
251561
251748
251938
252132
252330
252533
252744
252960
253170
253376
253577
253766
253951
254136
254320
254501
254682
254864
255053
255245
255433
255622
255808
255993
256173
256348
256523
256689
256862
257035
257218
257407
257603
257791
257976
258167
258356
258544
258729
258911
259092
259266
259441
259613
259788
259962
260142
260322
260503
260688
260878
261061
261246
261433
261620
261802
261980
262152
262325
262497
262673
262852
263032
263215
263395
263569
263745
263922
264100
264283
264468
264652
264841
265032
265209
265405
265591
265775
265957
266139
266312
266477
266645
266812
266993
267186
267391
267604
267819
268018
268229
268426
268613
268795
268969
269137
269306
269479
269657
269832
270016
270206
270404
270613
270820
271015
271209
271406
271601
271798
271992
272183
272370
272554
272731
272878
273077
273246
273353
273598
273771
273942
274113
274279
274449
274633
274833
275042
275260
275475
275681
275882
276079
276263
276438
276616
276784
276951
277118
277290
277464
277653
277841
278031
278224
278423
278620
278818
279010
279193
279370
279548
279727
279914
280106
280299
280498
280699
280899
281102
281298
281487
281669
281851
282030
282210
282389
282569
282750
282936
283124
283313
283503
283696
283891
284075
284256
284438
284620
284797
284975
285159
285346
285543
285747
285952
286155
286364
286572
286779
286983
287185
287389
287588
287784
287981
288179
288372
288484
288769
288959
289146
289336
289455
289721
289908
290091
290277
290462
290659
290864
291074
291284
291501
291718
291928
292134
292336
292537
292735
292919
293117
293307
293496
293685
293879
294069
294264
294465
294665
294870
295076
295281
295485
295684
295887
296095
296300
296501
296709
296915
297119
297323
297527
297729
297927
298126
298332
298533
298738
298945
299150
299349
299550
299748
299941
300136
300328
300518
300708
300898
301090
301289
301486
301681
301878
302080
302278
302475
302669
302861
303050
303231
303404
303579
303757
303934
304112
304298
304489
304678
304869
305052
305241
305433
305625
305816
306010
306201
306379
306564
306742
306917
307086
307258
307422
307592
307766
307944
308132
308329
308528
308730
308930
309125
309315
309502
309681
309861
310042
310222
310407
310599
310797
311001
311208
311410
311608
311800
311971
312151
312321
312487
312654
312827
313014
313217
313437
313659
313880
314098
314301
314489
314683
314879
315078
315278
315470
315668
315870
316073
316278
316487
316695
316900
317103
317310
317521
317726
317935
318147
318359
318564
318769
318972
319180
319392
319600
319802
320004
320193
320378
320561
320749
320940
321102
321334
321540
321755
321972
322186
322390
322590
322790
322989
323194
323388
323579
323757
323947
324137
324335
324533
324732
324936
325141
325334
325529
325720
325910
326100
326292
326476
326659
326838
327013
327186
327356
327522
327692
327877
328065
328257
328463
328578
328879
329080
329279
329477
329670
329865
330060
330257
330445
330638
330750
331031
331232
331424
331616
331805
331991
332173
332361
332562
332770
332992
333216
333433
333648
333856
334055
334241
334425
334612
334806
335000
335195
335399
335603
335798
336001
336203
336409
336613
336812
337011
337211
337406
337597
337792
337988
338195
338408
338623
338834
339037
339226
339410
339594
339779
339965
340154
340348
340541
340733
340930
341130
341316
341511
341707
341905
342091
342287
342486
342681
342874
343059
343232
343405
343577
343753
343936
344124
344314
344507
344699
344885
345069
345254
345434
345610
345782
345957
346138
346325
346519
346713
346905
347100
347293
347486
347673
347853
348028
348139
348371
348537
348703
348870
349044
349223
349404
349589
349785
349981
350177
350382
350589
350796
351007
351209
351405
351596
351778
351953
352126
352300
352472
352652
352841
353044
353253
353441
353650
353855
354054
354244
354438
354629
354816
355003
355192
355373
355574
355766
355961
356159
356351
356550
356755
356957
357156
357358
357556
357751
357948
358146
358347
358548
358748
358949
359146
359342
359542
359746
359944
360149
360356
360554
360747
360922
361095
361268
361441
361618
361799
361986
362181
362383
362589
362798
363012
363228
363438
363648
363759
364051
364254
364446
364632
364820
365001
365182
365365
365549
365741
365934
366126
366236
366522
366734
366937
367142
367345
367543
367740
367934
368128
368318
368505
368692
368884
369070
369256
369440
369627
369822
370017
370217
370423
370630
370836
371041
371249
371454
371659
371861
372060
372253
372431
372605
372776
372951
373133
373329
373538
373747
373963
374177
374392
374610
374819
375018
375219
375416
375610
375806
376001
376197
376394
376586
376770
376958
377151
377348
377544
377743
377942
378139
378337
378538
378742
378936
379130
379327
379524
379723
379919
380115
380315
380517
380716
380914
381106
381284
381400
381653
381823
381991
382154
382315
382474
382636
382812
382999
383204
383415
383624
383833
384035
384224
384420
384609
384795
384981
385166
385341
385520
385697
385872
386042
386213
386385
386562
386745
386923
387103
387286
387469
387655
387849
388046
388242
388438
388629
388819
389003
389181
389360
389539
389718
389893
390074
390262
390459
390657
390856
391049
391236
391422
391600
391770
391937
392103
392222
392459
392638
392828
393029
393226
393416
393607
393796
393987
394185
394385
394586
394786
394972
395155
395337
395522
395706
395893
396080
396265
396456
396655
396852
397054
397260
397456
397651
397843
398037
398233
398431
398624
398804
398977
399150
399329
399521
399722
399935
400152
400372
400589
400785
400976
401163
401346
401525
401702
401878
402053
402225
402393
402565
402743
402931
403124
403327
403529
403720
403915
404111
404305
404497
404683
404862
405040
405220
405397
405572
405747
405923
406065
406284
406469
406653
406840
407029
407215
407402
407590
407769
407946
408126
408305
408481
408659
408834
409007
409182
409350
409517
409688
409868
410051
410239
410431
410606
410783
410962
411136
411318
411504
411693
411878
412065
412251
412437
412622
412797
412973
413151
413333
413517
413700
413887
414067
414243
414424
414612
414799
414997
415208
415420
415637
415850
416065
416273
416473
416668
416836
417034
417215
417392
417567
417737
417905
418074
418241
418416
418593
418788
419006
419226
419452
419682
419905
420123
420340
420551
420764
420966
421169
421374
421576
421771
421972
422172
422371
422566
422760
422944
423121
423297
423471
423648
423825
424007
424195
424388
424581
424780
424981
425183
425386
425579
425764
425945
426128
426311
426495
426689
426880
427087
427289
427489
427690
427884
428083
428285
428484
428687
428896
429102
429305
429510
429707
429902
430094
430288
430485
430685
430881
431070
431266
431466
431673
431880
432080
432288
432481
432670
432853
433030
433198
433368
433540
433714
433891
434069
434250
434433
434623
434812
435008
435212
435417
435619
435822
436027
436229
436426
436622
436818
437014
437200
437394
437593
437788
437983
438179
438370
438555
438739
438908
439080
439249
439419
439579
439765
439953
440139
440338
440530
440725
440919
441109
441300
441493
441686
441870
442059
442245
442430
442610
442798
442988
443183
443384
443592
443797
443999
444195
444386
444573
444758
444943
445133
445324
445524
445727
445928
446136
446347
446557
446769
446977
447180
447381
447575
447762
447950
448138
448326
448520
448712
448900
449092
449290
449488
449698
449901
450101
450300
450496
450684
450867
451047
451224
451402
451583
451773
451985
452198
452413
452637
452852
453057
453265
453470
453675
453873
454066
454253
454436
454617
454800
454989
455186
455393
455588
455775
455964
456150
456330
456514
456702
456899
457107
457323
457542
457766
457987
458204
458415
458616
458814
459007
459198
459391
459582
459767
459956
460149
460346
460538
460741
460943
461143
461335
461531
461724
461909
462093
462283
462475
462658
462845
463040
463242
463445
463645
463844
464038
464216
464412
464601
464711
464979
465160
465339
465520
465705
465896
466084
466278
466484
466699
466909
467105
467302
467492
467679
467865
468049
468227
468407
468591
468777
468963
469150
469331
469514
469705
469908
470115
470329
470542
470745
470939
471129
471320
471511
471699
471888
472077
472257
472436
472619
472800
472975
473152
473340
473530
473725
473921
474114
474304
474481
474655
474831
475012
475201
475383
475573
475777
475986
476198
476415
476625
476827
477028
477224
477416
477601
477777
477946
478113
478284
478465
478656
478849
479042
479219
479395
479576
479763
479954
480147
480346
480542
480737
480915
481088
481266
481443
481625
481808
481995
482180
482358
482537
482685
482907
483091
483280
483468
483660
483854
484049
484255
484468
484682
484903
485115
485320
485524
485727
485930
486128
486330
486534
486736
486934
487140
487348
487459
487750
487949
488141
488337
488529
488719
488914
489112
489307
489492
489649
489858
490041
490229
490414
490600
490788
490974
491169
491370
491567
491765
491957
492138
492322
492512
492707
492912
493123
493233
493535
493725
493910
494098
494287
494488
494698
494910
495131
495358
495570
495780
495982
496180
496378
496576
496765
496953
497144
497337
497538
497743
497943
498145
498346
498551
498759
498965
499176
499387
499593
499803
500013
500214
500406
500593
500776
500956
501147
501340
501532
501736
501944
502165
502381
502579
502775
502970
503161
503345
503527
503716
503915
504113
504260
504526
504724
504925
505130
505326
505521
505720
505925
506144
506348
506537
506728
506914
507103
507293
507482
507676
507880
508093
508309
508528
508748
508970
509188
509399
509610
509818
510023
510229
510431
510626
510820
511004
511189
511382
511591
511805
512018
512234
512450
512661
512860
513062
513262
513451
513640
513831
514025
514215
514408
514597
514791
514979
515161
515348
515536
515721
515910
516104
516298
516486
516680
516875
517071
517267
517465
517663
517852
518033
518222
518421
518627
518837
519048
519252
519447
519642
519826
520009
520185
520357
520535
520718
520912
521124
521343
521564
521783
521999
522198
522393
522585
522763
522944
523122
523303
523485
523664
523846
524034
524226
524420
524614
524805
524917
