peaks
75049
75176
75450
75653
75855
76055
76253
76451
76649
76849
77049
77247
77445
77643
77840
78038
78236
78434
78637
78836
79032
79230
79427
79626
79827
80028
80228
80429
80632
80837
81041
81245
81443
81643
81841
82040
82238
82433
82627
82820
83015
83212
83409
83605
83799
83999
84196
84393
84589
84788
84985
85180
85375
85570
85764
85961
86156
86351
86545
86740
86932
87130
87324
87516
87709
87903
88101
88299
88497
88693
88891
89092
89295
89496
89697
89895
90093
90294
90495
90696
90895
91092
91289
91483
91678
91874
92066
92258
92453
92649
92843
93038
93235
93429
93622
93821
94019
94218
94420
94619
94822
95024
95225
95429
95632
95834
96036
96235
96438
96643
96849
97053
97253
97457
97656
97776
98037
98244
98443
98640
98837
99034
99233
99430
99627
99826
100027
100227
100426
100625
100825
101025
101226
101426
101625
101825
102024
102223
102421
102619
102814
103013
103212
103409
103611
103813
104017
104220
104421
104621
104823
105025
105228
105430
105631
105829
106026
106221
106421
106617
106812
107004
107197
107391
107586
107781
107974
108164
108356
108549
108743
108935
109128
109323
109520
109716
109914
110111
110308
110508
110707
110905
111102
111302
111499
111694
111888
112079
112272
112467
112663
112858
113051
113245
113372
113636
113833
114026
114217
114406
114593
114781
114970
115158
115346
115531
115716
115902
116088
116271
116452
116633
116814
116995
117176
117358
117544
117730
117916
118102
118289
118480
118673
118865
119054
119245
119438
119556
119819
120026
120228
120430
120637
120842
121047
121251
121450
121650
121847
122048
122247
122445
122641
122835
123031
123228
123426
123622
123816
124010
124206
124406
124605
124803
125002
125204
125403
125606
125804
126000
126196
126393
126591
126790
126990
127195
127403
127613
127818
128024
128229
128433
128638
128838
129033
129227
129424
129622
129819
130017
130215
130418
130619
130818
131014
131206
131400
131594
131791
131987
132184
132382
132583
132786
132990
133194
133398
133602
133804
134006
134206
134403
134599
134799
134997
135195
135395
135595
135717
135995
136194
136390
136584
136777
136968
137161
137356
137548
137742
137936
138133
138328
138521
138714
138908
139104
139300
139495
139690
139887
140090
140292
140494
140695
140895
141097
141299
141500
141630
141910
142117
142321
142524
142727
142928
143127
143323
143523
143721
143918
144115
144311
144509
144707
144905
145100
145303
145505
145706
145903
146100
146298
146423
146698
146901
147097
147291
147487
147682
147878
148069
148259
148448
148641
148835
149031
149223
149415
149611
149807
150002
150199
150392
150585
150781
150977
151174
151373
151575
151779
151981
152184
152308
152590
152797
152997
153194
153388
153582
153777
153972
154166
154359
154552
154747
154867
155117
155318
155513
155708
155903
156098
156294
156487
156685
156883
157081
157278
157476
157671
157866
158062
158261
158462
158661
158859
159061
159262
159462
159661
159859
160055
160252
160448
160643
160837
161032
161231
161428
161627
161824
162025
162230
162433
162634
162833
163027
163229
163430
163631
163830
164028
164228
164431
164634
164837
165034
165231
165427
165624
165747
166036
166238
166437
166633
166829
167023
167215
167406
167596
167790
167982
168172
168363
168553
168743
168933
169125
169317
169513
169710
169907
170105
170303
170505
170708
170914
171118
171321
171520
171719
171918
172116
172311
172504
172697
172890
173085
173280
173473
173664
173857
174053
174250
174446
174641
174835
175031
175227
175423
175619
175816
176015
176213
176409
176605
176801
176998
177194
177388
177583
177776
177971
178167
178363
178557
178750
178946
179141
179337
179531
179724
179920
180114
180310
180506
180700
180896
181094
181292
181488
181685
181809
182083
182281
182474
182665
182854
183044
183235
183427
183619
183815
184014
184214
184415
184614
184810
184937
185216
185418
185616
185810
186004
186202
186399
186597
186791
186986
187182
187379
187576
187769
187968
188164
188363
188560
188755
188952
189149
189332
189540
189734
189934
190130
190328
190524
190717
190911
191108
191305
191505
191702
191897
192094
192294
192495
192695
192894
193090
193287
193486
193683
193879
194075
194269
194464
194661
194856
195052
195248
195445
195640
195834
196029
196226
196424
196620
196814
197007
197203
197399
197596
197789
197979
198170
198364
198486
198764
198963
199156
199348
199540
199730
199923
200113
200305
200498
200691
200883
201076
201270
201463
201658
201849
202041
202235
202432
202627
202820
203013
203208
203405
203604
203800
203996
204191
204387
204584
204780
204976
205168
205365
205559
205754
205948
206141
206335
206530
206723
206917
207112
207309
207503
207696
207886
208076
208269
208388
208635
208835
209028
209224
209420
209616
209809
209998
210187
210377
210568
210761
210951
211141
211334
211528
211724
211921
212117
212312
212508
212706
212902
213094
213285
213476
213667
213858
214049
214177
214433
214628
214821
215012
215203
215395
215588
215783
215975
216172
216366
216562
216762
216884
217175
217379
217576
217773
217968
218168
218365
218557
218751
218945
219142
219339
219532
219723
219913
220104
220297
220492
220685
220880
221078
221277
221479
221680
221884
222089
222293
222496
222699
222901
223102
223304
223503
223699
223891
224084
224277
224469
224662
224854
225045
225239
225434
225628
225823
226015
226209
226406
226605
226803
227001
227198
227396
227596
227794
227990
228184
228375
228567
228756
228951
229140
229328
229515
229702
229889
230077
230263
230444
230569
230816
231003
231186
231365
231542
231717
231894
232071
232249
232428
232612
232799
232983
233168
233356
233547
233741
233935
234129
234323
234521
234723
234924
235122
235323
235523
235729
235932
236135
236334
236530
236732
236933
237134
237333
237532
237731
237927
238123
238320
238517
238717
238917
239112
239312
239508
239624
239879
240003
240253
240452
240646
240838
241029
241214
241402
241584
241765
241948
242131
242316
242498
242680
242860
243040
243220
243401
243579
243756
243932
244107
244281
244459
244637
244814
244960
245159
245339
245519
245700
245883
246066
246248
246435
246614
246796
246984
247170
247355
247539
247721
247903
248084
248264
248444
248624
248805
248984
249160
249338
249518
249700
249885
250072
250258
250444
250628
250817
251007
251199
251390
251583
251775
251964
252156
252349
252545
252739
252933
253127
253318
253506
253696
253886
254262
254449
254639
254824
255003
255190
255312
255547
255731
255905
256072
256250
256420
256600
256778
256956
257131
257308
257489
257669
257849
258026
258204
258385
258562
258742
258922
259098
259280
259466
259643
259820
259998
260177
260353
260529
260704
260881
261066
261248
261426
261605
261783
261959
262138
262313
262493
262670
262850
263033
263214
263393
263571
263750
263930
264112
264291
264466
264646
264823
264998
265180
265361
265541
265719
265895
266072
266250
266430
266610
266786
266961
267141
267319
267495
267667
267841
268019
268195
268370
268545
268719
268848
269060
269235
269406
269577
269745
269914
270087
270262
270435
270606
270781
270946
271128
271304
271479
271650
271819
271992
272164
272337
272510
272682
272853
273024
273192
273359
273530
273701
273869
274035
274202
274368
274481
274705
274881
275058
275233
275349
275585
275768
275946
276118
276287
276458
276631
276799
276912
277141
277313
277482
277595
277829
278007
278178
278348
278517
278628
278856
279028
279197
279308
279534
279710
279880
279992
280221
280392
280565
280678
280912
281087
281259
281372
281601
281776
281947
282060
282291
282469
282642
282812
282980
283150
283320
283494
283668
283782
284016
284191
284364
284475
284710
284882
285051
285167
285386
285555
285724
285891
286064
286235
286405
286517
286746
286924
287096
287209
287439
287614
287792
287969
288144
288260
288508
288697
288879
289059
289242
289421
289598
289775
289951
290130
290310
290487
290664
290844
291020
291198
291377
291553
291728
291905
292086
292266
292446
292631
292813
292996
293177
293361
293544
293674
293915
294098
294283
294466
294646
294822
294999
295173
295347
295459
295693
295871
296046
296226
296408
296593
296775
296958
297140
297323
297501
297679
297859
298042
298223
298403
298586
298771
298957
299145
299329
299512
299695
299878
300063
300245
300425
300607
300788
300972
301158
301343
301527
301716
301903
302092
302280
302470
302659
302846
303033
303219
303408
303598
303793
303983
304177
304368
304556
304746
304932
305118
305301
305484
305663
305843
306020
306205
306390
306575
306757
306941
307127
307315
307501
307684
307868
308051
308234
308421
308609
308795
308980
309163
309343
309526
309704
309887
310008
310258
310445
310627
310807
310988
311173
311358
311542
311725
311913
312101
312292
312484
312676
312867
313057
313249
313442
313636
313830
314022
314212
314408
314603
314799
314993
315187
315380
315574
315770
315965
316160
316353
316549
316745
316942
317137
317332
317528
317723
317920
318115
318306
318501
318696
318891
319086
319281
319473
319667
319860
320053
320247
320438
320629
320823
321014
321211
321404
321597
321790
321991
322186
322385
322581
322776
322974
323171
323365
323557
323747
323942
324135
324328
324517
324704
324895
325088
325277
325463
325651
325838
326029
326217
326403
326593
326783
326973
327167
327357
327547
327737
327931
328126
328318
328508
328700
328892
329084
329276
329467
329661
329856
330053
330248
330441
330635
330832
331029
331221
331416
331607
331801
331998
332196
332393
332588
332787
332985
333182
333378
333569
333758
333946
334135
334326
334515
334701
334884
335067
335248
335430
335612
335791
335970
336094
336338
336524
336709
336891
337072
337253
337434
337614
337794
337981
338166
338348
338535
338720
338907
339097
339217
339478
339671
339860
340050
340245
340438
340631
340822
341015
341140
341413
341611
341806
342001
342196
342391
342586
342780
342974
343170
343368
343565
343763
343961
344160
344359
344555
344754
344951
345151
345346
345545
345744
345939
346130
346321
346513
346702
346895
347082
347273
347465
347661
347853
348044
348234
348426
348618
348816
349011
349205
349400
349596
349791
349992
350190
350318
350588
350789
350988
351186
351379
351573
351766
351960
352153
352345
352536
352727
352920
353114
353309
353503
353698
353898
354027
354303
354503
354700
354895
355088
355284
355478
355673
355866
356063
356259
356456
356651
356844
357037
357232
357427
357623
357818
358011
358207
358405
358602
358800
358995
359188
359388
359587
359788
359988
360187
360385
360585
360784
360983
361180
361372
361562
361757
361951
362144
362340
362537
362733
362930
363126
363321
363516
363708
363899
364088
364279
364468
364656
364846
365033
365224
365407
365595
365780
365967
366153
366336
366517
366703
366889
367076
367267
367453
367644
367834
368031
368231
368428
368625
368822
369019
369219
369420
369617
369814
370010
370207
370405
370600
370798
370995
371193
371392
371590
371787
371982
372177
372372
372565
372756
372950
373142
373333
373523
373719
373913
374107
374301
374495
374693
374889
375088
375286
375483
375685
375885
376083
376280
376477
376680
376880
377078
377277
377478
377680
377883
378083
378280
378477
378671
378864
379059
379253
379446
379635
379824
380012
380205
380397
380589
380779
380968
381158
381350
381540
381733
381925
382111
382302
382492
382684
382872
383064
383250
383440
383635
383826
384020
384213
384408
384603
384800
384993
385190
385382
385571
385758
385880
386138
386331
386516
386699
386878
387058
387242
387417
387593
387770
387940
388114
388280
388458
388626
388798
388975
389152
389334
389512
389692
389870
390047
390221
390397
390573
390754
390941
391130
391316
391510
391698
391889
392076
392260
392445
392632
392821
393009
393199
393388
393579
393764
393945
394128
394311
394493
394677
394863
395047
395234
395418
395605
395788
395975
396159
396340
396520
396700
396877
397059
397237
397418
397603
397789
397977
398171
398362
398554
398745
398936
399128
399321
399512
399710
399906
400099
400292
400485
400677
400872
401064
401255
401443
401630
401814
402001
402189
402375
402558
402742
402928
403112
403294
403479
403663
403842
404025
404144
404388
404574
404756
404886
405119
405301
405484
405663
405846
406036
406220
406408
406594
406775
406962
407144
407327
407508
407690
407870
408053
408233
408418
408603
408721
408986
409179
409367
409552
409734
409912
410089
410266
410446
410626
410810
410993
411178
411362
411549
411735
411918
412106
412293
412482
412670
412856
413046
413234
413421
413606
413791
413977
414163
414347
414532
414717
414908
415094
415282
415466
415647
415827
416008
416193
416377
416566
416755
416946
417135
417324
417512
417701
417885
418070
418255
418441
418632
418818
419010
419200
419393
419583
419775
419965
420154
420346
420535
420723
420912
421100
421291
421481
421669
421855
422046
422236
422428
422619
422808
422999
423189
423379
423569
423759
423946
424135
424325
424522
424713
424903
425096
425286
425476
425671
425864
426058
426252
426448
426645
426843
427040
427235
427432
427631
427829
428024
428222
428414
428603
428795
428984
429178
429365
429552
429732
429912
430092
430272
430456
430638
430815
430993
431172
431348
431523
431695
431869
432038
432209
432379
432548
432715
432876
433043
433205
433366
433527
433692
433855
434017
434184
434343
434501
434662
434820
434980
435148
435310
435469
435627
435791
435951
436108
436267
436385
436589
436750
436901
437064
437222
437374
437535
437692
437804
438006
438167
438322
438480
438637
438794
438949
439106
439266
439429
439592
439755
439914
440076
440244
440404
440568
440733
440900
441018
441228
441391
441553
441672
441875
442041
442200
442359
442518
442676
442831
442990
443151
443308
443466
443585
443784
443939
444055
444255
444409
444560
444714
444867
445015
445168
445315
445468
445619
445772
445922
446069
446222
446370
446520
446669
446817
446967
447122
447272
447432
447582
447735
447886
448035
448186
448337
448485
448633
448779
448927
449070
449226
449374
449528
449680
449827
449980
450130
450278
450427
450578
450724
450873
451025
451174
451328
451480
451631
451783
451936
452088
452244
452396
452549
452699
452847
452996
453149
453302
453458
453611
453765
453918
454030
454226
454381
454534
454685
454837
454988
455142
455296
455451
455602
455757
455910
456062
456170
456373
456529
456684
456838
456995
457148
457302
457409
457615
457773
457926
458082
458240
458390
458545
458702
458855
459017
459172
459329
459483
459642
459797
459951
460108
460267
460426
460583
460743
460900
461059
461218
461381
461539
461694
461852
462010
462166
462321
462475
462637
462798
462915
463120
463280
463437
463587
463749
463902
464056
464214
464372
464478
464693
464849
465004
465163
465317
465470
465626
465731
465941
466102
466260
466413
466529
466733
466891
467047
467203
467362
467506
467676
467837
467955
468153
468310
468470
468627
468783
468939
469095
469255
469415
469532
469735
469891
470054
470213
470374
470533
470693
470857
471017
471129
471335
471495
471646
471807
471967
472081
472287
472445
472599
472753
472906
473066
473215
473368
473522
473676
473832
473983
474133
474281
474430
474580
474728
474880
475027
475178
475326
475475
475622
475770
475917
476067
476215
476361
476507
476653
476796
476945
477090
477237
477384
477529
477677
477823
477969
478114
478259
478408
478555
478702
478847
478995
479139
479286
479429
479574
479716
479863
480009
480157
480306
480451
480597
480742
480891
481036
481183
481328
481471
481618
481763
481913
482058
482205
482351
482500
482638
482794
482939
483093
483243
483396
483551
483711
483856
484004
484151
484300
484448
484596
484743
484891
485037
485189
485337
485485
485635
485784
485931
486079
486228
486382
486531
486687
486840
486989
487148
487300
487458
487610
487768
487918
488071
488228
488380
488531
488684
488839
488990
489147
489300
489448
489600
489750
489897
490049
490203
490354
490504
490653
490803
490950
491095
491245
491391
491540
491688
491838
491984
492131
492278
492425
492572
492723
492872
493026
493176
493327
493478
493630
493780
493930
494081
494232
494387
494536
494687
494840
494991
495144
495294
495450
495601
495750
495903
496055
496205
496353
496499
496647
496793
496941
497087
497231
497375
497520
497664
497813
497959
498107
498254
498400
498549
498694
498843
498991
499144
499292
499442
499595
499741
499888
500038
500186
500336
500486
500641
500793
500948
501100
501254
501410
501566
501723
501880
502033
502138
502353
502507
502659
502768
502965
503121
503275
503430
503586
503740
503892
504051
504207
504368
504527
504636
504844
504998
505156
505314
505468
505628
505782
505944
506105
506215
506441
506606
506767
506878
507055
507235
507409
507566
507728
507889
508048
508208
508370
508533
508694
508806
508984
509180
509338
509497
509658
509766
509986
510146
510304
510462
510625
510787
510953
511057
511283
511444
511610
511717
511900
512095
512260
512420
512581
512689
512905
513066
513226
513337
513519
513715
513881
514045
514209
514315
514536
514698
514861
515021
515182
515289
515508
515668
515828
515984
516143
516302
516461
516620
516781
516945
517110
517220
517447
517613
517773
517874
518093
518251
518407
518567
518726
518886
519046
519206
519365
519472
519653
519852
520015
520176
520337
520444
520622
520809
520931
521130
521290
521448
521603
521714
521892
522092
522254
522417
522577
522686
522867
523051
523210
523372
523533
523643
523822
524019
524179
524342
524502
524613
524789
524982
