peaks
75119
75216
75442
75597
75747
75896
76047
76204
76375
76556
76650
76919
77015
77266
77364
77601
77754
77907
78054
78203
78351
78501
78654
78816
79001
79197
79290
79567
79748
79924
80091
80252
80412
80571
80734
80900
81073
81169
81419
81587
81756
81922
82091
82256
82424
82593
82687
82942
83109
83276
83443
83614
83714
83969
84135
84301
84472
84644
84743
85009
85103
85351
85461
85685
85841
85997
86154
86322
86427
86694
86790
87046
87140
87389
87485
87714
87870
88022
88184
88356
88457
88722
88814
89083
89253
89423
89595
89690
89949
90049
90285
90438
90592
90745
90901
91065
91236
91411
91508
91771
91881
92112
92275
92434
92597
92760
92924
93087
93252
93348
93586
93743
93899
94049
94201
94355
94504
94667
94772
95019
95183
95351
95522
95696
95809
96047
96217
96391
96567
96745
96925
97105
97198
97459
97630
97800
97966
98131
98302
98479
98665
98760
99038
99217
99395
99575
99663
99924
100020
100260
100418
100576
100740
100904
101000
101251
101417
101588
101760
101932
102035
102279
102447
102614
102783
102952
103049
103302
103472
103646
103818
103990
104170
104272
104536
104632
104887
104979
105216
105372
105530
105691
105850
106014
106191
106388
106481
106777
106969
107149
107326
107414
107668
107831
107989
108146
108302
108464
108627
108790
108886
109141
109311
109485
109661
109834
110010
110187
110282
110541
110710
110874
111038
111202
111367
111533
111701
111870
112046
112225
112316
112578
112673
112913
113075
113236
113397
113557
113721
113891
114070
114160
114432
114605
114779
114955
115044
115304
115398
115639
115796
115950
116101
116250
116402
116560
116725
116819
117097
117282
117464
117648
117741
118009
118185
118352
118519
118686
118858
119040
119137
119397
119490
119738
119835
120064
120223
120381
120543
120710
120877
121051
121237
121331
121621
121815
122001
122108
122367
122462
122716
122809
123041
123198
123354
123509
123665
123829
124004
124199
124295
124585
124780
124971
125069
125334
125502
125667
125828
125991
126154
126317
126484
126657
126835
126934
127202
127296
127547
127644
127873
128029
128182
128336
128492
128657
128842
129043
129135
129416
129601
129777
129953
130041
130291
130456
130619
130783
130949
131048
131294
131462
131632
131808
131985
132086
132346
132444
132702
132796
133043
133137
133363
133517
133670
133818
133987
134167
134356
134450
134735
134914
135095
135277
135367
135622
135789
135952
136117
136283
136385
136636
136809
136983
137156
137334
137512
137686
137858
138031
138126
138388
138487
138723
138881
139038
139193
139348
139502
139662
139832
139934
140200
140294
140560
140730
140900
141075
141163
141420
141517
141759
141864
142079
142235
142390
142552
142726
142835
143095
143194
143457
143632
143806
143978
144067
144326
144423
144675
144768
145012
145112
145338
145492
145647
145804
145971
146165
146371
146463
146764
146961
147158
147253
147526
147700
147874
148050
148140
148402
148497
148739
148902
149069
149237
149409
149521
149774
149949
150126
150297
150468
150580
150817
150983
151142
151303
151469
151570
151815
151978
152142
152306
152475
152644
152819
152990
153162
153343
153525
153622
153894
153989
154236
154349
154562
154721
154873
155023
155178
155342
155529
155729
155821
156111
156309
156502
156595
156870
157045
157215
157383
157553
157727
157908
158000
158267
158361
158623
158715
158968
159129
159289
159453
159623
159804
159993
160085
160378
160569
160753
160933
161025
161294
161388
161641
161736
161966
162123
162278
162429
162581
162727
162878
163024
163182
163336
163493
163650
163804
163960
164116
164274
164432
164594
164760
164930
165024
165275
165440
165609
165778
165949
166041
166290
166458
166630
166800
166971
167067
167322
167497
167673
167847
168025
168212
168404
168499
168780
168876
169153
169328
169498
169673
169766
170033
170129
170380
170481
170721
170888
171054
171222
171407
171607
171704
171998
172193
172386
172486
172757
172929
173099
173273
173363
173626
173721
173959
174119
174283
174451
174624
174720
174992
175090
175359
175532
175706
175886
175981
176255
176432
176605
176782
176877
177148
177327
177505
177689
177784
178075
178271
178462
178569
178840
179027
179221
179412
179508
179783
179969
180157
180343
180435
180709
180891
181079
181268
181359
181632
181731
181986
182085
182329
182493
182660
182835
183017
183128
183399
183496
183778
183965
184147
184326
184424
184694
184875
185055
185229
185408
185593
185789
185884
186168
186351
186530
186703
186871
187039
187205
187377
187557
187745
187840
188104
188202
188445
188610
188769
188924
189082
189241
189404
189572
189740
189915
190099
190197
190473
190659
190837
191018
191111
191381
191560
191732
191902
192075
192254
192444
192536
192815
193003
193197
193387
193481
193753
193935
194118
194298
194478
194668
194871
194963
195265
195462
195656
195752
196027
196205
196385
196567
196657
196928
197105
197286
197470
197559
197836
198019
198208
198304
198584
198771
198960
199056
199339
199524
199712
199809
200089
200265
200447
200636
200729
201029
201226
201425
201518
201806
201984
202167
202352
202444
202706
202887
203056
203221
203383
203547
203710
203811
204083
204270
204462
204648
204734
205015
205200
205384
205561
205651
205904
206070
206236
206403
206569
206739
206921
207112
207208
207491
207674
207857
208042
208135
208402
208502
208750
208854
209091
209257
209421
209585
209757
209859
210141
210337
210532
210629
210914
211108
211302
211398
211672
211852
212031
212212
212307
212575
212752
212932
213116
213207
213482
213662
213848
214035
214127
214405
214590
214777
214965
215059
215324
215500
215678
215855
215947
216210
216310
216566
216661
216909
217013
217238
217399
217563
217736
217919
218015
218300
218489
218670
218850
218944
219207
219374
219542
219712
219880
220051
220228
220411
220507
220773
220898
221111
221276
221442
221605
221766
221925
222085
222247
222415
222586
222755
222846
223095
223264
223433
223599
223764
223854
224093
224257
224417
224577
224735
224892
225050
225219
225399
225580
225670
225948
226047
226310
226408
226658
226760
226987
227147
227308
227474
227645
227743
228013
228201
228395
228587
228684
228965
229154
229338
229521
229618
229890
230073
230251
230431
230523
230800
230983
231161
231339
231429
231698
231796
232043
232208
232376
232549
232726
232828
233098
233194
233463
233637
233809
233985
234078
234346
234444
234703
234796
235037
235198
235366
235540
235730
235835
236113
236297
236479
236654
236823
236992
237157
237330
237511
237691
237786
238057
238155
238419
238595
238766
238935
239024
239289
239388
239642
239740
239981
240140
240300
240467
240650
240758
241035
241224
241422
241627
241835
241923
242224
242416
242607
242796
242987
243075
243350
243445
243686
243845
243995
244142
244286
244431
244576
244721
244870
245015
245166
245314
245461
245603
245749
245890
246036
246178
246317
246452
246594
246732
246870
247008
247139
247278
247414
247543
247675
247811
247952
248094
248242
248400
248565
248735
248903
249066
249231
249390
249545
249696
249845
249993
250141
250289
250437
250585
250733
250882
251031
251181
251329
251477
251623
251766
251909
252053
252197
252328
252484
252627
252771
252917
253068
253227
253387
253541
253688
253861
254020
254180
254341
254499
254655
254810
254966
255120
255271
255420
255572
255726
255885
256046
256215
256391
256572
256753
256933
257108
257283
257375
257625
257791
257948
258105
258260
258417
258566
258723
258886
259050
259212
259381
259553
259724
259890
260057
260219
260380
260538
260695
260852
260990
261166
261321
261478
261635
261790
261940
262091
262244
262399
262556
262722
262901
263086
263177
263441
263612
263773
263932
264088
264241
264393
264543
264694
264842
264984
265131
265279
265423
265568
265713
265857
265999
266142
266286
266431
266575
266721
266870
267023
267182
267341
267503
267665
267832
267993
268153
268311
268467
268623
268776
268930
269080
269228
269377
269521
269663
269807
269950
270092
270232
270373
270515
270659
270804
270943
271089
271231
271376
271518
271658
271797
271935
272071
272212
272350
272487
272626
272765
272904
273046
273188
273334
273484
273637
273793
273951
274109
274263
274418
274568
274736
274892
275046
275201
275363
275524
275685
275852
276018
276188
276365
276542
276714
276888
277063
277235
277402
277570
277738
277906
278078
278251
278416
278595
278773
278868
279128
279294
279460
279625
279790
279958
280141
280338
280431
280718
280813
281088
281181
281439
281606
281767
281930
282099
282281
282465
282667
282758
283049
283250
283446
283554
283825
283919
284184
284280
284526
284688
284850
285016
285182
285364
285563
285774
285870
286170
286385
286593
286684
286969
287158
287346
287526
287712
287903
288098
288196
288467
288645
288822
288990
289157
289330
289425
289696
289870
290051
290233
290341
290595
290764
290931
291107
291288
291381
291656
291752
292020
292200
292376
292556
292736
292924
293120
293211
293489
293671
293851
294026
294200
294379
294567
294660
294949
295141
295337
295431
295709
295895
296083
296270
296362
296644
296835
297029
297127
297397
297577
297759
297947
298039
298315
298498
298684
298868
298958
299247
299436
299621
299812
299905
300197
300391
300578
300686
300958
301143
301324
301512
301604
301891
302079
302262
302447
302540
302820
303012
303202
303398
303492
303761
303955
304142
304333
304428
304707
304896
305090
305190
305463
305647
305833
306021
306114
306390
306575
306760
306941
307033
307313
307496
307673
307853
307944
308211
308377
308537
308702
308797
309062
309160
309419
309593
309754
309936
310034
310298
310468
310639
310814
310906
311172
311345
311524
311710
311802
312082
312265
312451
312626
312725
312998
313177
313344
313524
313621
313904
314089
314280
314392
314668
314854
315046
315145
315427
315616
315797
315985
316082
316362
316544
316723
316905
316996
317280
317464
317658
317759
318048
318239
318428
318523
318806
318998
319186
319281
319557
319742
319922
320105
320199
320483
320669
320858
321051
321147
321431
321624
321814
321916
322189
322377
322563
322742
322836
323111
323295
323483
323673
323765
324051
324239
324418
324601
324694
324969
325146
325327
325515
325606
325887
326069
326252
326432
326525
326803
326984
327164
327354
327445
327737
327921
328106
328295
328390
328669
328850
329036
329224
329315
329595
329775
329960
330148
330239
330517
330700
330877
331062
331155
331417
331591
331770
331944
332126
332317
332517
332608
332897
333087
333278
333393
333650
333749
334000
334171
334337
334508
334604
334863
334960
335215
335309
335561
335725
335892
336064
336156
336428
336610
336804
336915
337192
337384
337577
337676
337953
338137
338319
338499
338592
338847
338949
339187
339345
339502
339660
339826
339998
340167
340265
340542
340640
340901
340998
341246
341344
341577
341738
341897
342055
342218
342320
342569
342739
342917
343085
343282
343462
343647
343836
344024
344116
344372
344537
344699
344857
345014
345162
345324
345484
345577
345825
345989
346156
346326
346497
346592
346844
347016
347192
347362
347533
347707
347889
347981
348247
348420
348592
348767
348944
349045
349296
349469
349645
349819
350001
350192
350283
350565
350768
350958
351054
351325
351498
351671
351848
351938
352201
352376
352554
352731
352820
353092
353272
353451
353639
353730
354014
354197
354382
354568
354660
354931
355106
355281
355457
355552
355805
355898
356143
356306
356464
356626
356792
356885
357140
357304
357476
357653
357838
358022
358123
358391
358487
358748
358912
359088
359260
359431
359599
359783
359877
360150
360331
360511
360694
360786
361053
361228
361399
361572
361661
361912
362080
362254
362428
362611
362802
362898
363180
363371
363562
363754
363850
364119
364299
364477
364650
364821
365001
365186
365278
365560
365750
365936
366121
366217
366478
366648
366819
366992
367166
367344
367518
367697
367877
368063
368153
368416
368512
368760
368857
369083
369238
369389
369539
369694
369856
370032
370216
370305
370591
370791
370975
371075
371350
371534
371709
371885
371977
372233
372329
372573
372675
372901
373060
373215
373374
373537
373630
373880
374044
374212
374382
374557
374740
374925
375018
375297
375478
375657
375835
375925
376189
376360
376535
376712
376802
377062
377235
377411
377582
377759
377937
378117
378202
378465
378571
378810
378970
379133
379295
379462
379558
379801
379965
380129
380289
380452
380550
380789
380953
381117
381283
381450
381541
381791
381960
382127
382296
382463
382636
382817
383006
383099
383372
383559
383742
383924
384014
384276
384448
384615
384784
384875
385129
385227
385466
385627
385791
385960
386129
386221
386477
386576
386824
386919
387152
387307
387463
387617
387775
387939
388102
388265
388359
388607
388782
388955
389129
389295
389386
389628
389791
389957
390120
390285
390381
390621
390784
390945
391110
391277
391371
391628
391735
391973
392140
392308
392479
392655
392754
393013
393109
393372
393551
393732
393914
394005
394281
394459
394639
394819
394910
395187
395367
395548
395733
395823
396102
396280
396462
396645
396734
397015
397196
397382
397566
397658
397918
398013
398259
398349
398592
398746
398908
399064
399222
399389
399568
399759
399851
400125
400321
400511
400613
400873
401045
401216
401389
401481
401737
401834
402074
402240
402406
402573
402744
402844
403102
403198
403454
403631
403805
403975
404149
404328
404513
404606
404877
405058
405235
405412
405583
405770
405957
406051
406323
406507
406687
406861
407033
407207
407384
407478
407732
407903
408075
408241
408403
408506
408753
408915
409083
409254
409432
409530
409796
409975
410157
410338
410430
410690
410787
411036
411132
411366
411525
411683
411848
412011
412181
412368
412567
412658
412945
413140
413325
413426
413684
413853
414024
414194
414365
414540
414717
414811
415073
415168
415422
415522
415761
415861
416094
416255
416412
416573
416730
416834
417100
417271
417452
417641
417732
418016
418210
418403
418497
418771
418954
419135
419311
419405
419660
419758
420006
420104
420350
420447
420686
420845
421005
421171
421346
421450
421718
421895
422079
422268
422359
422638
422822
423011
423198
423289
423558
423653
423906
424003
424240
424401
424558
424719
424877
425039
425215
425409
425505
425805
426012
426214
426305
426586
426773
426955
427131
427223
427466
427630
427790
427949
428113
428285
428456
428642
428832
429014
429116
429402
429590
429778
429959
430050
430315
430492
430663
430832
431006
431186
431366
431460
431723
431821
432078
432244
432408
432575
432668
432924
433022
433267
433364
433599
433757
433916
434075
434235
434330
434591
434687
434937
435034
435273
435383
435600
435759
435920
436088
436261
436355
436633
436826
437015
437209
437306
437581
437764
437946
438121
438217
438479
438576
438822
438988
439159
439336
439519
439616
439887
440072
440262
440450
440543
440820
441007
441192
441367
441544
441728
441919
442011
442293
442486
442670
442845
443020
443194
443369
443461
443718
443892
444066
444236
444406
444511
444748
444912
445078
445247
445421
445520
445778
445877
446133
446228
446480
446650
446820
446992
447083
447340
447435
447684
447780
448018
448179
448341
448506
448671
448771
449040
449218
449407
449603
449693
449974
450162
450350
450534
450625
450881
450988
451225
451386
451548
451711
451877
451977
452219
452386
452553
452726
452902
453012
453263
453437
453620
453806
453905
454161
454334
454502
454667
454827
454990
455153
455319
455487
455652
455744
455968
456132
456289
456448
456604
456763
456924
457092
457193
457436
457603
457769
457933
458101
458202
458447
458612
458781
458956
459122
459224
459483
459585
459829
459997
460162
460328
460493
460597
460866
461048
461232
461429
461519
461799
461982
462163
462347
462439
462708
462889
463065
463234
463410
463592
463789
463880
464168
464366
464568
464658
464938
465124
465308
465487
465583
465842
465936
466190
466286
466525
466637
466855
467012
467169
467337
467522
467623
467901
468096
468294
468388
468673
468872
469065
469159
469426
469614
469793
469964
470137
470314
470488
470583
470841
471015
471196
471372
471552
471730
471819
472085
472258
472432
472605
472769
472937
473107
473281
473375
473630
473802
473976
474148
474321
474422
474675
474846
475017
475192
475372
475469
475729
475828
476079
476173
476415
476578
476743
476909
477077
477170
477441
477624
477810
478004
478095
478379
478565
478755
478858
479124
479305
479487
479670
479762
480030
480211
480392
480571
480660
480926
481102
481280
481452
481631
481815
482017
482108
482401
482595
482789
482883
483153
483334
483515
483693
483783
484036
484133
484375
484487
484700
484861
485021
485182
485353
485448
485722
485908
486096
486293
486385
486667
486848
487029
487209
487300
487562
487736
487911
488085
488264
488442
488627
488718
488998
489180
489365
489548
489638
489906
490085
490265
490446
490537
490801
490976
491155
491331
491508
491691
491879
491970
492246
492425
492608
492787
492878
493135
493223
493482
493649
493817
493986
494162
494342
494531
494624
494905
495097
495290
495387
495650
495828
496000
496178
496268
496530
496624
496875
496970
497210
497377
497546
497716
497895
497996
498266
498446
498629
498812
498994
499175
499361
499454
499728
499905
500086
500264
500355
500609
500735
500953
501118
501286
501459
501632
501728
501997
502182
502363
502549
502641
502911
503091
503271
503453
503543
503811
503988
504170
504350
504440
504699
504796
505044
505140
505377
505539
505702
505868
506040
506141
506405
506588
506774
506968
507060
507344
507534
507728
507824
508093
508272
508450
508628
508719
508980
509077
509328
509493
509661
509833
509923
510193
510371
510555
510744
510835
511109
511284
511464
511635
511810
511991
512175
512268
512534
512707
512874
513044
513214
513386
513555
513647
513898
514069
514240
514408
514581
514675
514936
515033
515280
515383
515603
515758
515911
516066
516230
516352
516597
516782
516973
517163
517255
517529
517711
517893
518068
518249
518433
518627
518719
518989
519168
519343
519513
519676
519842
520004
520168
520336
520505
520598
520841
521006
521172
521332
521497
521590
521829
521993
522159
522321
522480
522643
522810
522982
523077
523324
523489
523655
523822
523984
524147
524318
524497
524590
524842
