peaks
75166
75457
75747
76038
76333
76640
76948
77246
77556
77866
78173
78484
78799
79105
79419
79733
80044
80353
80674
80987
81296
81613
81933
82247
82568
82889
83203
83530
83857
84174
84500
84825
85147
85467
85795
86121
86440
86757
87081
87403
87722
88042
88362
88686
89003
89319
89640
89959
90277
90591
90912
91228
91544
91854
92167
92477
92789
93097
93250
93686
93829
94261
94408
94825
94968
95376
95522
95926
96065
96467
96610
97019
97158
97568
97711
98132
98271
98689
98834
99263
99401
99833
99977
100404
100544
100971
101113
101533
101674
102081
102220
102606
102748
103105
103246
103613
103750
104131
104271
104671
104810
105211
105504
105801
105939
106364
106500
106935
107076
107510
107649
108075
108229
108648
108786
109209
109359
109783
109923
110350
110497
110915
111058
111478
111625
112038
112182
112603
112745
113161
113305
113727
113868
114283
114430
114849
114991
115399
115545
115958
116103
116505
116648
117056
117199
117606
117747
118165
118305
118720
118865
119280
119419
119838
119981
120402
120546
120965
121136
121529
121669
122085
122232
122648
122788
123204
123357
123764
123907
124319
124464
124871
125013
125425
125574
125979
126122
126538
126686
127098
127239
127650
127798
128209
128351
128757
129041
129327
129618
129910
130208
130511
130817
131114
131420
131726
132033
132332
132638
132938
133239
133546
133848
134149
134450
134764
135072
135383
135689
136002
136314
136620
136926
137238
137545
137848
138158
138470
138779
139081
139391
139700
140005
140316
140626
140933
141235
141547
141857
142160
142474
142787
143097
143402
143713
144032
144343
144651
144963
145278
145584
145892
146200
146507
146809
147117
147421
147723
148034
148347
148485
148921
149061
149501
149647
150072
150213
150634
150785
151197
151339
151747
151904
152306
152448
152857
153007
153421
153563
153983
154127
154546
154686
155112
155256
155678
155819
156243
156388
156812
156952
157377
157521
157942
158085
158502
158645
159056
159198
159615
159756
160172
160316
160744
160886
161304
161450
161874
162017
162433
162579
163003
163145
163560
163705
164121
164263
164672
164816
165227
165368
165778
165922
166338
166480
166893
167041
167461
167602
168016
168163
168586
168726
169147
169294
169720
169862
170281
170428
170849
170991
171406
171553
171965
172106
172517
172660
173073
173213
173620
173763
174177
174319
174728
174873
175286
175428
175839
175985
176399
176541
176954
177101
177517
177658
178073
178222
178638
178778
179193
179343
179758
179900
180309
180456
180869
181013
181419
181567
181980
182126
182532
182681
183087
183233
183640
183784
184192
184484
184765
185038
185303
185583
185881
186179
186482
186789
187099
187410
187724
188037
188344
188664
188979
189291
189605
189923
190240
190550
190870
191185
191498
191811
192131
192454
192773
193101
193425
193751
194070
194400
194718
195037
195359
195684
196000
196321
196645
196958
197279
197599
197919
198232
198555
198873
199185
199510
199829
200150
200466
200793
201118
201436
201764
202094
202417
202736
203062
203388
203709
204033
204356
204680
204999
205325
205647
205969
206292
206622
206951
207270
207594
207921
208246
208566
208895
209223
209541
209865
210194
210523
210840
211168
211495
211816
212135
212460
212781
213100
213427
213749
214067
214392
214716
215032
215349
215671
215990
216309
216632
216960
217277
217604
217932
218255
218576
218899
219222
219538
219854
220175
220492
220804
221120
221436
221745
222054
222369
222687
222996
223317
223638
223956
224271
224591
224912
225228
225545
225865
226180
226490
226808
227123
227433
227755
228073
228390
228700
229023
229341
229655
229971
230141
230586
230730
231172
231321
231761
231905
232338
232484
232918
233060
233493
233638
234077
234216
234654
234800
235245
235384
235823
235969
236417
236556
236999
237327
237647
237963
238280
238605
238931
239254
239572
239900
240231
240561
240888
241220
241554
241880
242205
242538
242870
243192
243524
243854
244184
244511
244842
245173
245498
245834
246163
246491
246821
247157
247499
247827
248151
248481
248813
249139
249474
249809
250134
250465
250803
251137
251461
251797
252135
252465
252796
253130
253467
253794
254120
254453
254782
255108
255432
255765
256097
256419
256741
257070
257399
257725
258044
258370
258699
259019
259342
259670
259994
260317
260647
260975
261301
261619
261950
262274
262594
262914
263241
263565
263882
264202
264529
264856
265171
265493
265819
266143
266294
266749
266888
267347
267662
267976
268296
268610
268924
269237
269561
269883
270199
270519
270848
271179
271496
271823
272153
272480
272801
273127
273452
273775
274095
274423
274753
275076
275404
275733
276057
276378
276702
277026
277346
277678
278000
278319
278650
278975
279298
279618
279947
280273
280597
280915
281245
281568
281885
282200
282522
282849
283172
283493
283825
284157
284491
284818
285151
285479
285808
286140
286472
286807
287138
287473
287809
288144
288477
288806
289138
289470
289800
290126
290460
290789
291111
291445
291772
292093
292415
292743
293068
293386
293720
294046
294369
294689
295018
295349
295671
296000
296326
296653
296981
297314
297649
297980
298324
298660
298994
299329
299668
299999
300328
300668
301000
301327
301658
301996
302325
302652
302983
303324
303663
303990
304324
304664
304997
305323
305654
305990
306320
306643
306981
307312
307639
307959
308288
308616
308936
309252
309577
309902
310219
310544
310868
311190
311509
311837
312163
312485
312808
313134
313462
313786
314117
314451
314784
315110
315444
315777
316101
316430
316768
317099
317426
317758
318096
318431
318760
319090
319422
319755
320081
320416
320751
321079
321396
321729
322061
322385
322711
323043
323376
323706
324042
324376
324709
325039
325370
325697
326021
326357
326691
327020
327349
327686
328022
328357
328688
329027
329355
329686
330021
330348
330670
330999
331324
331644
331971
332299
332623
332941
333265
333592
333910
334245
334573
334896
335221
335551
335879
336203
336528
336855
337182
337509
337834
338171
338504
338834
339168
339509
339844
340173
340500
340833
341162
341481
341809
342136
342457
342772
343092
343416
343735
344055
344383
344712
345040
345365
345699
346034
346369
346703
347033
347358
347674
347987
348289
348586
348880
349186
349492
349806
350131
350468
350803
351133
351472
351816
352158
352494
352828
353171
353511
353842
354171
354509
354843
355171
355504
355837
356162
356476
356803
357131
357449
357782
358114
358442
358769
359102
359430
359761
360096
360426
360755
361073
361388
361690
361990
362278
362554
362816
363077
363333
363584
363828
364072
364311
364549
364787
365028
365275
365518
365768
366032
366294
366562
366841
367129
367420
367725
368027
368342
368646
368965
369283
369599
369912
370229
370554
370877
371201
371524
371842
372168
372493
372814
373130
373450
373775
374094
374408
374736
375051
375368
375688
376015
376335
376645
376970
377287
377595
377901
378217
378525
378831
379138
379445
379761
380065
380379
380693
381007
381313
381634
381955
382278
382597
382923
383237
383557
383885
384209
384524
384837
385161
385486
385808
386124
386437
386768
387090
387401
387719
388033
388341
388653
388971
389281
389585
389892
390207
390508
390812
391126
391439
391745
392058
392374
392687
393003
393309
393629
393939
394250
394566
394883
395194
395505
395814
396127
396439
396750
397059
397372
397691
398002
398305
398624
398943
399258
399572
399894
400208
400515
400835
401156
401461
401778
402092
402406
402715
403033
403351
403669
403975
404287
404599
404906
405223
405541
405862
406178
406498
406822
407140
407461
407774
408094
408409
408729
409045
409359
409680
410002
410317
410630
410951
411267
411579
411892
412210
412518
412823
413137
413449
413751
414060
414370
414682
414986
415294
415608
415913
416219
416532
416849
417158
417471
417786
418103
418423
418738
419061
419380
419703
420022
420339
420660
420979
421290
421608
421925
422238
422552
422869
423182
423490
423795
424108
424416
424715
425026
425332
425634
425939
426248
426558
426857
427162
427470
427775
428076
428387
428697
429009
429314
429629
429946
430259
430568
430886
431204
431516
431826
432141
432458
432771
433084
433402
433718
434035
434349
434664
434979
435295
435603
435918
436231
436543
436849
437168
437482
437790
438098
438412
438729
439039
439349
439666
439981
440289
440597
440911
441228
441362
441811
441952
442402
442710
443016
443328
443644
443961
444268
444587
444905
445224
445537
445858
446179
446500
446816
447134
447454
447771
448086
448394
448711
449026
449340
449651
449963
450275
450582
450882
451186
451495
451802
452113
452429
452742
453051
453375
453696
454013
454329
454643
454961
455274
455596
455913
456230
456546
456861
457183
457497
457812
458125
458445
458759
459072
459383
459701
460012
460320
460625
460937
461248
461551
461854
462163
462469
462770
463072
463376
463682
463985
464295
464605
464916
465218
465529
465842
466150
466452
466764
467075
467384
467691
468007
468322
468631
468941
469254
469568
469876
470186
470500
470812
471118
471426
471742
472051
472354
472658
472970
473278
473585
473887
474198
474509
474815
475118
475433
475751
476059
476364
476675
476992
477303
477611
477924
478240
478555
478864
479180
479499
479813
480128
480446
480759
481074
481384
481702
482017
482324
482627
482931
483240
483546
483864
484178
484494
484804
485121
485441
485758
486071
486390
486713
487033
487351
487662
487985
488305
488624
488936
489258
489574
489888
490198
490509
490818
491116
491424
491733
492043
492345
492660
492975
493292
493605
493916
494237
494551
494862
495175
495493
495807
496117
496433
496750
497060
497370
497686
497994
498306
498617
498937
499247
499554
499873
500190
500505
500819
501140
501460
501774
502085
502406
502724
503035
503349
503668
503987
504301
504611
504927
505246
505564
505876
506195
506519
506836
507155
507481
507803
508124
508446
508773
509098
509417
509733
510055
510378
510698
511009
511321
511636
511947
512255
512568
512881
513187
513494
513806
514111
514418
514726
515035
515334
515638
515945
516249
516549
516860
517169
517478
517780
518090
518400
518708
519012
519321
519632
519938
520252
520562
520875
521176
521490
521798
522105
522406
522717
522867
523300
523441
523879
524027
524445
524744
