peaks
75150
75384
75622
75862
76100
76334
76573
76814
77056
77298
77543
77792
78036
78282
78528
78775
79020
79259
79499
79744
79989
80228
80473
80721
80969
81211
81453
81697
81941
82181
82419
82667
82915
83159
83407
83660
83913
84163
84412
84660
84908
85150
85395
85643
85891
86131
86377
86624
86870
87112
87350
87593
87834
88075
88316
88560
88804
89045
89285
89526
89769
90012
90248
90493
90741
90992
91136
91484
91617
91751
91984
92228
92469
92714
92958
93200
93442
93690
93939
94185
94433
94685
94937
95182
95426
95674
95923
96168
96415
96664
96914
97157
97402
97651
97899
98143
98386
98636
98885
99131
99374
99621
99869
100112
100354
100598
100847
101095
101340
101582
101833
102078
102328
102576
102825
103067
103315
103558
103805
104049
104294
104543
104792
105041
105285
105534
105784
106030
106272
106519
106770
107021
107271
107523
107775
108032
108280
108531
108780
109028
109271
109515
109764
110010
110253
110501
110751
110999
111241
111486
111731
111976
112216
112456
112705
112936
113197
113442
113692
113943
114187
114432
114678
114931
115176
115423
115668
115914
116160
116402
116652
116901
117144
117378
117633
117879
118114
118357
118600
118844
119084
119323
119561
119803
120042
120279
120518
120759
120990
121237
121479
121719
121961
122200
122434
122673
122913
123155
123396
123640
123886
124130
124370
124619
124866
125107
125349
125591
125838
126083
126326
126570
126822
127066
127312
127556
127804
128048
128288
128531
128769
129018
129256
129504
129749
129994
130233
130474
130717
130966
131209
131454
131700
131947
132194
132438
132687
132934
133179
133425
133671
133921
134166
134409
134653
134903
135152
135396
135646
135894
136139
136378
136628
136876
137116
137357
137599
137844
138085
138322
138561
138804
139042
139278
139517
139757
139997
140230
140466
140707
140946
141179
141413
141643
141878
142112
142342
142576
142811
143044
143277
143514
143754
143993
144225
144468
144711
144857
145194
145324
145678
145822
146159
146291
146626
146864
147099
147332
147564
147807
148043
148285
148523
148772
149013
149259
149502
149747
149993
150237
150484
150725
150974
151223
151467
151718
151966
152210
152455
152703
152955
153196
153441
153688
153933
154171
154411
154653
154892
155127
155363
155598
155838
156072
156304
156539
156776
157009
157247
157480
157715
157956
158196
158433
158674
158920
159159
159401
159647
159892
160138
160380
160627
160872
161117
161360
161601
161848
162090
162331
162568
162811
163057
163295
163537
163783
164028
164270
164517
164767
165018
165262
165515
165765
166015
166262
166512
166758
167017
167266
167511
167769
168025
168273
168523
168777
169026
169272
169517
169760
170021
170266
170511
170762
171007
171250
171497
171744
171993
172238
172483
172732
172988
173236
173482
173734
173986
174232
174478
174733
174982
175230
175480
175730
175984
176230
176475
176728
176980
177224
177475
177733
177982
178238
178486
178740
178994
179242
179481
179741
179991
180236
180486
180738
180984
181239
181488
181737
181989
182237
182486
182738
182990
183239
183485
183737
183989
184235
184481
184733
184983
185227
185476
185728
185979
186229
186481
186732
186985
187232
187478
187737
187994
188244
188494
188749
188999
189250
189499
189750
189998
190247
190487
190741
190994
191240
191489
191742
191996
192253
192499
192757
193007
193254
193506
193752
194002
194240
194481
194726
194968
195204
195439
195678
195916
196147
196381
196612
196853
197088
197321
197557
197796
198032
198264
198493
198729
198965
199196
199434
199670
199909
200146
200383
200623
200865
201103
201342
201584
201821
202066
202303
202541
202782
203021
203255
203489
203734
203971
204206
204444
204687
204930
205172
205411
205650
205901
206144
206387
206634
206887
207132
207378
207627
207873
208120
208370
208616
208861
209108
209354
209594
209853
210102
210344
210595
210842
211089
211340
211590
211832
212087
212333
212572
212832
213079
213324
213573
213824
214067
214318
214567
214819
215069
215314
215562
215812
216064
216309
216552
216813
217064
217314
217564
217817
218065
218317
218563
218810
219065
219310
219557
219804
220049
220291
220531
220775
221020
221259
221492
221740
221983
222221
222462
222709
222959
223206
223449
223698
223948
224189
224442
224692
224945
225192
225441
225700
225961
226215
226473
226733
226988
227252
227510
227763
228023
228283
228539
228794
229058
229311
229562
229822
230075
230322
230579
230833
231084
231337
231589
231838
232094
232338
232586
232842
233095
233338
233590
233839
234088
234333
234578
234829
235075
235320
235567
235815
236067
236314
236560
236811
237058
237302
237545
237790
238032
238267
238507
238748
238988
239222
239458
239693
239930
240163
240393
240627
240860
241092
241325
241557
241796
242035
242268
242500
242738
242973
243208
243439
243672
243910
244144
244373
244605
244841
245079
245313
245550
245784
246025
246250
246494
246729
246969
247205
247441
247673
247919
248157
248394
248630
248871
249101
249347
249584
249824
250062
250297
250532
250765
251006
251241
251477
251716
251955
252195
252418
252669
252913
253152
253394
253636
253879
254117
254362
254602
254848
255091
255327
255569
255807
256049
256291
256528
256769
257010
257250
257487
257732
257977
258215
258453
258701
258947
259187
259433
259677
259920
260162
260401
260644
260889
261132
261371
261611
261851
262096
262334
262568
262814
263059
263298
263538
263787
264034
264275
264518
264766
265012
265256
265495
265745
265995
266238
266482
266728
266983
267229
267471
267717
267959
268205
268451
268696
268946
269190
269432
269682
269928
270171
270411
270654
270898
271142
271379
271615
271846
272078
272310
272519
272768
272996
273225
273449
273678
273906
274129
274350
274573
274800
275025
275247
275467
275688
275916
276144
276373
276606
276838
277083
277315
277553
277789
278027
278260
278491
278725
278960
279191
279422
279658
279893
280131
280367
280603
280843
281076
281312
281542
281774
282007
282235
282462
282689
282928
283162
283391
283626
283858
284095
284326
284559
284798
285039
285269
285499
285733
285972
286203
286439
286670
286904
287133
287358
287586
287815
288044
288274
288502
288738
288970
289203
289433
289669
289900
290131
290360
290589
290827
291062
291291
291519
291751
291982
292211
292437
292665
292897
293133
293362
293593
293828
294055
294282
294511
294741
294975
295199
295428
295665
295897
296129
296351
296580
296805
297037
297263
297488
297715
297947
298179
298408
298636
298867
299105
299333
299560
299797
300029
300260
300489
300718
300952
301186
301417
301653
301895
302133
302372
302617
302860
303106
303349
303593
303843
304089
304334
304574
304823
305071
305315
305555
305801
306048
306295
306541
306787
307035
307281
307531
307777
308026
308278
308521
308769
309010
309258
309498
309748
309995
310238
310479
310724
310971
311213
311455
311699
311946
312192
312436
312680
312930
313168
313411
313654
313899
314138
314371
314606
314846
314990
315317
315442
315591
315780
316018
316243
316479
316709
316945
317178
317403
317638
317878
318117
318354
318585
318830
319073
319312
319544
319793
320034
320275
320509
320752
320998
321240
321476
321724
321964
322209
322442
322684
322928
323173
323413
323658
323901
324145
324388
324625
324872
325115
325353
325591
325839
326077
326318
326562
326804
327051
327293
327534
327772
328014
328261
328497
328743
328987
329230
329463
329708
329955
330196
330430
330673
330911
331149
331390
331628
331874
332120
332357
332598
332841
333079
333322
333565
333809
334052
334295
334539
334785
335030
335277
335521
335767
336013
336257
336497
336741
336988
337239
337474
337711
337961
338198
338427
338663
338897
339138
339368
339605
339849
340086
340323
340561
340805
341051
341292
341532
341771
342021
342264
342501
342750
342997
343236
343480
343721
343966
344209
344445
344693
344943
345188
345434
345682
345935
346182
346429
346677
346933
347181
347432
347677
347932
348177
348422
348658
348920
349174
349416
349659
349908
350160
350401
350649
350904
351148
351394
351641
351890
352134
352378
352620
352864
353111
353350
353596
353838
354090
354326
354571
354809
355056
355295
355533
355776
356014
356251
356483
356717
356947
357180
357403
357629
357862
358086
358314
358545
358775
359010
359246
359476
359710
359946
360180
360406
360635
360870
361101
361330
361557
361790
362021
362251
362477
362701
362935
363164
363387
363614
363850
364080
364308
364541
364771
365006
365242
365470
365706
365939
366166
366397
366618
366849
367075
367300
367522
367748
367978
368205
368427
368654
368883
369116
369341
369574
369811
370043
370282
370511
370742
370972
371204
371426
371656
371891
372121
372353
372586
372819
373063
373298
373532
373766
374008
374244
374475
374713
374950
375188
375420
375654
375888
376129
376361
376593
376827
377060
377298
377530
377763
378005
378240
378471
378710
378947
379186
379422
379656
379891
380130
380368
380604
380835
381084
381324
381557
381798
382032
382268
382505
382743
382982
383221
383457
383696
383941
384183
384414
384655
384893
385131
385367
385606
385846
386089
386325
386562
386797
387039
387275
387506
387741
387981
388215
388448
388687
388930
389174
389411
389646
389888
390130
390365
390599
390835
391077
391311
391549
391786
392025
392261
392486
392718
392952
393188
393420
393650
393881
394121
394354
394581
394822
395059
395288
395521
395751
395986
396219
396446
396678
396914
397154
397385
397617
397848
398084
398315
398548
398784
399024
399259
399497
399731
399970
400206
400438
400665
400905
401140
401370
401602
401837
402071
402310
402541
402772
403014
403251
403485
403720
403954
404194
404424
404660
404904
405145
405380
405614
405848
406091
406323
406554
406786
407018
407249
407476
407703
407932
408157
408378
408601
408824
409045
409267
409486
409703
409923
410143
410358
410569
410782
411003
411221
411433
411646
411862
412075
412296
412514
412732
412953
413175
413392
413614
413837
414062
414281
414497
414713
414942
415163
415383
415595
415827
416051
416276
416497
416715
416940
417163
417381
417597
417820
418045
418267
418488
418711
418936
419159
419386
419604
419829
420061
420282
420506
420730
420961
421185
421407
421634
421857
422084
422310
422529
422755
422980
423200
423421
423641
423862
424088
424308
424526
424746
424971
425192
425411
425629
425854
426079
426299
426532
426758
426989
427220
427445
427673
427906
428136
428366
428595
428827
429062
429295
429527
429758
429995
430225
430457
430689
430924
431158
431393
431623
431859
432098
432334
432558
432799
433040
433280
433509
433745
433989
434228
434466
434700
434940
435100
435406
435535
435669
435884
436030
436347
436468
436589
436803
437038
437264
437492
437725
437959
438189
438419
438652
438878
439118
439350
439558
439809
440040
440273
440502
440731
440966
441201
441431
441659
441890
442130
442359
442593
442825
443061
443295
443521
443755
443993
444221
444456
444684
444915
445157
445392
445625
445848
446099
446334
446564
446801
447038
447273
447504
447738
447971
448211
448445
448675
448900
449151
449381
449611
449850
449998
450321
450452
450574
450785
451023
451257
451486
451726
451958
452204
452441
452678
452920
453162
453404
453644
453891
454133
454379
454617
454861
455106
455347
455587
455823
456071
456313
456550
456793
457037
457281
457517
457763
458002
458251
458489
458727
458970
459214
459452
459689
459929
460162
460405
460642
460883
461129
461368
461605
461849
462088
462329
462569
462815
463057
463299
463540
463786
464032
464277
464514
464760
465009
465249
465491
465731
465969
466213
466456
466692
466936
467179
467415
467658
467899
468140
468375
468617
468854
469095
469336
469576
469816
470053
470299
470532
470778
471030
471268
471513
471760
472000
472251
472489
472732
472979
473227
473467
473702
473949
474189
474423
474568
474908
475039
475383
475534
475861
475993
476329
476568
476804
477045
477276
477510
477746
477980
478222
478464
478705
478949
479193
479433
479673
479926
480166
480409
480655
480897
481147
481391
481633
481877
482125
482370
482612
482856
483102
483341
483586
483831
484078
484317
484554
484795
485039
485281
485519
485760
486000
486244
486484
486728
486977
487231
487473
487713
487968
488216
488458
488702
488947
489198
489445
489688
489943
490188
490434
490680
490933
491177
491427
491668
491922
492166
492412
492662
492906
493160
493408
493651
493903
494151
494396
494646
494893
495142
495393
495633
495874
496129
496373
496608
496856
497096
497338
497583
497822
498070
498319
498554
498801
499048
499289
499532
499775
500025
500273
500515
500758
501005
501252
501495
501740
501981
502225
502468
502704
502949
503191
503427
503663
503912
504154
504394
504639
504881
505128
505370
505609
505850
506097
506334
506579
506817
507063
507308
507554
507795
508049
508296
508539
508789
509033
509285
509532
509772
510023
510270
510517
510758
511011
511268
511515
511761
512008
512157
512501
512631
512987
513128
513467
513599
513941
514077
514418
514558
514892
515026
515360
515589
515817
516051
516292
516526
516763
517017
517268
517508
517753
518008
518252
518502
518748
519001
519250
519497
519742
519997
520249
520496
520751
521005
521261
521515
521773
522030
522281
522540
522791
523053
523315
523571
523834
524095
524353
524609
524874
