peaks
75081
75281
75478
75671
75859
75988
76211
76434
76636
76844
77052
77250
77450
77657
77867
78268
78475
78677
79052
79251
79443
79818
80025
80228
80427
80799
80992
81178
81362
81544
81732
81921
82110
82294
82484
82680
82875
83064
83258
83450
83631
83806
83981
84156
84336
84509
84685
84866
85052
85236
85424
85619
85813
85999
86184
86368
86552
86734
86914
87097
87288
87478
87661
87848
88035
88218
88398
88582
88768
88959
89147
89308
89526
89726
89915
90107
90303
90498
90694
90887
91084
91283
91481
91680
91883
92090
92487
92692
92891
93018
93227
93344
93593
93817
94013
94377
94570
94942
95139
95508
95694
96052
96240
96419
96593
96947
97139
97325
97512
97702
97890
98074
98260
98449
98635
98816
98997
99179
99365
99549
99730
99909
100089
100270
100455
100640
100824
101015
101210
101406
101603
101806
102007
102215
102399
102575
102935
103127
103312
103494
103678
103866
104058
104249
104436
104628
104819
105012
105206
105405
105604
105801
105985
106165
106347
106525
106701
106873
107052
107233
107414
107593
107777
107965
108153
108339
108529
108721
108916
109110
109305
109501
109696
109890
110080
110274
110473
110667
110861
111060
111261
111460
111859
112069
112271
112471
112597
112819
112986
113217
113410
113601
113792
113980
114166
114357
114551
114741
114935
115134
115328
115515
115696
115874
116054
116230
116401
116576
116750
116931
117138
117313
117487
117855
118053
118238
118425
118614
118804
118997
119184
119369
119551
119727
119898
120246
120429
120607
120793
120982
121157
121354
121542
121729
121920
122109
122293
122483
122676
122867
123056
123245
123437
123630
123820
124008
124204
124403
124767
124950
125293
125471
125642
125820
126002
126182
126361
126544
126731
126922
127109
127297
127485
127676
127862
128042
128222
128402
128581
128757
128938
129125
129314
129497
129681
129846
130052
130242
130426
130618
130809
131004
131196
131387
131579
131770
131956
132137
132327
132518
132708
132894
133085
133282
133482
133674
133856
134040
134223
134399
134571
134918
135099
135275
135453
135641
135836
136026
136211
136403
136598
136788
136974
137167
137364
137558
137742
137926
138112
138296
138474
138654
138830
139011
139200
139362
139565
139754
140128
140321
140510
140702
140897
141089
141275
141462
141655
141848
142043
142235
142434
142636
142962
143189
143431
143636
143834
144031
144227
144421
144609
144797
144993
145199
145401
145602
145809
146018
146224
146630
146839
147034
147224
147600
147796
147990
148387
148589
148724
148953
149173
149374
149570
149765
149964
150170
150372
150488
150716
150942
151144
151342
151537
151739
151872
152080
152324
152539
152746
152943
153138
153331
153519
153699
153874
154051
154234
154415
154589
154761
155108
155292
155475
155658
155840
156025
156212
156375
156578
156764
156948
157136
157320
157491
157673
157850
158002
158190
158367
158538
158711
158890
159075
159259
159442
159632
159820
160008
160195
160384
160580
160775
160961
161143
161302
161503
161687
161867
162049
162238
162396
162596
162780
162965
163152
163338
163522
163713
163907
164104
164294
164489
164684
164880
165070
165260
165455
165646
165838
166038
166241
166436
166619
166796
167148
167329
167503
167861
168052
168421
168621
168810
168989
169165
169344
169523
169702
169882
170065
170249
170432
170612
170793
170981
171172
171359
171474
171702
171957
172131
172320
172511
172711
172910
173104
173302
173502
173702
173902
174104
174310
174515
174913
175137
175346
175546
175755
175961
176160
176346
176530
176711
176892
177071
177261
177459
177646
177829
178018
178205
178393
178591
178719
178937
179148
179330
179510
179695
179853
180047
180230
180414
180598
180783
180976
181171
181378
181620
181786
181978
182178
182377
182506
182731
182895
183131
183324
183501
183676
183849
184024
184199
184561
184752
184941
185133
185326
185517
185705
185893
186081
186269
186453
186636
186829
187026
187401
187590
187771
187949
188121
188296
188478
188665
188854
189042
189231
189430
189630
189824
190212
190415
190606
190798
190990
191185
191376
191559
191917
192099
192441
192621
192976
193165
193353
193517
193717
193899
194081
194265
194448
194633
194817
195005
195193
195376
195549
195724
195902
196083
196264
196450
196639
196801
197015
197211
197406
197604
197790
197968
198147
198328
198509
198693
198875
199065
199261
199456
199648
199775
200002
200232
200441
200639
200825
201196
201390
201574
201751
201928
202107
202290
202415
202654
202866
203256
203454
203644
203836
204025
204393
204591
204779
204963
205148
205332
205514
205689
205861
206036
206391
206571
206746
206923
207099
207276
207451
207788
207969
208143
208316
208485
208820
208995
209162
209498
209675
209848
210019
210194
210368
210548
210724
210898
211075
211202
211408
211588
211759
211932
212107
212284
212465
212654
212840
213020
213195
213363
213535
213707
214043
214223
214568
214744
214917
215088
215255
215426
215600
215942
216119
216288
216619
216793
217129
217302
217465
217633
217801
217971
218145
218326
218505
218685
218873
219063
219251
219439
219629
219812
219998
220182
220364
220550
220736
220926
221121
221318
221505
221684
221862
222035
222208
222384
222565
222741
222920
223097
223275
223461
223645
223823
224004
224188
224365
224544
224730
224921
225111
225490
225696
225893
226087
226280
226472
226658
227020
227212
227405
227603
228005
228228
228423
228797
228991
229178
229365
229735
229918
230264
230445
230620
230791
230966
231152
231342
231722
231915
232099
232285
232470
232828
233012
233366
233546
233718
233893
234071
234246
234419
234602
234788
234974
235156
235339
235527
235712
235896
236084
236269
236457
236651
236845
237000
237246
237456
237651
237848
238226
238423
238622
238825
239027
239247
239472
239686
239891
240098
240301
240504
240711
240904
241086
241264
241442
241619
241793
241983
242187
242388
242599
242811
243026
243244
243446
243652
243857
244246
244438
244800
244998
245200
245405
245645
245842
245975
246232
246401
246579
246765
247140
247335
247522
247716
247910
248109
248314
248520
248720
248921
249124
249319
249510
249712
249925
250133
250345
250562
250778
250986
251177
251540
251723
251905
252085
252267
252445
252629
252819
253015
253218
253417
253620
253818
253943
254153
254386
254591
254984
255187
255386
255582
255785
255991
256193
256393
256782
256988
257179
257562
257758
257944
258133
258329
258522
258709
258864
259078
259267
259447
259630
259815
259976
260224
260447
260577
260804
261024
261214
261396
261578
261763
261952
262136
262315
262494
262673
262854
263037
263219
263396
263568
263738
263912
264082
264255
264433
264610
264959
265157
265355
265546
265740
265937
266132
266259
266486
266727
266927
267123
267317
267443
267641
267905
268119
268316
268504
268693
268885
269073
269262
269450
269640
269843
270048
270253
270471
270689
270895
271099
271230
271458
271697
271910
272114
272311
272504
272690
272877
273068
273263
273457
273658
273868
274063
274250
274443
274639
274832
275020
275206
275380
275710
275882
276053
276388
276563
276738
277086
277266
277443
277618
277799
277980
278161
278340
278520
278697
278874
279049
279225
279400
279581
279756
279931
280111
280298
280479
280656
280836
281021
281208
281397
281588
281785
281978
282164
282350
282537
282720
282909
283110
283313
283514
283718
283916
284107
284288
284473
284651
284837
285029
285215
285404
285592
285777
285958
286144
286334
286526
286895
287093
287286
287474
287662
287831
288053
288253
288450
288653
288852
289045
289229
289413
289774
289965
290159
290351
290544
290735
290926
291316
291520
291722
291922
292124
292324
292520
292726
292936
293141
293340
293542
293744
293944
294138
294335
294733
294929
295119
295490
295683
295873
296055
296246
296442
296630
296822
297022
297222
297416
297611
297815
298199
298388
298758
298946
299128
299318
299508
299704
299895
300094
300297
300501
300702
301110
301321
301522
301726
301928
302131
302326
302527
302937
303144
303347
303552
303758
303965
304177
304390
304590
304784
304988
305195
305397
305592
305783
305974
306161
306340
306514
306691
306868
307041
307215
307419
307633
307847
308056
308250
308439
308630
308823
309011
309200
309391
309585
309777
309976
310177
310551
310751
310946
311135
311324
311517
311718
311922
312122
312332
312549
312760
312963
313175
313386
313584
313773
313962
314165
314373
314576
314777
314988
315204
315412
315622
315838
316051
316163
316456
316672
316876
317078
317277
317501
317712
318124
318345
318551
318751
318951
319339
319531
319717
319904
320097
320288
320480
320677
320877
321077
321268
321460
321651
321838
322029
322234
322437
322629
322825
323029
323233
323433
323630
323828
324029
324228
324560
324784
324977
325163
325342
325712
325921
326115
326307
326495
326680
327033
327213
327389
327568
327756
327948
328153
328349
328529
328706
328884
329061
329237
329408
329580
329753
330099
330284
330463
330640
330817
330996
331174
331353
331538
331719
331894
332065
332242
332419
332600
332786
332977
333177
333381
333579
333780
333982
334176
334365
334736
334934
335127
335316
335508
335711
335917
336123
336326
336534
336748
336955
337115
337347
337550
337753
337958
338157
338357
338562
338772
338984
339204
339424
339637
339849
340068
340287
340497
340695
340905
341115
341319
341517
341925
342132
342340
342547
342748
342952
343165
343376
343578
343975
344181
344376
344570
344767
344969
345167
345373
345581
345784
345983
346181
346385
346591
346725
346957
347213
347433
347633
347827
348016
348199
348565
348761
349128
349322
349510
349690
349875
350067
350254
350436
350621
350810
351011
351215
351593
351792
351983
352170
352357
352513
352739
352946
353148
353354
353704
353925
354120
354498
354694
354889
355299
355506
355704
355906
356108
356306
356509
356718
356929
357136
357352
357573
357780
357978
358371
358568
358759
358951
359136
359316
359490
359664
359852
360047
360236
360425
360621
360817
361009
361205
361406
361607
361800
361996
362199
362590
362806
363015
363216
363412
363799
363996
364192
364586
364790
364994
365208
365423
365636
365850
366081
366306
366515
366724
366940
367148
367347
367741
367953
368158
368401
368583
368789
368999
369217
369437
369649
369864
370083
370304
370515
370729
370951
371162
371371
371585
372004
372203
372564
372742
372911
373087
373264
373443
373622
373812
374007
374198
374388
374581
374773
374962
375153
375344
375534
375716
375897
376081
376264
376444
376807
377004
377195
377555
377745
377926
378105
378288
378476
378668
378859
379013
379258
379474
379678
380079
380283
380475
380873
381078
381276
381470
381671
381875
382125
382323
382733
382958
383172
383378
383575
383772
383971
384165
384543
384750
384940
385303
385491
385665
386006
386190
386374
386528
386735
386926
387116
387317
387518
387711
387898
388087
388277
388458
388634
388811
389162
389347
389529
389713
389901
390093
390288
390489
390686
390882
391085
391293
391494
391693
392087
392287
392484
392892
393094
393290
393695
393898
394095
394305
394521
394720
394916
395117
395316
395508
395707
395909
396110
396514
396732
396928
397113
397295
397481
397662
397846
398042
398246
398442
398628
398808
398987
399161
399334
399505
399691
399883
400080
400271
400466
400663
400861
401051
401233
401420
401606
401793
401981
402172
402366
402562
402934
403135
403334
403528
403726
403933
404147
404351
404545
404741
404942
405140
405536
405747
405952
406161
406371
406576
406776
406972
407178
407387
407590
407790
408001
408221
408426
408621
408988
409176
409355
409536
409723
409911
410111
410326
410531
410718
410899
411075
411252
411431
411780
411971
412161
412351
412532
412707
412884
413063
413240
413418
413599
413774
413948
414123
414302
414664
414864
415058
415244
415429
415615
415801
415983
416159
416335
416519
416710
416910
417105
417306
417515
417721
417922
418247
418460
418709
418939
419160
419377
419504
419785
419993
420189
420384
420537
420771
420975
421185
421401
421596
421785
422156
422349
422532
422718
422902
423086
423268
423452
423635
423813
423991
424352
424541
424724
424909
425096
425281
425465
425656
425854
426051
426441
426650
426855
427050
427247
427645
427847
428047
428247
428443
428642
428837
429043
429259
429466
429669
429875
430088
430304
430518
430676
430895
431144
431368
431598
431819
431950
432185
432460
432701
432908
433095
433275
433447
433616
433787
433957
434130
434310
434490
434670
434858
435050
435236
435415
435772
435960
436143
436328
436517
436710
436901
437097
437252
437494
437705
437909
438114
438519
438693
438911
439112
439301
439483
439667
439858
440056
440251
440448
440653
440855
441051
441249
441452
441657
441860
442062
442301
442492
442699
442903
443115
443328
443530
443725
443923
444311
444503
444684
444865
445044
445224
445410
445597
445785
445970
446158
446355
446554
446747
446933
447119
447302
447480
447843
448031
448225
448601
448794
448981
449162
449512
449696
449877
450065
450447
450664
450875
451080
451271
451456
451644
451828
452005
452183
452544
452731
452921
453117
453309
453498
453692
453831
454087
454293
454488
454680
454863
455040
455218
455402
455589
455782
455979
456178
456381
456576
456764
456952
457143
457339
457535
457730
457932
458139
458348
458549
458955
459160
459351
459538
459733
459935
460137
460536
460751
460954
461155
461357
461557
461947
462156
462358
462559
462764
462970
463174
463586
463805
463941
464168
464423
464640
464845
465053
465450
465658
465868
466073
466284
466498
466707
466909
467116
467332
467528
467714
467900
468049
468266
468466
468666
468858
469047
469246
469450
469645
469832
470024
470221
470414
470613
470826
471028
471217
471402
471589
471780
471973
472165
472361
472563
472765
472961
473161
473360
473555
473742
473929
474122
474314
474494
474678
475078
475283
475483
475682
475881
476079
476282
476489
476691
476895
477102
477306
477504
477634
477869
478123
478340
478553
478796
478985
479178
479382
479594
479978
480169
480351
480533
480712
480888
481073
481264
481455
481648
481849
482055
482449
482650
482847
483044
483233
483418
483603
483789
483975
484159
484274
484554
484766
484968
485171
485370
485558
485743
485936
486139
486341
486538
486738
486947
487151
487348
487552
487762
487969
488174
488544
488786
488993
489200
489408
489610
489822
490046
490180
490410
490640
490882
491117
491327
491532
491654
491882
492128
492348
492563
492773
492983
493203
493417
493615
494019
494223
494425
494627
494817
495000
495181
495366
495551
495731
495906
496083
496277
496477
496671
496860
497049
497240
497429
497609
497794
497981
498168
498358
498556
498760
498961
499158
499350
499547
499750
499943
500137
500335
500542
500745
500944
501146
501348
501544
501736
501937
502142
502338
502526
502709
502843
503063
503252
503440
503637
503835
504034
504237
504441
504640
504834
505025
505213
505401
505590
505787
505989
506387
506602
506812
507016
507212
507604
507810
508010
508218
508428
508638
508846
509057
509273
509489
509698
509908
510121
510325
510521
510731
510949
511159
511365
511767
511966
512160
512361
512566
512765
513169
513376
513575
513769
513960
514149
514330
514513
514703
514895
515084
515236
515460
515621
515837
516030
516222
516416
516603
516785
516980
517185
517394
517597
517795
518004
518219
518424
518620
518811
518997
519185
519378
519569
519764
519957
520108
520354
520571
520765
520958
521152
521341
521522
521699
521877
522263
522474
522681
522891
523095
523299
523505
523713
523921
524124
524526
524735
524939
