peaks
75025
75214
75402
75591
75777
75971
76160
76352
76539
76730
76923
77112
77301
77493
77676
77871
78063
78250
78438
78629
78817
79006
79197
79385
79575
79763
79957
80146
80338
80526
80716
80906
81095
81283
81474
81664
81854
82046
82236
82426
82619
82809
82999
83189
83378
83566
83756
83945
84133
84323
84512
84701
84893
85083
85272
85464
85654
85843
86033
86223
86411
86601
86786
86979
87168
87352
87544
87733
87923
88110
88298
88489
88675
88863
89055
89241
89429
89621
89804
89997
90188
90377
90565
90757
90947
91134
91325
91513
91699
91891
92079
92265
92456
92645
92827
93023
93213
93399
93589
93779
93965
94154
94343
94529
94717
94908
95089
95280
95470
95656
95844
96035
96221
96408
96598
96784
96972
97162
97346
97534
97724
97910
98097
98287
98473
98661
98852
99040
99227
99416
99603
99791
99980
100169
100358
100547
100738
100928
101118
101308
101496
101688
101878
102067
102255
102445
102632
102821
103010
103198
103382
103576
103765
103951
104146
104334
104524
104714
104902
105091
105280
105467
105658
105847
106032
106227
106417
106607
106799
106990
107180
107370
107560
107748
107938
108128
108316
108505
108694
108884
109073
109264
109454
109645
109837
110026
110215
110406
110592
110780
110972
111159
111347
111538
111727
111916
112109
112293
112485
112677
112866
113052
113242
113430
113616
113806
113995
114181
114371
114560
114747
114939
115129
115315
115505
115696
115883
116074
116267
116455
116646
116840
117030
117220
117412
117600
117790
117982
118170
118356
118547
118735
118922
119113
119299
119485
119676
119864
120051
120243
120432
120621
120815
121005
121193
121385
121568
121762
121954
122143
122329
122521
122711
122899
123091
123279
123466
123657
123841
124032
124222
124410
124597
124788
124976
125163
125355
125546
125727
125925
126114
126296
126490
126679
126859
127053
127242
127423
127616
127806
127992
128182
128372
128558
128748
128939
129124
129313
129500
129690
129879
130064
130255
130442
130632
130819
131008
131196
131384
131572
131760
131948
132135
132324
132511
132699
132889
133077
133265
133457
133644
133834
134025
134212
134400
134590
134778
134965
135155
135339
135530
135719
135909
136095
136286
136476
136663
136854
137045
137231
137419
137611
137797
137987
138177
138363
138552
138744
138928
139122
139314
139502
139692
139884
140072
140259
140450
140639
140826
141018
141206
141392
141585
141775
141963
142153
142341
142529
142719
142908
143095
143283
143471
143659
143847
144037
144225
144414
144604
144792
144982
145171
145358
145547
145737
145925
146113
146303
146491
146680
146872
147055
147248
147439
147628
147817
148008
148196
148383
148574
148762
148949
149140
149328
149516
149707
149896
150079
150274
150462
150650
150840
151028
151216
151406
151595
151783
151970
152163
152353
152546
152736
152926
153114
153305
153494
153685
153869
154062
154254
154441
154631
154824
155013
155203
155396
155585
155772
155970
156154
156347
156539
156728
156916
157108
157293
157485
157678
157865
158055
158251
158440
158628
158821
159012
159198
159389
159580
159767
159959
160150
160338
160529
160722
160910
161100
161290
161477
161666
161858
162045
162233
162423
162611
162800
162992
163180
163369
163561
163745
163938
164130
164312
164500
164696
164884
165071
165262
165449
165637
165829
166013
166204
166395
166577
166769
166960
167148
167333
167523
167711
167897
168087
168275
168457
168651
168841
169029
169219
169408
169595
169785
169975
170158
170351
170541
170729
170919
171110
171298
171488
171680
171869
172058
172250
172436
172625
172817
172999
173193
173384
173571
173760
173953
174136
174330
174522
174705
174899
175091
175278
175464
175655
175843
176029
176220
176407
176595
176786
176975
177162
177352
177539
177725
177916
178103
178289
178479
178667
178852
179043
179232
179418
179609
179799
179986
180176
180365
180551
180742
180932
181118
181308
181493
181684
181875
182066
182254
182442
182635
182824
183013
183204
183392
183580
183772
183961
184153
184350
184545
184740
184938
185131
185322
185516
185706
185897
186089
186277
186467
186659
186847
187036
187227
187413
187603
187794
187982
188169
188359
188546
188727
188922
189109
189295
189484
189671
189858
190042
190235
190422
190609
190798
190985
191173
191362
191549
191738
191928
192116
192304
192494
192683
192873
193065
193254
193443
193635
193823
194013
194204
194392
194581
194773
194962
195152
195344
195533
195723
195916
196105
196293
196484
196673
196861
197053
197241
197429
197621
197810
198001
198193
198382
198569
198761
198955
199146
199337
199526
199712
199910
200099
200288
200479
200668
200854
201049
201238
201428
201621
201809
201998
202190
202378
202567
202759
202947
203136
203324
203513
203707
203900
204089
204276
204468
204657
204844
205034
205217
205408
205600
205784
205970
206166
206352
206544
206735
206925
207108
207303
207492
207680
207869
208060
208247
208435
208626
208815
209003
209194
209381
209569
209760
209947
210129
210323
210509
210697
210886
211072
211260
211450
211636
211825
212017
212204
212393
212584
212772
212962
213153
213340
213524
213720
213908
214095
214198
214479
214666
214859
215043
215233
215423
215612
215798
215989
216178
216358
216553
216744
216934
217125
217317
217507
217699
217891
218081
218270
218462
218644
218842
219034
219222
219412
219604
219793
219983
220174
220363
220551
220743
220932
221116
221312
221501
221691
221885
222075
222266
222458
222649
222842
223033
223223
223413
223603
223794
223984
224174
224362
224553
224737
224932
225122
225314
225501
225691
225884
226072
226258
226450
226637
226825
227016
227204
227385
227581
227771
227958
228149
228338
228526
228715
228904
229091
229280
229467
229655
229844
230033
230221
230410
230600
230790
230979
231169
231357
231541
231736
231924
232113
232301
232488
232677
232867
233056
233240
233434
233622
233808
234004
234194
234379
234575
234764
234949
235145
235333
235521
235713
235902
236088
236282
236470
236659
236848
237036
237224
237413
237602
237792
237982
238172
238361
238547
238741
238930
239121
239310
239497
239687
239877
240063
240246
240438
240626
240815
241004
241193
241384
241575
241767
241959
242147
242336
242528
242717
242906
243096
243285
243473
243664
243854
244044
244234
244424
244611
244802
244987
245177
245366
245552
245743
245933
246124
246311
246502
246695
246883
247074
247266
247454
247644
247837
248024
248213
248405
248594
248783
248976
249165
249349
249548
249737
249926
250117
250306
250494
250685
250874
251062
251254
251442
251632
251825
252015
252205
252398
252586
252776
252969
253157
253345
253536
253723
253912
254102
254288
254475
254666
254856
255042
255233
255422
255608
255798
255982
256171
256359
256548
256729
256924
257114
257299
257490
257677
257868
258058
258249
258435
258624
258815
259002
259189
259379
259566
259754
259947
260135
260322
260514
260704
260891
261082
261270
261457
261648
261837
262021
262214
262403
262591
262782
262972
263159
263350
263540
263729
263920
264110
264302
264495
264686
264878
265072
265261
265453
265647
265837
266027
266220
266410
266598
266789
266979
267166
267357
267547
267730
267926
268117
268305
268495
268686
268869
269065
269255
269444
269541
269830
270016
270211
270401
270591
270782
270973
271162
271353
271544
271733
271923
272114
272301
272491
272683
272866
273061
273443
273635
273829
274019
274209
274402
274591
274781
274972
275161
275350
275539
275728
275918
276109
276298
276488
276677
276870
277060
277252
277439
277628
277820
278008
278195
278387
278576
278764
278957
279147
279335
279527
279718
279905
280097
280285
280471
280662
280851
281038
281228
281414
281605
281798
281988
282174
282367
282552
282743
282934
283124
283309
283500
283690
283871
284066
284256
284438
284632
284823
285010
285197
285387
285573
285756
285949
286136
286323
286511
286699
286888
287078
287267
287457
287648
287838
288029
288221
288409
288599
288792
288981
289171
289364
289546
289742
289935
290123
290313
290506
290694
290884
291076
291263
291452
291644
291831
292020
292212
292399
292588
292779
292968
293156
293347
293534
293722
293912
294099
294286
294476
294665
294854
295045
295234
295423
295614
295803
295992
296181
296369
296558
296748
296938
297124
297314
297500
297692
297882
298072
298259
298448
298639
298825
299008
299202
299386
299573
299759
299944
300136
300327
300514
300702
300894
301081
301266
301456
301643
301828
302016
302203
302389
302578
302768
302958
303149
303341
303532
303723
303916
304106
304296
304487
304677
304868
305050
305246
305437
305626
305816
306007
306198
306385
306577
306768
306955
307146
307336
307524
307715
307907
308095
308285
308476
308665
308856
309043
309235
309425
309615
309803
309992
310183
310364
310557
310749
310936
311124
311315
311502
311690
311882
312071
312258
312450
312637
312825
313018
313201
313393
313585
313770
313964
314156
314342
314533
314726
314916
315103
315293
315483
315670
315863
316052
316239
316429
316619
316802
316998
317188
317374
317564
317755
317941
318131
318320
318505
318695
318885
319071
319260
319451
319637
319827
320017
320202
320390
320578
320749
320952
321139
321326
321513
321702
321890
322076
322266
322454
322640
322831
323019
323204
323395
323583
323770
323961
324149
324334
324526
324716
324903
325094
325283
325464
325660
325849
326029
326219
326413
326594
326788
326978
327164
327353
327544
327732
327921
328112
328300
328488
328680
328868
329051
329247
329435
329623
329814
330002
330191
330381
330569
330758
330948
331137
331324
331509
331703
331891
332080
332269
332457
332647
332836
333025
333214
333402
333592
333782
333971
334160
334347
334536
334724
334913
335102
335289
335473
335668
335857
336041
336236
336424
336612
336803
336987
337178
337369
337556
337744
337936
338124
338313
338506
338695
338884
339077
339265
339453
339646
339834
340022
340214
340402
340591
340783
340971
341159
341350
341537
341726
341917
342104
342291
342483
342670
342857
343048
343235
343422
343615
343805
343994
344187
344376
344564
344756
344945
345128
345323
345512
345701
345891
346081
346270
346459
346649
346838
347022
347217
347404
347589
347782
347970
348154
348346
348533
348723
348912
349100
349289
349477
349665
349854
350042
350229
350417
350600
350792
350981
351166
351355
351544
351735
351922
352109
352298
352484
352671
352861
353047
353234
353422
353609
353794
353985
354169
354361
354553
354739
354931
355118
355311
355499
355690
355879
356066
356256
356441
356632
356824
357014
357202
357393
357584
357773
357964
358155
358340
358531
358721
358908
359098
359288
359475
359667
359858
360045
360235
360426
360613
360803
360994
361179
361368
361558
361743
361933
362124
362309
362498
362691
362878
363067
363259
363444
363633
363824
364010
364197
364388
364570
364763
364956
365145
365332
365523
365709
365899
366091
366279
366465
366655
366844
367025
367219
367408
367595
367784
367975
368163
368351
368543
368732
368916
369112
369298
369486
369676
369863
370051
370239
370427
370616
370806
370995
371181
371374
371563
371748
371942
372130
372319
372509
372698
372888
373078
373267
373456
373648
373836
374026
374216
374403
374591
374783
374969
375155
375345
375534
375720
375912
376101
376289
376479
376670
376851
377236
377418
377613
377804
377992
378183
378373
378563
378749
378945
379133
379322
379512
379695
379887
380077
380264
380452
380642
380830
381019
381210
381397
381586
381779
381961
382155
382346
382533
382721
382913
383095
383288
383480
383669
383858
384051
384235
384428
384620
384809
384990
385185
385373
385553
385750
385938
386121
386314
386502
386690
386879
387068
387254
387443
387631
387818
388007
388194
388382
388573
388762
388950
389140
389329
389518
389710
389899
390088
390276
390459
390650
390838
391020
391212
391399
391582
391774
391964
392153
392340
392529
392720
392907
393095
393285
393471
393660
393851
394037
394224
394410
394601
394790
394981
395168
395356
395547
395735
395923
396114
396302
396489
396680
396870
397056
397246
397436
397624
397817
398008
398195
398385
398575
398761
398950
399139
399325
399514
399704
399890
400080
400270
400457
400647
400838
401025
401215
401405
401592
401781
401972
402158
402346
402536
402722
402911
403102
403287
403474
403659
403849
404035
404223
404409
404595
404778
404969
405156
405343
405531
405718
405906
406095
406280
406468
406653
406841
407033
407222
407407
407975
408166
408352
408541
408739
408930
409123
409318
409509
409709
409907
410105
410302
410504
410699
410906
411111
411312
411515
411719
411921
412124
412326
412528
412727
412928
413122
413314
413510
413696
413892
414085
414272
414464
414656
414843
415032
415223
415410
415598
415783
415975
416163
416351
416540
416728
416917
417106
417292
417481
417669
417854
418044
418232
418412
418608
418798
418984
419176
419366
419552
419744
419934
420119
420308
420497
420682
420872
421061
421245
421434
421626
421813
422004
422196
422381
422571
422762
422949
423138
423322
423515
423705
423890
424083
424271
424456
424649
424839
425025
425216
425404
425596
425777
425970
426161
426348
426530
426727
426915
427101
427293
427477
427669
427860
428048
428228
428422
428611
428796
428984
429172
429358
429546
429737
429920
430112
430302
430488
430677
430868
431054
431236
431431
431619
431806
431997
432180
432371
432564
432754
432941
433133
433321
433504
433700
433888
434075
434266
434456
434645
434836
435026
435217
435408
435598
435788
435973
436167
436355
436542
436735
436925
437117
437305
437494
437686
437869
438063
438255
438441
438630
438822
439009
439197
439387
439574
439763
439954
440141
440329
440519
440710
440900
441090
441279
441468
441657
441848
442036
442220
442414
442602
442791
442979
443167
443356
443544
443732
443921
444110
444297
444484
444674
444863
445051
445240
445428
445617
445807
445996
446184
446373
446562
446751
446940
447128
447314
447502
447691
447879
448068
448257
448440
448635
448826
449015
449205
449395
449584
449768
449963
450151
450338
450529
450719
450908
451099
451288
451473
451669
451858
452044
452238
452426
452615
452804
452992
453175
453369
453557
453748
453934
454126
454316
454507
454691
454884
455077
455264
455453
455646
455834
456023
456215
456400
456592
456787
456978
457166
457360
457549
457738
457931
458121
458307
458500
458690
458878
459071
459259
459446
459637
459828
460013
460207
460397
460585
460775
460966
461154
461344
461534
461724
461914
462105
462293
462477
462672
462862
463053
463241
463429
463615
463808
463997
464183
464376
464565
464758
464950
465138
465330
465522
465710
465903
466087
466280
466471
466662
466849
467040
467231
467417
467608
467800
467982
468175
468367
468547
468742
468933
469118
469308
469499
469686
469876
470066
470253
470443
470635
470823
471012
471205
471387
471581
471768
471955
472149
472341
472529
472716
472910
473100
473283
473479
473669
473856
474048
474236
474423
474614
474804
474991
475183
475373
475561
475756
475948
476138
476330
476521
476710
476900
477091
477281
477469
477661
477851
478040
478232
478417
478612
478805
478995
479184
479375
479564
479753
479945
480134
480323
480516
480707
480898
481092
481281
481464
481662
481852
482039
482231
482420
482608
482800
482985
483171
483368
483558
483747
483942
484127
484322
484517
484708
484897
485090
485279
485462
485662
485852
486036
486235
486426
486616
486810
487000
487184
487381
487570
487760
487951
488140
488324
488515
488710
488900
489092
489282
489468
489664
489855
490045
490236
490426
490615
490806
490997
491187
491378
491569
491762
491954
492146
492332
492527
492718
492908
493098
493287
493476
493662
493857
494046
494232
494426
494617
494809
495000
495189
495376
495571
495761
495948
496141
496331
496523
496712
496903
497095
497279
497474
497667
497852
498047
498239
498423
498619
498813
499001
499194
499387
499581
499771
499965
500155
500344
500541
500735
500919
501116
501309
501498
501690
501884
502071
502267
502462
502650
502842
503042
503234
503420
503619
503810
504000
504193
504384
504570
504769
504961
505150
505349
505542
505731
505929
506120
506311
506501
506691
506881
507071
507260
507451
507642
507832
508024
508211
508405
508597
508785
508978
509169
509357
509550
509742
509932
510121
510319
510514
510707
510905
511104
511295
511490
511686
511872
512071
512266
512457
512651
512849
513042
513235
513430
513619
513816
514010
514195
514386
514583
514775
514962
515158
515348
515541
515733
515925
516113
516308
516498
516690
516881
517070
517260
517449
517638
517826
518021
518210
518401
518588
518783
518970
519164
519355
519545
519730
519925
520116
520301
520495
520688
520879
521070
521261
521447
521643
521834
522020
522215
522406
522595
522789
522980
523173
523363
523554
523741
523938
524129
524322
524511
524702
524894
