peaks
75220
75467
75724
75866
76237
76498
76748
76978
77214
77445
77688
77938
78173
78446
78691
78832
79187
79438
79686
79932
80180
80428
80679
80820
81170
81423
81669
81911
82155
82298
82637
82904
83151
83293
83637
83883
84127
84375
84517
84851
85112
85359
85603
85744
86068
86344
86484
86831
87079
87326
87472
87806
88050
88293
88441
88775
89021
89267
89510
89748
89997
90240
90485
90728
90876
91212
91455
91705
91955
92195
92338
92667
92896
93177
93419
93660
93906
94155
94399
94646
94891
95134
95381
95618
95857
96105
96353
96591
96837
97086
97333
97577
97814
97964
98272
98507
98736
99032
99171
99524
99777
100024
100169
100516
100768
101016
101267
101408
101756
102009
102237
102494
102733
102997
103238
103462
103726
103974
104222
104369
104722
104967
105200
105449
105719
105869
106209
106465
106706
106850
107194
107446
107693
107940
108185
108433
108579
108922
109171
109412
109655
109899
110150
110400
110655
110906
111049
111402
111655
111903
112145
112397
112645
112892
113039
113383
113634
113882
114127
114374
114619
114867
115112
115360
115606
115855
116102
116355
116608
116863
117110
117356
117602
117853
118104
118353
118609
118864
119112
119359
119604
119846
119999
120343
120596
120844
120992
121328
121593
121847
122094
122332
122573
122831
123081
123226
123573
123827
124087
124314
124580
124827
125083
125317
125586
125828
126061
126300
126558
126814
127065
127208
127549
127794
128040
128283
128528
128771
129014
129162
129511
129763
130010
130255
130498
130743
130989
131235
131478
131725
131971
132216
132463
132693
132968
133209
133451
133603
133942
134192
134445
134591
134940
135198
135443
135690
135841
136187
136439
136690
136867
137183
137429
137688
137931
138172
138316
138671
138931
139184
139329
139669
139923
140174
140429
140675
140923
141173
141426
141682
141929
142070
142409
142657
142911
143165
143303
143653
143888
144142
144398
144648
144902
145158
145409
145658
145799
146146
146402
146658
146807
147148
147394
147650
147909
148163
148413
148554
148907
149161
149410
149658
149800
150149
150405
150653
150902
151152
151394
151638
151890
152032
152383
152623
152868
153122
153379
153632
153831
154113
154364
154617
154865
155014
155359
155609
155857
156102
156348
156593
156842
157088
157336
157583
157832
158079
158324
158575
158824
159072
159316
159567
159816
160064
160319
160573
160826
161072
161322
161569
161822
162071
162321
162565
162812
163067
163320
163566
163801
164034
164281
164537
164788
165038
165286
165540
165792
166042
166288
166540
166786
167027
167276
167528
167770
168015
168265
168520
168773
169027
169278
169540
169790
170046
170301
170552
170811
171065
171320
171577
171829
172080
172326
172579
172822
173072
173323
173572
173819
174065
174319
174568
174818
175068
175319
175567
175814
176061
176312
176559
176806
177054
177305
177553
177803
177965
178295
178541
178790
179040
179288
179539
179791
180040
180289
180540
180793
181041
181293
181547
181800
182053
182307
182562
182812
183065
183319
183571
183821
184072
184322
184572
184818
185071
185324
185574
185828
186079
186332
186483
186824
187074
187324
187564
187809
188060
188311
188560
188810
189057
189306
189800
190057
190309
190454
190812
191082
191340
191590
191838
192088
192232
192595
192846
193105
193255
193613
193871
194121
194373
194617
194759
195111
195371
195625
195772
196128
196389
196642
196891
197035
197391
197644
197898
198045
198401
198904
199164
199414
199553
199915
200171
200422
200670
200919
201167
201419
201672
201916
202060
202417
202663
202912
203062
203415
203924
204181
204428
204675
204923
205173
205419
205666
205803
206161
206668
206924
207172
207420
207668
207917
208165
208306
208659
209165
209420
209668
209916
210160
210416
210670
210810
211169
211678
211934
212182
212440
212688
212930
213084
213439
213701
213950
214197
214338
214702
214962
215216
215359
215719
215979
216230
216472
216620
216982
217231
217481
217738
217997
218147
218503
218760
218962
219152
219361
219534
219739
219945
220194
220636
220898
221168
221309
221692
221955
222204
222458
222718
222967
223109
223473
223732
223983
224236
224379
224729
224987
225240
225489
225629
225993
226250
226504
226656
227005
227265
227509
227763
227907
228265
228520
228765
229021
229272
229519
229767
230015
230155
230513
231014
231270
231522
231671
232015
232518
232772
233021
233165
233466
233995
234246
234488
234742
234987
235126
235478
235984
236237
236487
236733
236987
237233
237376
237734
238233
238487
238738
238995
239244
239500
239744
239884
240236
240491
240741
240885
241237
241748
242007
242261
242510
242758
243008
243257
243504
243755
244008
244254
244502
244643
245001
245256
245511
245657
245995
246205
246505
246751
246999
247253
247502
247641
248009
248270
248523
248778
249030
249281
249537
249679
250053
250288
250575
250829
251080
251328
251471
251846
252106
252354
252601
252852
253098
253339
253482
253839
254098
254348
254598
254737
255096
255344
255600
255741
256102
256360
256614
256755
257103
257356
257613
257753
258107
258359
258609
258754
259109
259356
259604
259749
260108
260365
260616
260869
261114
261366
261613
261752
262099
262360
262611
262756
263098
263360
263619
263758
264108
264368
264626
264765
265127
265378
265624
265775
266132
266389
266642
266787
267143
267660
267914
268159
268406
268655
268903
269149
269289
269648
269910
270165
270416
270662
270907
271048
271399
271666
271809
272173
272429
272681
272829
273174
273424
273675
273816
274170
274683
274941
275189
275440
275690
275940
276187
276434
276681
276927
277066
277400
277681
277820
278182
278659
278945
279195
279438
279692
279836
280182
280423
280662
280808
281119
281420
281555
281916
282167
282418
282560
282923
283167
283419
283675
283927
284172
284307
284600
284866
285095
285400
285645
285889
286138
286279
286584
286885
287138
287391
287532
287887
288147
288405
288549
288904
289155
289403
289550
289890
290149
290397
290643
290892
291136
291278
291598
291832
292116
292366
292613
292858
293104
293337
293591
293845
293986
294331
294566
294840
295088
295334
295580
295827
296068
296317
296561
296806
297053
297298
297545
297799
298043
298288
298438
298743
299037
299183
299531
299788
300019
300312
300552
300799
301050
301194
301577
301817
301966
302325
302582
302818
303101
303329
303554
303723
304035
304288
304532
304777
305033
305176
305501
305798
305942
306311
306784
307071
307319
307565
307710
308029
308318
308561
308709
309047
309283
309516
309697
310023
310277
310533
310676
310998
311282
311417
311723
312118
312381
312530
312867
313106
313246
313570
313863
314093
314239
314593
314836
315102
315240
315599
316081
316357
316606
316853
316996
317342
317839
318092
318340
318584
318825
318972
319279
319562
319707
320063
320516
320802
321029
321288
321539
321676
321995
322286
322421
322786
323241
323529
323785
324035
324171
324489
324764
324899
325258
325694
326001
326244
326498
326637
326953
327237
327486
327736
327878
328192
328478
328613
328967
329414
329716
329968
330214
330452
330710
330957
331097
331452
331711
331917
332162
332454
332593
332949
333209
333462
333714
333960
334107
334457
334690
334924
335071
335444
335679
335823
336174
336413
336679
336932
337070
337430
337681
337938
338079
338415
338703
338838
339165
339460
339593
339953
340457
340707
340958
341205
341451
341697
341942
342078
342388
342686
342823
343176
343620
343836
344051
344206
344478
344691
345053
345303
345536
345755
346044
346267
346534
346780
346923
347237
347509
347653
348009
348229
348450
348663
348988
349233
349374
349686
349863
350209
350462
350703
350846
351149
351450
351700
351947
352197
352334
352708
352965
353201
353432
353651
353949
354197
354445
354682
354925
355159
355421
355674
355927
356175
356422
356571
356925
357171
357436
357578
357910
358185
358339
358685
358941
359170
359442
359693
359836
360160
360433
360583
360929
361186
361442
361688
361829
362188
362426
362569
362882
363175
363313
363672
363866
364121
364408
364638
364897
365143
365283
365592
365885
366021
366380
366606
366880
367129
367268
367617
367853
368081
368363
368503
368840
369086
369223
369529
369830
369961
370316
370757
371059
371309
371553
371799
372022
372290
372536
372678
373012
373275
373518
373663
374010
374256
374510
374655
374989
375258
375399
375754
376258
376509
376761
377012
377259
377505
377759
377897
378213
378502
378639
379000
379452
379752
380001
380245
380395
380697
380931
381231
381477
381724
381880
382188
382414
382557
382842
383170
383420
383665
383816
384125
384354
384592
384828
384975
385267
385493
385669
386013
386264
386515
386736
386979
387253
387402
387749
388003
388141
388460
388755
388893
389252
389477
389753
390004
390254
390401
390719
390988
391133
391484
391740
391972
392236
392476
392734
392878
393202
393480
393622
393985
394232
394461
394735
394981
395123
395479
395734
395981
396232
396489
396631
396960
397192
397442
397731
397869
398230
398475
398704
398925
399081
399451
399699
399947
400197
400341
400653
400942
401077
401439
401899
402191
402436
402681
402928
403175
403426
403658
403880
404053
404398
404649
404899
405148
405391
405644
405791
406113
406344
406631
406878
407127
407375
407597
407839
408120
408270
408613
408865
409108
409259
409566
409856
409995
410276
410617
410868
411117
411365
411614
411864
412009
412356
412609
412853
412996
413316
413611
413747
414125
414594
414875
415125
415376
415626
415872
416017
416370
416616
416873
417019
417356
417627
417779
418129
418381
418633
418881
419022
419376
419624
419880
420131
420271
420624
420871
421133
421274
421615
421888
422028
422392
422648
422898
423153
423402
423653
423901
424041
424395
424635
424896
425039
425373
425603
425885
426134
426376
426628
426767
427118
427375
427624
427869
428013
428360
428611
428864
429110
429256
429604
429856
430103
430346
430492
430844
431098
431347
431593
431740
432084
432323
432581
432726
433061
433330
433579
433719
434074
434306
434502
434818
435026
435299
435548
435797
435946
436271
436501
436741
436980
437264
437513
437762
437910
438251
438504
438746
438890
439250
439506
439757
439898
440245
440499
440750
440901
441257
441514
441765
442013
442151
442494
442739
443003
443146
443508
443755
444017
444157
444494
444775
444909
445271
445526
445777
445923
446268
446522
446769
447016
447156
447511
447749
447892
448208
448504
448638
449000
449477
449753
450001
450253
450393
450743
451245
451497
451749
451893
452246
452750
452992
453246
453495
453741
453888
454220
454487
454627
454983
455480
455734
455976
456120
456468
456968
457220
457459
457605
457953
458438
458700
458948
459193
459434
459679
459925
460164
460309
460646
460911
461160
461408
461656
461905
462046
462363
462587
462821
463048
463360
463598
463831
464087
464335
464546
464796
465029
465203
465546
465796
466049
466294
466536
466788
466932
467265
467539
467694
468046
468300
468441
468801
469058
469310
469558
469699
470061
470319
470569
470816
470955
471314
471568
471821
472066
472206
472531
472806
472947
473304
473559
473812
473958
474309
474560
474810
475057
475203
475551
475804
476048
476298
476441
476791
477037
477280
477513
477789
478037
478184
478529
478781
479029
479275
479416
479766
480014
480267
480518
480656
481011
481263
481512
481761
481902
482254
482506
482757
483004
483252
483500
483645
483995
484247
484494
484734
484967
485236
485486
485738
485990
486130
486471
486722
486973
487225
487478
487740
487988
488129
488482
488726
488964
489236
489382
489723
489979
490226
490368
490723
490980
491233
491483
491623
491959
492232
492374
492733
492983
493234
493376
493730
493987
494245
494386
494746
495001
495247
495492
495637
495983
496227
496478
496625
496958
497226
497370
497727
497978
498228
498371
498692
498975
499225
499474
499722
499861
500215
500467
500711
500865
501207
501459
501710
501855
502202
502447
502704
502843
503177
503442
503585
503941
504197
504443
504687
504825
505179
505431
505679
505825
506147
506404
506647
506915
507053
507404
507652
507898
508040
508373
508606
508877
509123
509263
509613
509865
510121
510372
510618
510866
511004
511331
511511
511847
512101
512354
512498
512865
513121
513377
513633
513888
514034
514391
514652
514899
515039
515409
515664
515915
516169
516412
516552
516914
517170
517424
517567
517888
518173
518426
518675
518926
519177
519431
519686
519841
520188
520434
520700
520840
521209
521442
521678
521976
522212
522357
522718
522967
523231
523367
523744
524217
524508
524760
