peaks
75034
75246
75460
75672
75892
76115
76334
76548
76774
77000
77227
77445
77666
77884
78100
78325
78549
78775
78998
79216
79444
79678
79907
80123
80330
80546
80763
80974
81186
81406
81617
81823
82233
82435
82640
82853
83282
83535
83727
83938
84162
84390
84617
84843
85077
85307
85539
85768
85997
86223
86453
86674
86897
87125
87352
87573
87792
88017
88238
88454
88670
88887
89100
89314
89526
89749
89957
90179
90399
90611
90820
91041
91255
91468
91678
91893
92104
92317
92527
92748
92956
93173
93387
93601
93825
94042
94269
94488
94715
94941
95160
95382
95608
95830
96048
96275
96495
96706
96910
97113
97315
97515
97714
97921
98133
98345
98564
98784
99001
99226
99443
99665
99882
100104
100324
100539
100757
100972
101188
101403
101620
101839
102056
102274
102494
102713
102932
103149
103273
103588
103809
104032
104245
104466
104688
104814
105136
105359
105591
105811
106034
106258
106483
106705
106932
107160
107386
107612
107837
108062
108277
108491
108699
108904
109107
109321
109439
109745
109962
110176
110390
110608
110823
111039
111263
111494
111724
111951
112192
112427
112660
112892
113121
113348
113574
113802
114021
114147
114472
114699
114921
115147
115373
115594
115818
116043
116264
116486
116710
116935
117162
117388
117612
117838
118068
118295
118516
118737
118958
119175
119389
119606
119823
120039
120260
120484
120702
120920
121145
121368
121587
121811
122034
122252
122467
122678
122882
123082
123284
123482
123678
123874
124076
124288
124397
124730
124986
125178
125391
125611
125829
126043
126264
126486
126705
126927
127156
127382
127605
127835
128062
128285
128512
128737
128959
129183
129413
129636
129854
129984
130311
130537
130757
130976
131196
131417
131632
131855
132073
132300
132523
132746
132972
133200
133429
133655
133889
134120
134340
134566
134792
135015
135231
135452
135676
135897
136120
136338
136556
136782
137006
137227
137441
137653
137862
138066
138186
138478
138676
138866
139057
139254
139455
139660
139872
140091
140314
140534
140762
140985
141207
141420
141640
141857
142075
142298
142511
142720
142938
143155
143368
143588
143805
144017
144225
144437
144654
144864
145082
145300
145519
145740
145961
146173
146383
146602
146808
147012
147214
147416
147607
147800
148000
148206
148415
148629
148848
149069
149285
149503
149728
149951
150173
150400
150628
150855
151083
151310
151538
151768
151994
152221
152451
152683
152902
153123
153350
153578
153798
154018
154242
154461
154678
154899
155117
155330
155542
155761
156009
156186
156389
156588
156784
156980
157183
157388
157593
157804
158021
158230
158446
158665
158883
159096
159313
159533
159751
159968
160195
160423
160650
160879
161114
161345
161566
161794
162016
162239
162464
162693
162919
163150
163373
163592
163808
164021
164227
164433
164634
164826
165019
165204
165395
165592
165794
165997
166209
166424
166643
166866
167088
167313
167539
167767
167991
168210
168440
168664
168886
169112
169335
169558
169784
170007
170230
170452
170684
170912
171135
171359
171584
171706
172038
172252
172455
172652
173075
173285
173488
173694
173798
174096
174297
174505
174722
174945
175173
175402
175631
175866
176096
176322
176556
176792
177019
177244
177476
177711
177935
178159
178383
178610
178839
179074
179298
179523
179757
179992
180116
180458
180682
180908
181129
181352
181562
181781
182003
182223
182442
182667
182892
183112
183335
183562
183783
183994
184207
184423
184638
184853
185067
185281
185498
185715
185932
186148
186367
186593
186811
187029
187246
187462
187676
187894
188112
188324
188538
188757
188974
189186
189400
189617
189837
190050
190271
190488
190705
190918
191141
191362
191582
191795
192007
192218
192429
192639
192851
193065
193286
193506
193724
193948
194170
194392
194622
194848
195070
195298
195525
195752
195978
196205
196428
196654
196883
197110
197330
197553
197782
198007
198226
198455
198679
198896
199120
199348
199571
199790
200019
200247
200469
200692
200922
201148
201372
201599
201823
202045
202267
202488
202711
202934
203159
203383
203606
203830
204054
204277
204503
204727
204947
205171
205401
205618
205846
206071
206293
206502
206719
206933
207140
207349
207564
207780
207992
208209
208427
208645
208865
209090
209308
209535
209756
209981
210207
210432
210653
210878
211101
211327
211547
211767
211991
212209
212416
212623
212825
213025
213222
213415
213611
213803
213993
214186
214382
214576
214773
214978
215186
215395
215604
215820
216035
216250
216473
216696
216909
217122
217338
217560
217778
218000
218217
218442
218662
218887
219106
219318
219531
219746
219958
220184
220412
220632
220847
221065
221282
221498
221723
221944
222164
222382
222598
222814
223030
223252
223465
223687
223905
224127
224345
224565
224789
225009
225228
225454
225682
225906
226124
226344
226554
226755
226957
227066
227362
227556
227750
227940
228129
228321
228521
228726
228935
229157
229378
229596
229816
230041
230262
230482
230704
230927
231151
231375
231599
231824
232045
232267
232488
232701
232909
233120
233328
233537
233751
233968
234187
234413
234644
234768
235100
235332
235558
235778
236010
236234
236457
236692
236925
237149
237372
237600
237827
238057
238284
238519
238741
238966
239196
239408
239611
239818
240230
240433
240635
240842
240947
241266
241482
241694
241906
242126
242353
242583
242817
243053
243284
243520
243756
243992
244228
244461
244685
244919
245152
245385
245610
245850
246086
246319
246549
246778
247017
247249
247479
247710
247944
248177
248406
248635
248873
249109
249334
249572
249809
250038
250272
250510
250745
250976
251212
251445
251672
251903
252141
252373
252600
252836
253070
253304
253529
253769
254001
254222
254453
254683
254915
255139
255357
255583
255813
256034
256263
256496
256725
256953
257188
257420
257642
257870
258092
258303
258515
258730
258951
259174
259408
259644
259878
260110
260343
260571
260803
261032
261271
261505
261740
261975
262206
262439
262674
262907
263139
263374
263597
263825
264059
264290
264515
264753
264979
265213
265446
265674
265895
266125
266352
266581
266807
267029
267246
267467
267694
267919
268138
268361
268586
268808
269029
269250
269470
269694
269919
270140
270359
270583
270805
271022
271245
271470
271687
271903
272123
272345
272562
272780
273001
273224
273446
273674
273796
274119
274343
274559
274768
274980
275197
275409
275616
275822
276032
276241
276446
276652
276863
277072
277285
277497
277708
277904
278089
278273
278455
278633
278809
278985
279159
279333
279511
279693
279871
280050
280235
280426
280621
280817
281013
281209
281401
281585
281773
281969
282167
282366
282570
282778
282984
283191
283403
283616
283828
284042
284260
284479
284696
284914
285134
285348
285563
285781
286001
286223
286446
286672
286898
287126
287357
287584
287813
288043
288265
288492
288722
288950
289170
289403
289631
289852
290075
290307
290543
290774
291001
291232
291466
291701
291927
292162
292398
292628
292859
293091
293322
293550
293780
294017
294247
294475
294710
294936
295158
295387
295616
295843
296065
296295
296527
296650
296978
297199
297424
297652
297876
298099
298325
298562
298793
299023
299260
299500
299730
299962
300195
300419
300643
300862
301079
301296
301515
301730
301945
302165
302387
302606
302829
303058
303279
303500
303729
303956
304181
304406
304635
304855
305078
305299
305512
305721
305930
306139
306345
306558
306771
306965
307362
307565
307763
307958
308160
308366
308571
308777
308981
309187
309609
309828
310039
310253
310473
310692
310904
311118
311335
311548
311763
311984
312201
312413
312626
312839
313050
313259
313470
313679
313888
314099
314315
314531
314745
314969
315195
315421
315648
315871
316095
316325
316555
316773
317004
317237
317460
317681
317910
318142
318367
318599
318833
319053
319172
319499
319710
319912
320108
320312
320517
320724
320830
321155
321366
321578
321793
322005
322210
322431
322650
322875
323099
323329
323560
323793
324037
324279
324507
324746
324984
325217
325447
325686
325919
326151
326388
326623
326851
327084
327320
327563
327806
328044
328292
328536
328772
329004
329248
329490
329723
329964
330214
330458
330694
330929
331167
331401
331632
331861
332101
332337
332562
332794
333032
333170
333487
333713
333942
334165
334389
334611
334831
335050
335274
335502
335729
335957
336187
336414
336639
336868
337089
337315
337547
337774
337992
338212
338422
338632
338830
339022
339208
339390
339588
339790
339996
340201
340302
340612
340809
341003
341202
341399
341590
341775
341965
342161
342359
342565
342780
343000
343217
343455
343686
343906
344127
344354
344588
344811
345048
345284
345514
345744
345975
346205
346434
346661
346889
347127
347364
347597
347823
348067
348308
348540
348774
349015
349247
349482
349711
349949
350182
350415
350648
350890
351130
351364
351595
351836
352072
352299
352532
352772
353009
353241
353477
353713
353948
354177
354400
354641
354879
355109
355333
355566
355792
356024
356261
356503
356743
356979
357220
357458
357694
357929
358159
358396
358636
358869
359105
359344
359580
359811
360053
360289
360518
360751
360985
361211
361437
361673
361905
362133
362364
362590
362819
363052
363284
363519
363752
363989
364222
364452
364693
364935
365174
365407
365639
365870
366098
366331
366566
366796
367022
367246
367474
367706
367930
368150
368377
368600
368818
369038
369263
369491
369712
369939
370161
370366
370564
370756
370952
371150
371362
371580
371805
372039
372283
372523
372749
372975
373205
373433
373660
373887
374117
374349
374574
374801
375035
375266
375486
375715
375951
376182
376409
376646
376880
377112
377342
377575
377809
378046
378289
378522
378751
378980
379219
379455
379685
379917
380155
380393
380625
380848
381086
381317
381546
381783
382026
382261
382497
382743
382986
383227
383462
383702
383942
384178
384409
384644
384881
385115
385347
385588
385829
386061
386298
386540
386773
387004
387123
387462
387683
387908
388130
388359
388581
388806
389026
389239
389448
389648
389847
390044
390241
390434
390628
390830
391036
391240
391445
391648
391848
391955
392243
392448
392649
392840
393029
393225
393414
393597
393788
393975
394156
394340
394521
394707
394892
395076
395255
395447
395628
395810
395989
396174
396358
396546
396733
396922
397112
397303
397493
397689
397882
398074
398270
398469
398666
398859
399058
399252
399450
399647
399852
400061
400278
400496
400713
400928
401143
401361
401576
401793
402012
402234
402451
402669
402894
403114
403330
403550
403777
403995
404211
404434
404647
404857
405066
405279
405488
405897
406097
406281
406473
406662
406852
407039
407227
407406
407596
407787
407979
408192
408405
408616
408831
409050
409266
409483
409700
409920
410141
410360
410582
410808
411031
411247
411464
411675
411891
412094
412294
412493
412698
412904
413107
413314
413526
413739
413950
414164
414378
414587
414798
415010
415218
415423
415631
415879
416056
416464
416679
416885
417097
417311
417518
417717
418135
418328
418515
418705
418891
419078
419270
419469
419675
419882
420091
420304
420519
420732
420950
421170
421389
421607
421838
422057
422275
422494
422710
422922
423135
423342
423540
423736
423931
424126
424317
424504
424691
424883
425082
425281
425500
425742
425925
426130
426342
426551
426756
426976
427191
427401
427610
427824
428064
428248
428457
428669
428882
429094
429312
429527
429740
429959
430179
430394
430614
430841
431066
431291
431519
431743
431965
432190
432416
432635
432857
433080
433294
433505
433720
433936
434152
434368
434589
434811
435027
435234
435438
435639
436052
436254
436453
436655
436861
437065
437272
437480
437697
437909
438124
438346
438565
438785
439015
439244
439470
439692
439926
440151
440377
440608
440831
441055
441279
441505
441728
441954
442182
442410
442637
442867
443087
443305
443526
443744
443959
444173
444296
444607
444815
445019
445210
445401
445589
445777
445969
446160
446352
446544
446733
446914
447101
447294
447489
447689
447892
448094
448290
448492
448697
448800
449116
449327
449546
449762
449977
450198
450415
450629
450842
451059
451276
451487
451708
451924
452140
452354
452571
452786
452999
453212
453424
453645
453862
454077
454293
454505
454721
454935
455142
455346
455556
455765
455969
456173
456275
456585
456785
456983
457187
457388
457589
457797
458005
458213
458422
458635
458847
459057
459268
459481
459691
459904
460117
460308
460499
460680
460863
461045
461227
461407
461595
461782
461966
462155
462345
462541
462730
462918
463105
463294
463481
463682
463872
464066
464262
464458
464654
464847
465043
465238
465448
465650
465865
466085
466306
466522
466741
466962
467186
467405
467633
467857
468081
468302
468522
468734
468956
469174
469399
469617
469838
470069
470294
470518
470741
470966
471185
471407
471631
471852
472067
472287
472504
472728
472943
473158
473369
473582
473685
473988
474181
474372
474557
474737
474915
475102
475299
475505
475718
475944
476169
476397
476625
476855
477075
477302
477524
477744
477974
478203
478420
478640
478869
479093
479313
479542
479766
479987
480211
480439
480660
480878
481105
481329
481551
481779
482007
482227
482456
482681
482900
483117
483336
483552
483763
483981
484201
484413
484629
484846
485054
485263
485470
485570
485868
486057
486236
486427
486619
486819
487023
487238
487461
487688
487924
488152
488388
488615
488836
489056
489283
489510
489732
489955
490185
490406
490622
490843
491073
491300
491526
491751
491970
492197
492422
492643
492870
493096
493322
493552
493775
494007
494238
494464
494697
494927
495153
495379
495612
495840
496065
496294
496518
496740
496964
497199
497418
497646
497877
498101
498328
498561
498787
499009
499242
499471
499694
499925
500154
500377
500610
500840
501062
501292
501512
501726
501934
502141
502346
502543
502648
502965
503171
503378
503583
503794
504005
504216
504438
504657
504880
505099
505325
505548
505770
505998
506227
506455
506686
506894
507134
507360
507585
507810
508039
508266
508494
508721
508946
509173
509399
509623
509845
510071
510298
510521
510736
510944
511185
511412
511631
511848
512067
512275
512476
512679
512881
513087
513295
513507
513755
513941
514158
514381
514607
514837
515065
515291
515518
515746
515972
516192
516411
516632
516849
517069
517290
517515
517743
517971
518198
518423
518649
518878
519106
519331
519561
519792
520019
520245
520472
520695
520917
521145
521361
521572
521786
521999
522211
522426
522644
522850
523064
523281
523499
523715
523935
524156
524376
524602
524828
