peaks
75054
75168
75288
75404
75521
75638
75754
75865
75981
76098
76213
76332
76444
76560
76676
76790
76906
77021
77138
77256
77372
77488
77609
77727
77848
77968
78091
78193
78329
78451
78566
78688
78814
78930
79054
79173
79293
79407
79533
79653
79772
79893
80010
80131
80256
80377
80496
80616
80737
80858
80976
81097
81223
81339
81465
81586
81703
81824
81946
82067
82188
82310
82433
82558
82680
82796
82919
83037
83159
83284
83407
83529
83650
83765
83888
84006
84126
84250
84367
84486
84607
84728
84850
84969
85092
85212
85335
85454
85572
85694
85813
85932
86054
86175
86295
86416
86536
86659
86775
86897
87018
87138
87259
87378
87499
87615
87734
87853
87972
88091
88215
88333
88450
88566
88687
88804
88921
89039
89158
89276
89395
89509
89633
89749
89869
89990
90111
90232
90353
90479
90595
90715
90834
90958
91073
91193
91317
91434
91554
91675
91797
91914
92032
92150
92270
92390
92511
92630
92750
92869
92991
93110
93224
93343
93461
93576
93696
93814
93933
94053
94170
94287
94406
94525
94648
94766
94885
95003
95116
95234
95356
95474
95593
95712
95830
95949
96068
96183
96303
96422
96540
96662
96778
96897
97020
97138
97256
97368
97484
97602
97720
97838
97955
98076
98194
98314
98433
98554
98671
98789
98907
99027
99146
99269
99387
99504
99621
99738
99850
99967
100088
100205
100321
100439
100559
100676
100795
100913
101033
101148
101268
101386
101506
101626
101745
101862
101981
102100
102217
102335
102455
102574
102693
102812
102932
103053
103173
103291
103411
103532
103652
103773
103896
104019
104138
104258
104380
104501
104622
104743
104868
104994
105121
105249
105375
105504
105628
105752
105877
106002
106127
106250
106373
106495
106617
106739
106862
106986
107107
107229
107351
107472
107594
107716
107840
107958
108079
108204
108328
108453
108576
108699
108823
108944
109068
109192
109317
109442
109566
109692
109821
109941
110067
110197
110320
110445
110574
110699
110825
110951
111076
111202
111328
111457
111582
111707
111829
111957
112083
112211
112338
112468
112595
112721
112847
112974
113099
113226
113354
113481
113609
113740
113872
114001
114133
114263
114394
114524
114658
114791
114923
115057
115194
115327
115463
115597
115732
115869
116008
116146
116283
116418
116554
116691
116827
116962
117097
117233
117370
117507
117644
117781
117917
118054
118198
118338
118478
118618
118757
118900
119044
119185
119327
119468
119609
119753
119894
120032
120176
120317
120457
120597
120738
120885
121029
121176
121322
121472
121619
121771
121931
122094
122249
122407
122561
122708
122861
123008
123158
123305
123453
123599
123746
123888
124033
124173
124313
124452
124589
124727
124868
125011
125157
125299
125443
125587
125731
125873
126012
126149
126286
126424
126561
126697
126833
126970
127106
127247
127386
127522
127656
127788
127922
128058
128195
128330
128461
128597
128733
128866
128999
129131
129266
129399
129534
129666
129796
129928
130059
130192
130325
130461
130593
130727
130860
130994
131129
131260
131393
131529
131666
131807
131945
132084
132219
132357
132494
132631
132773
132909
133048
133184
133322
133460
133598
133734
133871
134008
134146
134288
134427
134565
134702
134839
134975
135111
135248
135387
135522
135657
135794
135930
136062
136199
136338
136475
136614
136750
136887
137024
137160
137296
137429
137563
137698
137833
137967
138100
138232
138366
138500
138632
138766
138898
139032
139165
139296
139429
139565
139697
139827
139962
140093
140223
140358
140492
140624
140756
140886
141017
141149
141277
141406
141537
141667
141797
141924
142051
142179
142304
142434
142559
142686
142813
142938
143065
143192
143318
143442
143566
143690
143817
143944
144071
144202
144330
144459
144584
144713
144843
144974
145104
145232
145368
145498
145624
145755
145884
146016
146147
146278
146408
146538
146668
146794
146924
147055
147185
147315
147442
147576
147703
147833
147964
148094
148225
148357
148489
148618
148750
148880
149010
149140
149274
149401
149530
149663
149790
149922
150054
150182
150310
150441
150571
150702
150832
150962
151092
151221
151349
151479
151610
151742
151872
152004
152137
152269
152399
152530
152661
152794
152925
153056
153187
153318
153447
153578
153710
153841
153974
154106
154236
154368
154498
154633
154765
154899
155033
155168
155301
155436
155566
155698
155828
155961
156094
156227
156361
156492
156625
156758
156889
157025
157155
157288
157420
157550
157683
157812
157942
158073
158205
158335
158467
158599
158731
158862
158993
159124
159257
159394
159526
159660
159796
159932
160067
160199
160329
160462
160598
160733
160869
161004
161138
161275
161413
161550
161685
161821
161956
162092
162225
162357
162489
162624
162757
162892
163029
163162
163297
163432
163568
163703
163839
163973
164112
164250
164389
164526
164663
164799
164937
165075
165213
165355
165497
165638
165778
165917
166053
166190
166325
166462
166599
166736
166872
167013
167153
167291
167409
167543
167687
167833
167981
168124
168264
168408
168552
168693
168836
168975
169117
169259
169400
169546
169690
169831
169972
170111
170250
170387
170520
170657
170789
170920
171052
171183
171315
171449
171589
171727
171863
172002
172137
172275
172413
172553
172696
172833
172974
173108
173249
173386
173526
173666
173804
173947
174092
174236
174380
174525
174666
174811
174955
175101
175246
175386
175529
175675
175813
175949
176081
176222
176356
176491
176625
176758
176887
177019
177153
177283
177416
177546
177675
177811
177945
178080
178212
178341
178476
178609
178737
178874
179002
179133
179263
179393
179524
179658
179791
179916
180050
180179
180307
180435
180561
180687
180814
180940
181064
181193
181317
181441
181562
181687
181814
181941
182067
182191
182320
182449
182574
182700
182821
182945
183073
183200
183329
183457
183585
183713
183843
183974
184104
184235
184367
184498
184632
184765
184898
185033
185166
185302
185436
185569
185702
185837
185969
186107
186239
186377
186512
186649
186786
186924
187065
187204
187347
187491
187636
187738
187938
188078
188217
188355
188498
188639
188782
188922
189061
189201
189340
189477
189617
189755
189897
190036
190176
190313
190450
190588
190726
190865
191002
191139
191273
191410
191544
191680
191815
191947
192082
192216
192353
192489
192624
192758
192896
193032
193166
193304
193444
193582
193721
193857
193994
194131
194269
194410
194546
194685
194820
194955
195090
195225
195360
195495
195629
195764
195897
196030
196162
196295
196425
196557
196690
196822
196958
197093
197230
197368
197506
197645
197783
197920
198054
198189
198325
198464
198604
198739
198873
199009
199147
199286
199424
199563
199705
199846
199989
200130
200269
200409
200550
200691
200831
200973
201112
201249
201389
201525
201659
201798
201936
202074
202215
202356
202496
202633
202771
202910
203050
203191
203330
203466
203606
203744
203880
204018
204152
204290
204426
204564
204701
204835
204971
205106
205241
205384
205514
205647
205780
205911
206045
206177
206312
206441
206575
206708
206840
206975
207108
207244
207376
207507
207639
207772
207905
208039
208175
208315
208454
208591
208729
208869
209009
209147
209285
209428
209562
209700
209839
209980
210122
210262
210404
210549
210689
210828
210971
211113
211254
211396
211535
211673
211810
211947
212086
212225
212363
212500
212640
212778
212915
213052
213190
213328
213464
213598
213731
213864
213997
214132
214265
214395
214530
214662
214794
214923
215054
215183
215313
215441
215574
215699
215827
215955
216080
216207
216334
216462
216590
216718
216847
216974
217101
217230
217356
217484
217611
217737
217864
217993
218120
218247
218379
218509
218643
218777
218910
219043
219176
219307
219438
219569
219701
219834
219967
220099
220235
220369
220501
220633
220768
220903
221039
221177
221315
221452
221586
221721
221857
221991
222126
222261
222396
222528
222667
222800
222929
223062
223197
223332
223469
223604
223741
223878
224012
224146
224280
224413
224545
224677
224809
224943
225075
225206
225340
225473
225606
225738
225870
226001
226133
226264
226396
226527
226658
226790
226922
227053
227185
227318
227451
227583
227714
227851
227985
228117
228251
228381
228512
228644
228777
228909
229038
229169
229299
229429
229559
229689
229821
229954
230086
230219
230353
230485
230615
230750
230883
231015
231150
231283
231414
231544
231676
231805
231937
232068
232197
232328
232458
232586
232716
232845
232972
233102
233233
233363
233494
233621
233750
233880
234009
234140
234270
234400
234534
234666
234798
234931
235062
235192
235322
235453
235586
235717
235850
235980
236114
236248
236379
236512
236640
236772
236904
237036
237169
237298
237426
237558
237691
237822
237955
238087
238217
238345
238474
238602
238731
238859
238986
239117
239245
239373
239499
239627
239760
239896
240034
240172
240312
240448
240587
240723
240857
240997
241132
241266
241400
241538
241679
241816
241957
242095
242232
242369
242505
242639
242770
242904
243041
243175
243311
243448
243584
243721
243858
243994
244127
244261
244397
244536
244672
244808
244946
245081
245219
245355
245494
245634
245771
245910
246047
246189
246323
246458
246591
246726
246857
246993
247126
247264
247399
247535
247670
247807
247942
248079
248215
248354
248490
248623
248758
248893
249030
249171
249306
249444
249581
249715
249852
249990
250127
250267
250407
250549
250688
250826
250970
251111
251255
251395
251536
251676
251815
251954
252095
252237
252380
252521
252665
252808
252957
253103
253244
253387
253533
253677
253823
253964
254104
254245
254387
254529
254672
254818
254963
255109
255258
255405
255548
255696
255843
255993
256142
256290
256439
256590
256738
256881
257028
257168
257302
257445
257584
257719
257857
257998
258137
258278
258419
258561
258704
258844
258980
259124
259265
259409
259552
259695
259836
259978
260121
260261
260405
260548
260691
260833
260974
261116
261257
261396
261533
261670
261807
261947
262093
262243
262395
262552
262703
262859
263012
263174
263329
263491
263635
263788
263947
264097
264264
264418
264582
264739
264899
265058
265216
265370
265526
265684
265848
266014
266174
266340
266497
266661
266814
266977
267130
267288
267450
267611
267768
267925
268087
268253
268413
268577
268736
268890
269050
269210
269373
269535
269702
269864
270031
270195
270370
270536
270702
270867
271026
271195
271359
271531
271693
271867
272029
272197
272354
272523
272678
272836
272986
273141
273297
273453
273607
273764
273919
274073
274227
274376
274524
274674
274824
274974
275122
275271
275420
275570
275718
275868
276015
276162
276317
276464
276607
276750
276887
277038
277182
277323
277466
277608
277746
277888
278032
278179
278325
278476
278622
278770
278916
279063
279209
279355
279503
279648
279788
279930
280075
280219
280366
280509
280649
280790
280931
281072
281218
281362
281511
281659
281806
281952
282096
282242
282385
282530
282673
282816
282954
283098
283237
283378
283520
283664
283811
283954
284098
284242
284383
284526
284669
284815
284957
285097
285237
285380
285526
285670
285816
285963
286106
286252
286395
286539
286684
286827
286971
287120
287266
287409
287552
287696
287839
287982
288122
288263
288399
288538
288676
288814
288952
289094
289233
289381
289524
289662
289801
289940
290085
290225
290364
290509
290650
290790
290925
291066
291203
291342
291482
291627
291769
291909
292051
292195
292346
292496
292648
292802
292960
293109
293258
293413
293564
293714
293864
294013
294160
294311
294465
294620
294774
294938
295098
295266
295424
295585
295748
295915
296074
296237
296399
296557
296724
296883
297047
297201
297364
297521
297686
297845
298008
298164
298327
298488
298651
298806
298969
299119
299273
299432
299589
299746
299903
300061
300219
300378
300534
300696
300855
301009
301168
301325
301482
301632
301792
301947
302104
302259
302422
302579
302737
302897
303059
303219
303379
303539
303705
303865
304026
304183
304339
304491
304652
304805
304963
305117
305273
305428
305589
305744
305909
306066
306226
306382
306544
306698
306853
307009
307170
307329
307496
307656
307822
307993
308156
308319
308484
308645
308813
308971
309131
309291
309454
309618
309786
309949
310115
310282
310446
310615
310779
310959
311120
311291
311453
311622
311781
311944
312104
312263
312427
312587
312743
312899
313060
313216
313378
313539
313702
313864
314032
314198
314362
314536
314706
314880
315053
315221
315419
315633
315806
315972
316138
316310
316471
316641
316808
316976
317149
317319
317493
317661
317840
318011
318187
318360
318540
318712
318891
319054
319226
319393
319565
319730
319903
320064
320234
320403
320570
320737
320900
321065
321226
321381
321536
321696
321877
322048
322219
322405
322602
322790
322981
323167
323356
323539
323721
323899
324086
324276
324460
324637
324822
325005
325187
325356
325523
325688
325860
326033
326199
326376
326544
326714
326883
327050
327221
327390
327561
327733
327905
328070
328236
328407
328586
328760
328941
329122
329312
329500
329681
329860
330034
330218
330389
330570
330743
330928
331111
331291
331466
331652
331831
332012
332185
332367
332547
332727
332902
333081
333257
333435
333610
333783
333960
334139
334313
334488
334659
334840
335014
335193
335365
335539
335716
335893
336078
336247
336426
336599
336774
336943
337114
337285
337468
337643
337822
337997
338174
338356
338537
338710
338891
339066
339247
339426
339602
339775
339939
340108
340266
340428
340597
340762
340925
341083
341238
341395
341554
341713
341876
342041
342208
342390
342563
342737
342914
343093
343272
343451
343628
343808
343991
344168
344347
344522
344696
344872
345044
345226
345397
345570
345739
345908
346080
346251
346422
346596
346761
346924
347084
347243
347404
347563
347725
347888
348056
348226
348394
348563
348731
348909
349090
349274
349458
349646
349835
350028
350213
350394
350569
350747
350931
351115
351303
351486
351670
351854
352037
352224
352407
352589
352767
352952
353130
353315
353492
353672
353860
354041
354229
354409
354588
354766
354945
355122
355300
355480
355656
355836
356009
356190
356361
356543
356721
356897
357072
357252
357423
357600
357776
357951
358130
358311
358487
358668
358841
359020
359195
359357
359521
359689
359855
360021
360188
360361
360536
360716
360899
361089
361268
361450
361623
361802
361982
362165
362350
362523
362701
362886
363073
363260
363443
363637
364017
364212
364403
364598
364782
364970
365162
365357
365553
365746
365939
366135
366331
366524
366716
366911
367102
367293
367491
367681
367876
368265
368459
368651
368838
369011
369367
369536
369707
369881
370051
370226
370397
370576
370748
370920
371088
371264
371444
371634
371823
371995
372167
372340
372523
372701
372875
373057
373244
373431
373616
373978
374167
374337
374514
374871
375044
375212
375379
375562
375743
375926
376109
376287
376474
376659
376848
377035
377403
377585
377762
377945
378123
378308
378489
378676
378857
379035
379215
379384
379552
379714
379880
380050
380220
380386
380554
380731
380900
381070
381248
381430
381610
381787
381966
382159
382343
382533
382715
382911
383106
383303
383494
383689
383880
384255
384445
384625
384809
384986
385166
385348
385530
385711
385893
386080
386266
386447
386620
386803
386979
387153
387328
387501
387678
387854
388024
388195
388361
388532
388703
388877
389051
389230
389419
389616
389813
390009
390208
390409
390610
390813
391200
391388
391573
391751
391928
392107
392289
392468
392645
392821
393000
393180
393357
393537
393720
393902
394084
394260
394435
394618
394803
394994
395188
395380
395570
395758
395935
396300
396480
396659
396841
397024
397392
397572
397753
397932
398114
398295
398476
398657
398841
399024
399206
399386
399568
399750
399932
400113
400294
400476
400660
400842
401023
401201
401379
401732
401903
402074
402244
402413
402589
402770
402950
403130
403496
403669
403844
404021
404197
404373
404548
404723
404889
405228
405397
405566
405742
405918
406096
406276
406465
406659
406851
407046
407433
407618
407809
408001
408192
408382
408566
408943
409116
409288
409460
409630
409804
409982
410166
410352
410540
410727
410920
411117
411317
411517
411712
411912
412107
412310
412511
412701
412889
413080
413271
413464
413659
413851
414042
414232
414426
414613
414800
414984
415170
415351
415534
415713
415888
416245
416421
416592
416767
416939
417114
417287
417457
417628
417807
417996
418185
418373
418561
418752
418940
419126
419313
419502
419690
419878
420068
420258
420444
420630
420823
421021
421218
421413
421602
421790
422163
422347
422535
422719
422900
423268
423453
423635
423820
424002
424185
424370
424557
424746
425121
425302
425483
425668
425848
426028
426208
426384
426561
426740
426921
427103
427286
427470
427656
427845
428033
428220
428407
428594
428777
428958
429136
429310
429483
429662
429845
430034
430224
430414
430797
430987
431176
431360
431547
431731
431914
432288
432468
432645
432822
433002
433186
433368
433555
433746
433938
434134
434535
434736
435127
435318
435703
435884
436250
436427
436599
436777
436959
437144
437321
437501
437692
437890
438281
438473
438666
438856
439046
439242
439628
439814
439999
440367
440545
440909
441086
441451
441630
441810
441994
442179
442366
442751
442936
443120
443305
443488
443674
443863
444051
444239
444429
444626
444823
445012
445195
445375
445558
445743
445932
446117
446309
446506
446704
446893
447085
447282
447484
447683
447889
448095
448298
448500
448702
448906
449112
449317
449524
449928
450135
450342
450545
450750
450954
451163
451572
451772
451971
452173
452562
452752
452936
453122
453313
453509
453709
453904
454098
454288
454478
454665
454854
455042
455237
455432
455620
455807
456001
456193
456385
456579
456769
456963
457155
457342
457532
457719
457904
458092
458286
458487
458688
459087
459281
459471
459660
459845
460029
460216
460407
460784
460973
461163
461352
461539
461727
461920
462111
462306
462700
462893
463081
463269
463452
463632
463816
464187
464368
464545
464733
464918
465105
465289
465480
465670
465864
466060
466254
466451
466646
466842
467039
467240
467436
467630
467825
468020
468212
468402
468594
468781
468972
469167
469360
469746
469932
470117
470306
470497
470686
470876
471072
471264
471462
471580
471856
472049
472238
472427
472615
472806
472995
473184
473375
473565
473757
474135
474323
474508
474693
474878
475060
475244
475432
475623
475738
476000
476187
476365
476541
476714
476895
477088
477467
477658
477850
478045
478238
478436
478635
478837
479042
479454
479665
479873
480082
480288
480498
480711
480920
481131
481337
481551
481957
482158
482352
482545
482741
482926
483114
483302
483488
483679
483871
484065
484257
484447
484649
484846
485033
485221
485412
485602
485787
485980
486173
486371
486573
486780
486987
487194
487396
487596
487792
487981
488170
488355
488537
488719
488897
489078
489258
489440
489623
489807
489994
490178
490359
490539
490722
490906
491090
491275
491461
491645
491827
492007
492174
492364
492542
492717
492893
493065
493238
493416
493595
493768
493940
494110
494281
494451
494619
494786
494954
495121
495288
495454
495620
495786
495952
496120
496285
496446
496609
496769
496931
497089
497252
497418
497579
497742
497906
498068
498234
498399
498564
498726
498890
499052
499212
499370
499531
499689
499845
499997
500152
500310
500466
500624
500779
500932
501082
501233
501387
501535
501683
501834
501978
502126
502273
502427
502577
502728
502880
503029
503178
503324
503476
503628
503780
503933
504093
504251
504414
504574
504733
504895
505054
505212
505367
505518
505677
505829
505982
506130
506281
506429
506578
506726
506875
507025
507178
507330
507474
507623
507764
507909
508057
508207
508354
508500
508648
508797
508960
509129
509298
509468
509632
509794
509954
510113
510268
510419
510577
510728
510881
511028
511179
511332
511483
511633
511784
511934
512086
512238
512391
512544
512699
512849
513007
513161
513317
513476
513634
513789
513951
514105
514265
514420
514582
514743
514904
515063
515221
515380
515550
515723
515915
516094
516281
516473
516680
516888
517091
517283
517473
517663
517852
518040
518223
518405
518584
518765
518948
519126
519307
519491
519671
519845
520025
520201
520378
520558
520744
520925
521103
521292
521497
521691
521880
522074
522267
522464
522657
522847
523045
523256
523455
523666
523886
524111
524331
524434
524763
524985
