peaks
75066
75279
75493
75611
75924
76136
76346
76559
76765
76975
77181
77602
77810
78020
78446
78657
78869
78981
79295
79507
79722
79835
80151
80364
80576
80789
81000
81216
81430
81647
81863
82081
82300
82517
82738
82961
83184
83406
83628
83847
84065
84285
84505
84723
84944
85046
85383
85601
85816
86032
86243
86460
86596
86699
87042
87258
87470
87682
87895
88323
88531
88739
89157
89361
89567
89773
89981
90191
90403
90620
90837
91055
91276
91494
91712
91928
92143
92357
92570
92676
92999
93211
93420
93630
93836
94040
94247
94663
94869
95077
95286
95498
95924
96134
96345
96558
96769
96979
97191
97408
97624
97844
98065
98283
98502
98724
98949
99172
99397
99843
100066
100290
100510
100638
101085
101302
101514
101937
102146
102356
102572
102790
103009
103238
103471
103702
103938
104172
104282
104620
104839
105056
105186
105445
105663
105878
106092
106309
106738
106947
107160
107565
107784
107991
108410
108617
108829
109248
109459
109667
109875
110087
110300
110515
110953
111176
111394
111613
111831
111938
112267
112486
112703
112922
113143
113245
113583
113801
114020
114239
114462
114688
114916
115143
115371
115601
115827
116055
116282
116511
116741
117196
117425
117651
117876
118097
118318
118541
118980
119201
119419
119636
119852
119956
120286
120502
120721
120942
121161
121271
121600
121818
122034
122187
122449
122665
122882
122990
123320
123534
123749
123963
124178
124284
124614
124828
125040
125251
125465
125571
125899
126114
126331
126545
126764
127188
127405
127613
128031
128235
128440
128645
128849
129053
129260
129464
129669
129876
130083
130289
130495
130702
130908
131111
131319
131733
131937
132140
132344
132542
132746
132953
133160
133373
133590
133812
134035
134262
134494
134721
134948
135177
135402
135623
135847
136068
136288
136509
136733
136955
137389
137607
137822
138038
138253
138679
138895
139110
139531
139742
139951
140373
140584
140795
141217
141431
141642
142068
142282
142495
142923
143136
143348
143775
143987
144203
144633
144850
145065
145490
145705
145921
146337
146561
146785
147006
147231
147456
147682
147907
148136
148362
148587
148812
149036
149259
149481
149705
149927
150147
150367
150585
150800
151018
151239
151460
151684
151908
152131
152353
152578
152802
153025
153473
153699
153920
154141
154359
154791
155006
155218
155639
155851
156061
156478
156685
156894
157318
157527
157739
158160
158366
158575
158995
159205
159420
159636
159855
160296
160518
160739
161175
161391
161606
162035
162250
162467
162687
162904
163339
163557
163776
164211
164431
164653
165089
165302
165520
165949
166165
166382
166814
167036
167256
167696
167919
168145
168591
168813
169031
169465
169680
169896
170330
170547
170765
171195
171409
171624
172053
172269
172490
172928
173154
173379
173604
173833
174065
174298
174532
174993
175226
175459
175899
176117
176334
176761
176976
177193
177624
177844
178066
178510
178740
178969
179424
179652
179878
180325
180544
180766
181200
181419
181642
182074
182292
182511
182943
183162
183385
183831
184056
184281
184731
184959
185189
185640
185864
186089
186523
186741
186961
187396
187621
187845
188066
188295
188528
188761
188997
189233
189467
189702
189937
190170
190399
190629
190854
191076
191514
191731
191947
192378
192595
192756
192868
193218
193442
193669
193899
194126
194584
194817
195050
195499
195728
195956
196403
196629
196855
197086
197319
197550
197784
198244
198480
198712
199162
199391
199617
200061
200282
200508
200737
200965
201196
201429
201664
201904
202142
202382
202497
202851
203086
203318
203771
203999
204228
204671
204898
205125
205564
205787
206011
206453
206678
206905
207351
207577
207801
208249
208476
208705
209154
209383
209612
210058
210284
210513
210959
211186
211414
211862
212094
212323
212776
213004
213233
213680
213904
214131
214576
214801
215031
215477
215704
215846
216115
216345
216575
216803
216936
217212
217669
217905
218138
218371
218602
218836
219071
219306
219424
219776
220004
220237
220684
220909
221134
221577
221804
222029
222470
222695
222839
223110
223344
223575
223809
224047
224284
224521
224985
225224
225460
225915
226147
226380
226833
227064
227293
227738
227965
228193
228644
228877
229107
229562
229792
230024
230475
230704
230932
231378
231605
231833
232280
232509
232739
233188
233418
233650
234108
234340
234570
235020
235244
235469
235698
235926
236385
236619
236854
237312
237548
237789
238240
238466
238692
239124
239341
239558
239775
239997
240441
240667
240900
241351
241585
241819
242275
242513
242747
243205
243437
243674
244134
244372
244608
245064
245300
245533
245986
246217
246450
246908
247143
247377
247839
248070
248304
248760
248992
249225
249686
249922
250160
250618
250857
251088
251542
251774
252004
252451
252674
252899
253128
253357
253591
253831
254072
254319
254435
254797
255040
255283
255739
255968
256194
256640
256864
257086
257310
257538
257987
258220
258453
258907
259140
259374
259832
260066
260299
260759
260992
261227
261680
261914
262144
262595
262823
263051
263497
263721
263945
264383
264603
264820
265251
265464
265672
265879
266086
266496
266697
266902
267104
267308
267730
267941
268155
268372
268590
268702
269040
269263
269491
269941
270171
270405
270861
271094
271329
271784
272015
272243
272690
272917
273140
273253
273581
273799
274017
274456
274679
274909
275364
275598
275832
276288
276518
276749
277196
277422
277647
278093
278320
278548
279003
279230
279460
279914
280149
280384
280844
281084
281326
281788
282025
282261
282721
282954
283188
283644
283874
284105
284561
284797
285035
285495
285728
285964
286424
286662
286896
287358
287592
287831
288294
288534
288775
289238
289479
289715
290173
290405
290634
291087
291313
291542
291990
292222
292453
292902
293128
293352
293573
293796
294242
294468
294698
294929
295163
295630
295867
296105
296568
296810
297052
297518
297759
298001
298464
298701
298938
299399
299634
299866
300324
300555
300790
301241
301469
301700
301930
302166
302403
302642
302881
303127
303261
303608
303846
304084
304549
304784
305013
305458
305677
305892
306319
306531
306742
306954
307160
307578
307787
307991
308195
308402
308817
309027
309239
309449
309664
310103
310325
310549
310994
311220
311450
311895
312120
312344
312783
313007
313144
313251
313606
313837
314066
314512
314738
314960
315077
315411
315633
315857
316302
316528
316755
316869
317207
317438
317670
318125
318358
318591
319051
319283
319511
319967
320196
320431
320878
321104
321332
321774
321998
322224
322669
322895
323122
323232
323576
323807
324035
324489
324718
324949
325403
325635
325873
326332
326566
326800
327251
327482
327714
328173
328412
328648
329098
329317
329537
329967
330182
330399
330824
331039
331249
331462
331672
332105
332319
332536
332753
332970
333413
333638
333862
334311
334543
334776
335234
335466
335699
336147
336369
336591
337026
337245
337463
337903
338131
338357
338807
339037
339267
339716
339941
340163
340595
340807
341019
341228
341440
341872
342086
342297
342511
342726
343161
343382
343605
343831
344060
344520
344753
344990
345442
345671
345899
346347
346574
346797
347245
347468
347691
347799
348143
348364
348584
348694
349022
349238
349455
349885
350102
350322
350544
350770
350878
351225
351459
351695
351926
352155
352611
352838
353067
353509
353731
353955
354393
354614
354840
355284
355510
355739
356193
356424
356658
356891
357129
357365
357604
358071
358312
358552
358793
359031
359497
359731
359965
360200
360433
360671
360911
361018
361379
361616
361850
362081
362317
362775
363005
363236
363572
363847
364081
364308
364532
364755
364869
365196
365416
365569
365686
366033
366259
366487
366714
366944
367178
367412
367648
367884
368343
368578
368811
369266
369499
369730
370183
370412
370644
370875
371105
371215
371564
371797
372028
372261
372497
372959
373195
373428
373663
373899
374355
374584
374815
375046
375280
375734
375967
376202
376433
376665
376898
377131
377366
377601
377838
378299
378537
378769
379003
379237
379690
379922
380155
380386
380627
381088
381325
381565
381804
382047
382513
382752
382989
383441
383673
383906
384360
384594
384826
385283
385513
385744
385973
386198
386635
386851
387065
387496
387711
387929
388366
388586
388807
389247
389471
389703
390155
390384
390619
391068
391296
391524
391976
392206
392437
392895
393132
393369
393826
394062
394300
394758
394995
395234
395694
395933
396166
396624
396858
397091
397552
397783
398011
398448
398663
398876
399088
399301
399731
399943
400159
400587
400800
401012
401224
401438
401876
402098
402251
402527
402762
403000
403239
403484
403824
404113
404365
404616
404866
405115
405362
405607
405849
406085
406194
406540
406763
406986
407422
407638
407854
408287
408503
408719
409148
409362
409581
409801
410022
410248
410475
410928
411159
411385
411606
411828
412045
412259
412474
412690
412908
413127
413566
413786
414007
414230
414451
414903
415130
415358
415586
415816
415926
416273
416511
416742
416977
417212
417667
417894
418117
418336
418556
418671
418990
419205
419418
419632
419847
420275
420488
420703
420919
421136
421249
421567
421780
421993
422204
422415
422521
422834
423042
423249
423455
423663
424089
424300
424517
424736
424958
425405
425632
425859
426087
426318
426429
426770
427000
427227
427664
427882
428098
428313
428527
428637
428956
429170
429382
429590
429802
429908
430230
430443
430660
430877
431093
431310
431531
431752
431973
432195
432420
432863
433090
433317
433543
433774
433885
434224
434448
434670
434891
435113
435227
435562
435786
436010
436235
436463
436572
436917
437145
437370
437593
437813
437920
438248
438463
438681
438899
439120
439228
439564
439791
440017
440244
440473
440705
440934
441382
441606
441825
442048
442269
442712
442939
443165
443392
443625
444084
444322
444560
444794
445030
445268
445506
445620
445970
446203
446438
446675
446913
447152
447394
447641
448110
448352
448587
448824
449062
449297
449529
449759
449987
450213
450660
450887
451115
451342
451570
451689
452027
452253
452480
452708
452937
453391
453621
453853
454085
454325
454790
455027
455263
455498
455733
455968
456205
456328
456680
456914
457147
457380
457614
457847
458082
458198
458547
458784
459018
459251
459487
459725
459964
460201
460437
460544
460890
461117
461338
461769
461984
462194
462403
462609
463020
463223
463426
463631
463835
464254
464464
464675
465099
465307
465516
465728
465939
466369
466588
466805
467023
467242
467352
467644
467873
468102
468328
468552
468993
469212
469429
469647
469863
470295
470510
470722
470934
471148
471361
471574
471789
472003
472427
472635
472842
473047
473252
473662
473865
474068
474271
474471
474879
475082
475284
475489
475698
475908
476122
476228
476560
476781
477003
477440
477662
477884
478315
478532
478746
479170
479383
479598
479812
480029
480247
480466
480572
480901
481118
481332
481758
481971
482179
482394
482610
482827
483050
483498
483725
483952
484177
484398
484518
484837
485051
485263
485690
485902
486116
486331
486546
486762
486978
487193
487408
487623
487839
488054
488268
488698
488917
489140
489363
489585
489809
490038
490270
490498
490952
491181
491407
491549
491816
492044
492274
492504
492732
492962
493195
493652
493887
494119
494345
494573
495014
495239
495462
495686
495912
496362
496592
496827
497065
497301
497544
497782
498019
498253
498486
498718
498948
499183
499413
499643
499871
500100
500325
500549
500778
501004
501234
501466
501698
501930
502164
502397
502629
502856
503082
503304
503525
503746
504180
504402
504623
504841
505059
505498
505720
505943
506162
506376
506594
506810
507031
507254
507484
507717
507952
508189
508431
508672
508911
509154
509392
509625
510071
510295
510516
510735
510952
511388
511605
511819
512035
512253
512469
512690
512915
513142
513373
513611
513853
514092
514335
514450
514807
515046
515280
515509
515737
516178
516394
516612
516830
517051
517494
517724
517957
518199
518439
518677
518917
519161
519404
519866
520098
520327
520553
520776
521217
521441
521662
521883
522104
522324
522550
522779
523009
523242
523479
523719
523957
524197
524324
524657
524882
