peaks
75055
75262
75471
75682
75890
76028
76289
76513
76727
76947
77165
77384
77601
77817
78033
78240
78453
78666
78873
79080
79286
79488
79695
79905
80116
80330
80535
80749
80965
81179
81396
81610
81827
82049
82266
82483
82705
82923
83143
83358
83578
83799
84012
84227
84443
84655
84866
85075
85283
85497
85707
85915
86127
86337
86556
86768
86978
87195
87409
87624
87841
88049
88263
88478
88689
88903
89115
89322
89530
89738
89945
90153
90353
90553
90759
90961
91168
91376
91583
91796
92003
92212
92424
92631
92845
93060
93269
93481
93695
93906
94120
94330
94537
94746
94952
95162
95370
95579
95794
96011
96226
96450
96668
96882
97099
97314
97460
97753
97971
98138
98415
98637
98853
99062
99277
99490
99701
99917
100132
100347
100560
100774
100992
101210
101427
101651
101870
102089
102315
102535
102704
102979
103195
103417
103638
103860
104032
104295
104518
104684
104955
105173
105337
105598
105807
106014
106223
106432
106642
106857
107067
107275
107489
107651
107918
108134
108299
108565
108772
108980
109187
109392
109602
109812
110018
110235
110454
110675
110897
111115
111282
111556
111767
111981
112195
112406
112623
112832
113047
113266
113483
113647
113920
114130
114347
114560
114776
114993
115131
115418
115635
115849
116064
116271
116486
116653
116919
117136
117304
117567
117786
117951
118210
118419
118628
118834
119037
119240
119404
119650
119853
120065
120232
120486
120702
120866
121128
121342
121554
121762
121970
122178
122393
122605
122817
123031
123193
123450
123664
123874
124045
124296
124504
124679
124926
125138
125350
125513
125758
125966
126170
126377
126583
126782
126988
127194
127400
127611
127820
128027
128238
128448
128658
128861
129074
129281
129490
129702
129919
130133
130354
130577
130797
131020
131244
131472
131703
131929
132153
132373
132596
132819
133040
133255
133477
133697
133845
134137
134357
134575
134724
134995
135209
135418
135622
135839
136050
136265
136408
136694
136910
137122
137336
137549
137756
137968
138181
138393
138610
138820
139035
139255
139474
139692
139904
140121
140345
140561
140777
140997
141214
141435
141651
141871
142094
142308
142519
142734
142946
143162
143371
143581
143803
144015
144229
144448
144663
144876
145091
145304
145516
145727
145937
146144
146353
146568
146784
146995
147209
147426
147642
147861
147984
148244
148471
148688
148906
149115
149332
149552
149766
149976
150191
150406
150626
150843
151056
151279
151498
151715
151935
152156
152382
152598
152813
153037
153259
153379
153652
153882
154110
154328
154550
154718
154995
155120
155391
155615
155833
156050
156273
156499
156714
156936
157163
157383
157607
157831
158058
158226
158507
158736
158857
159123
159355
159577
159798
160022
160185
160460
160585
160848
161076
161290
161456
161732
161953
162123
162265
162605
162825
163034
163243
163415
163668
163886
164053
164324
164549
164715
164986
165211
165376
165647
165866
166033
166313
166528
166744
166964
167185
167409
167574
167850
168077
168242
168526
168750
168974
169201
169418
169585
169873
170101
170274
170549
170770
170937
171196
171408
171615
171826
172043
172254
172420
172606
172879
173107
173325
173547
173719
173919
174219
174445
174662
174876
175050
175228
175528
175741
175953
176081
176348
176580
176801
177022
177195
177475
177693
177864
178137
178361
178535
178795
178941
179236
179452
179668
179886
180108
180326
180549
180778
180995
181224
181454
181678
181900
182119
182346
182560
182776
183000
183220
183441
183659
183881
184105
184324
184530
184759
184977
185192
185406
185619
185841
186056
186268
186485
186703
186930
187155
187377
187617
187859
188095
188332
188572
188816
189050
189294
189540
189778
190019
190261
190501
190735
190974
191212
191451
191689
191921
192161
192330
192624
192848
193022
193296
193522
193689
193972
194191
194359
194646
194871
195044
195320
195541
195713
195990
196215
196393
196649
196877
197052
197333
197486
197666
198012
198224
198407
198674
198889
199057
199334
199559
199734
200009
200242
200412
200701
200928
201098
201390
201618
201790
202078
202307
202491
202761
202991
203175
203462
203692
203871
204147
204373
204532
204641
204819
204973
205137
205489
205725
205895
206196
206423
206597
206899
207136
207317
207597
207833
208064
208293
208528
208769
209017
209254
209489
209737
209987
210232
210466
210714
210960
211195
211423
211665
211914
212148
212378
212613
212853
213085
213314
213540
213774
214003
214241
214477
214714
214942
215186
215434
215678
215842
216149
216290
216626
216852
217085
217322
217564
217801
218036
218284
218465
218768
219001
219173
219479
219713
219945
220174
220415
220656
220894
221130
221373
221622
221863
222097
222333
222576
222820
223050
223222
223529
223766
224000
224236
224480
224725
224966
225205
225374
225686
225916
226089
226373
226509
226677
227038
227260
227429
227640
227925
228093
228378
228609
228782
229067
229291
229459
229750
229981
230149
230442
230669
230845
231129
231358
231544
231811
232045
232247
232506
232739
232977
233221
233397
233677
233899
234066
234350
234575
234744
235026
235255
235440
235711
235933
236129
236383
236614
236782
237065
237292
237458
237756
237986
238154
238448
238680
238918
239154
239388
239632
239878
240133
240382
240630
240883
241141
241396
241642
241878
242118
242361
242601
242773
243070
243302
243537
243766
243991
244233
244471
244710
244938
245174
245418
245583
245890
246123
246359
246598
246831
247067
247304
247546
247781
248021
248269
248509
248746
248984
249225
249467
249697
249940
250178
250419
250651
250894
251145
251387
251622
251792
252101
252341
252569
252803
253039
253281
253454
253739
253976
254209
254445
254677
254909
255081
255378
255611
255780
256077
256311
256478
256765
257001
257234
257465
257700
257948
258118
258418
258666
258908
259142
259372
259544
259840
260061
260235
260514
260734
260952
261175
261396
261617
261786
262086
262319
262547
262775
263012
263255
263488
263722
263963
264202
264378
264675
264918
265156
265392
265622
265861
266105
266346
266518
266826
267069
267312
267547
267791
267966
268265
268507
268744
268982
269205
269440
269682
269925
270065
270388
270630
270870
271107
271354
271597
271836
272077
272249
272572
272807
273050
273293
273431
273779
274012
274248
274488
274729
274962
275200
275443
275687
275923
276165
276413
276657
276899
277137
277378
277626
277868
278106
278344
278585
278831
279063
279305
279544
279783
280017
280249
280495
280736
280975
281208
281444
281691
281928
282161
282393
282637
282881
283123
283361
283601
283846
284092
284335
284574
284818
285063
285303
285540
285782
286025
286271
286509
286753
286997
287241
287483
287726
287974
288214
288450
288692
288940
289183
289421
289671
289917
290155
290403
290651
290894
291134
291373
291615
291849
292081
292321
292569
292809
293046
293292
293532
293761
293993
294202
294391
294672
294895
295115
295345
295582
295808
296043
296285
296530
296758
296990
297231
297468
297699
297932
298165
298405
298642
298874
299114
299360
299606
299842
300090
300334
300583
300817
301062
301305
301543
301783
302028
302271
302514
302745
302989
303227
303472
303709
303948
304196
304440
304676
304911
305154
305402
305642
305882
306124
306374
306604
306856
307098
307336
307577
307809
308047
308280
308501
308732
308969
309199
309427
309663
309901
310136
310364
310601
310839
311077
311307
311537
311776
312014
312254
312485
312722
312963
313204
313441
313678
313921
314161
314400
314641
314884
315044
315366
315599
315771
316070
316306
316475
316773
317005
317176
317464
317696
317906
318158
318394
318638
318876
319114
319361
319614
319861
320031
320344
320591
320839
321074
321312
321558
321799
322042
322290
322542
322787
323022
323268
323512
323760
323997
324239
324486
324733
324975
325208
325454
325696
325938
326173
326416
326664
326903
327140
327382
327628
327874
328108
328354
328599
328840
329073
329297
329472
329768
329912
330224
330458
330695
330927
331157
331394
331631
331872
332102
332344
332588
332831
333067
333301
333551
333796
334033
334193
334502
334744
334976
335206
335441
335677
335913
336143
336317
336626
336862
337093
337329
337571
337805
338039
338284
338530
338781
339017
339261
339506
339752
339995
340231
340482
340721
340956
341201
341444
341683
341921
342169
342415
342652
342904
343152
343403
343643
343895
344143
344391
344631
344878
345131
345378
345617
345862
346110
346360
346598
346843
347087
347331
347567
347810
348063
348309
348547
348791
349044
349287
349521
349759
350000
350246
350486
350722
350963
351208
351453
351691
351936
352183
352429
352667
352913
353160
353401
353639
353886
354132
354374
354606
354848
355088
355328
355563
355801
356048
356292
356531
356772
357018
357267
357510
357750
357996
358246
358492
358729
358976
359221
359464
359700
359942
360191
360434
360671
360908
361154
361403
361639
361881
362127
362372
362610
362854
363086
363309
363544
363772
364010
364250
364480
364711
364954
365196
365435
365666
365909
366149
366392
366520
366796
367047
367287
367532
367769
368017
368265
368513
368757
369003
369259
369506
369748
369999
370246
370491
370731
370983
371232
371479
371620
371962
372210
372447
372691
372935
373177
373413
373653
373901
374148
374389
374631
374877
375129
375374
375617
375866
376118
376363
376601
376855
377103
377354
377596
377848
378100
378349
378592
378833
379084
379332
379580
379822
380069
380322
380568
380809
381059
381308
381557
381793
382043
382290
382533
382769
383013
383260
383499
383736
383973
384217
384460
384695
384937
385180
385425
385662
385908
386156
386393
386634
386884
387135
387375
387618
387869
388112
388352
388599
388849
389093
389325
389571
389818
390062
390297
390541
390786
391028
391264
391502
391631
391927
392169
392413
392654
392899
393140
393376
393623
393753
394045
394294
394487
394782
395022
395197
395496
395738
395910
396210
396449
396619
396927
397160
397330
397641
397878
398054
398354
398596
398770
399067
399310
399481
399787
400020
400188
400492
400661
400961
401198
401344
401671
401823
402138
402377
402554
402851
403083
403259
403556
403698
403890
404249
404484
404662
404951
405183
405363
405649
405794
406123
406358
406531
406836
407069
407302
407504
407779
408017
408247
408485
408728
408867
409200
409437
409679
409916
410154
410387
410625
410871
411111
411349
411588
411830
412077
412317
412555
412798
413043
413285
413520
413766
414004
414241
414473
414711
414953
415189
415428
415671
415915
416161
416396
416638
416803
417121
417355
417591
417832
418069
418306
418547
418794
419038
419271
419519
419766
420011
420247
420491
420739
420917
421222
421465
421707
421945
422176
422420
422663
422820
423136
423378
423514
423853
424087
424261
424551
424786
424958
425247
425483
425655
425956
426182
426360
426657
426891
427072
427351
427593
427773
428063
428286
428461
428757
428939
429112
429440
429672
429848
430132
430356
430528
430819
431054
431228
431521
431761
431930
432235
432466
432637
432941
433176
433349
433644
433882
434053
434352
434588
434760
435055
435288
435463
435754
435982
436160
436449
436682
436860
437142
437377
437554
437841
438067
438241
438534
438765
438942
439229
439461
439697
439927
440162
440335
440644
440889
441124
441356
441595
441836
442078
442312
442486
442780
443018
443256
443483
443727
443972
444218
444456
444690
444939
445183
445435
445671
445848
446162
446304
446649
446880
447117
447357
447595
447831
448067
448312
448553
448786
449030
449274
449522
449755
450001
450247
450490
450727
450971
451224
451464
451700
451947
452189
452437
452670
452912
453159
453405
453645
453874
454121
454368
454614
454847
455089
455340
455587
455829
456071
456320
456568
456808
457060
457307
457554
457787
458029
458274
458515
458752
458987
459231
459382
459717
459952
460188
460429
460669
460903
461139
461380
461626
461861
462103
462348
462590
462827
463069
463313
463551
463787
464033
464277
464526
464759
465001
465247
465491
465729
465970
466217
466464
466704
466950
467193
467439
467671
467922
468163
468397
468634
468871
469118
469354
469593
469837
470080
470325
470565
470815
471062
471304
471538
471781
472036
472285
472526
472767
473013
473262
473501
473749
473993
474241
474479
474724
474952
475191
475436
475669
475910
476153
476396
476642
476881
477132
477382
477629
477864
478106
478360
478604
478845
479098
479326
479553
479768
479986
480200
480410
480620
480826
481034
481213
481450
481626
481871
482076
482243
482488
482693
482896
483102
483310
483521
483726
483940
484159
484373
484546
484803
485015
485229
485438
485652
485869
486050
486293
486445
486608
486943
487165
487382
487596
487812
488034
488258
488474
488700
488929
489161
489393
489614
489781
490066
490284
490452
490728
490955
491120
491394
491623
491786
492079
492302
492465
492765
492990
493157
493448
493678
493848
494138
494368
494539
494835
495069
495238
495528
495761
495930
496223
496447
496617
496914
497143
497316
497595
497826
497963
498284
498508
498676
498964
499193
499364
499651
499880
500111
500286
500566
500801
500970
501265
501501
501724
501898
502198
502435
502611
502898
503132
503303
503601
503835
504003
504302
504539
504707
505014
505247
505483
505653
505945
506179
506349
506635
506863
507034
507324
507547
507697
507999
508228
508402
508677
508905
509073
509350
509571
509738
510020
510242
510466
510639
510911
511141
511315
511585
511812
511979
512264
512439
512710
512938
513167
513396
513575
513852
514086
514256
514542
514772
514939
515232
515458
515625
515913
516139
516307
516594
516814
516984
517269
517498
517718
517887
518178
518408
518579
518858
519085
519314
519485
519612
519767
519978
520202
520433
520655
520823
521020
521345
521569
521726
522009
522248
522477
522704
522875
523065
523409
523639
523866
524093
524257
524558
524786
524954
