peaks
75133
75312
75490
75670
75852
76033
76211
76386
76564
76740
76914
77087
77262
77435
77606
77777
77946
78116
78283
78450
78609
78779
78943
79105
79218
79428
79590
79753
79915
80079
80242
80404
80569
80736
80900
81064
81230
81397
81564
81728
81892
82056
82222
82387
82551
82716
82882
83046
83211
83375
83538
83701
83863
83974
84186
84299
84511
84626
84832
84995
85157
85318
85481
85645
85807
85969
86130
86293
86457
86630
86801
86971
87141
87309
87477
87644
87810
87975
88142
88308
88474
88640
88805
88968
89133
89297
89464
89629
89794
89955
90113
90271
90429
90587
90745
90902
91061
91223
91385
91549
91712
91877
91985
92208
92374
92515
92708
92875
93042
93208
93376
93546
93712
93837
94045
94211
94376
94540
94706
94874
95045
95215
95385
95555
95727
95897
96067
96237
96411
96525
96634
96929
97105
97274
97440
97607
97774
97941
98107
98270
98432
98594
98756
98919
99081
99243
99403
99564
99723
99882
100040
100149
100356
100515
100632
100833
100995
101156
101314
101473
101631
101790
101947
102103
102260
102417
102573
102732
102893
103052
103214
103376
103544
103712
103879
104048
104221
104390
104561
104730
104899
105070
105238
105405
105571
105739
105904
106068
106233
106399
106566
106731
106897
107061
107225
107390
107552
107653
107876
108038
108199
108360
108522
108621
108849
109015
109181
109349
109516
109684
109851
110021
110189
110355
110522
110687
110852
111016
111184
111353
111525
111698
111798
112042
112216
112389
112561
112733
112901
113068
113234
113399
113563
113669
113888
114053
114215
114376
114537
114638
114859
115021
115181
115340
115500
115658
115817
115977
116137
116297
116412
116616
116777
116878
117103
117216
117434
117555
117766
117887
118017
118264
118383
118597
118762
118928
119099
119270
119441
119613
119786
119960
120133
120304
120474
120646
120816
120986
121154
121323
121488
121653
121818
121983
122149
122317
122434
122655
122826
122996
123168
123337
123509
123678
123845
124013
124182
124347
124512
124676
124839
125003
125165
125327
125488
125650
125811
125972
126131
126292
126457
126621
126787
126955
127120
127285
127392
127615
127780
127946
128111
128277
128443
128611
128778
128944
129059
129270
129435
129597
129759
129862
130081
130243
130406
130570
130735
130900
131066
131234
131401
131567
131736
131905
132071
132236
132404
132574
132742
132911
133017
133246
133414
133579
133744
133908
134075
134240
134404
134569
134673
134898
135065
135228
135396
135563
135730
135895
136064
136231
136398
136564
136730
136834
137058
137224
137389
137552
137714
137876
138040
138202
138365
138526
138688
138850
139009
139169
139329
139490
139650
139813
139975
140137
140299
140462
140624
140786
140950
141113
141277
141439
141600
141701
141923
142086
142247
142408
142567
142727
142889
143053
143216
143381
143547
143714
143881
144047
144213
144380
144546
144710
144875
145038
145205
145371
145540
145709
145878
146049
146217
146385
146552
146721
146888
147054
147220
147385
147550
147716
147881
148048
148216
148382
148547
148712
148878
149043
149208
149374
149538
149702
149864
149975
150184
150346
150505
150666
150828
150993
151159
151329
151497
151604
151829
151999
152164
152329
152493
152657
152821
152983
153149
153317
153480
153645
153808
153970
154130
154291
154453
154617
154784
154950
155048
155285
155454
155621
155787
155954
156085
156292
156411
156628
156799
156969
157140
157314
157487
157658
157831
158003
158177
158350
158524
158698
158873
159047
159222
159397
159571
159744
159917
160090
160260
160428
160597
160767
160937
161105
161274
161444
161613
161780
161948
162118
162288
162456
162625
162794
162964
163133
163301
163471
163641
163810
163979
164149
164321
164492
164662
164833
165004
165172
165341
165511
165680
165846
166014
166182
166348
166516
166686
166855
167025
167193
167366
167538
167712
167888
168058
168227
168396
168566
168736
168904
169076
169248
169361
169594
169719
169931
170098
170264
170430
170595
170758
170922
171085
171193
171411
171536
171738
171901
172062
172224
172388
172555
172723
172893
173061
173231
173400
173567
173735
173902
174071
174185
174405
174574
174741
174906
175071
175239
175407
175575
175743
175913
176083
176251
176417
176583
176750
176916
177083
177253
177420
177587
177755
177922
178089
178257
178426
178596
178768
178936
179104
179275
179448
179624
179798
179971
180141
180312
180483
180650
180817
180984
181147
181307
181466
181623
181779
181935
182090
182244
182397
182551
182705
182859
183014
183168
183328
183485
183641
183797
183953
184109
184264
184420
184576
184732
184889
185048
185210
185370
185531
185691
185806
186008
186143
186326
186486
186590
186810
186973
187133
187293
187453
187611
187769
187926
188083
188238
188393
188547
188700
188854
189006
189158
189308
189458
189609
189758
189906
190056
190204
190353
190501
190649
190796
190944
191090
191237
191384
191530
191679
191826
191974
192122
192270
192419
192567
192715
192864
193013
193161
193308
193455
193602
193749
193897
194047
194198
194347
194500
194602
194803
194957
195109
195261
195414
195566
195719
195871
196024
196177
196330
196484
196637
196793
196948
197103
197259
197416
197573
197729
197886
198042
198200
198357
198514
198672
198830
198990
199151
199310
199469
199629
199788
199948
200107
200265
200425
200584
200742
200901
201059
201220
201378
201537
201697
201857
202017
202178
202341
202505
202669
202834
203001
203167
203332
203498
203664
203831
203998
204168
204331
204496
204658
204822
204988
205155
205325
205496
205664
205834
205946
206178
206347
206515
206684
206851
207019
207188
207356
207526
207695
207865
208029
208193
208356
208518
208681
208841
209000
209161
209322
209483
209582
209805
209969
210132
210232
210459
210621
210783
210895
211104
211212
211421
211581
211682
211892
212049
212203
212358
212514
212672
212770
212988
213150
213309
213410
213613
213784
213942
214097
214253
214414
214574
214733
214894
215054
215216
215376
215537
215700
215865
216028
216189
216351
216510
216622
216828
216952
217147
217279
217464
217621
217779
217934
218091
218246
218354
218555
218712
218867
219021
219175
219328
219482
219635
219786
219938
220087
220237
220385
220532
220679
220825
220975
221124
221272
221420
221568
221714
221861
222009
222155
222302
222437
222593
222742
222891
223038
223141
223338
223491
223643
223796
223950
224104
224257
224410
224563
224715
224866
225016
225166
225266
225467
225620
225772
225925
226077
226191
226382
226537
226691
226845
226998
227153
227306
227460
227615
227771
227925
228078
228231
228385
228536
228686
228838
228936
229140
229297
229450
229605
229760
229915
230069
230224
230379
230532
230685
230836
230987
231090
231289
231441
231594
231747
231901
232055
232209
232322
232519
232675
232833
232989
233147
233305
233420
233620
233776
233929
234082
234233
234383
234536
234691
234844
234995
235148
235301
235451
235601
235752
235902
236053
236202
236352
236502
236651
236800
236948
237098
237246
237398
237502
237705
237861
238015
238168
238323
238477
238631
238786
238941
239097
239255
239411
239568
239726
239883
240038
240192
240347
240499
240653
240807
240963
241119
241273
241427
241581
241736
241890
242044
242199
242353
242507
242663
242819
242976
243133
243289
243444
243599
243755
243910
244010
244223
244379
244535
244648
244770
245007
245166
245319
245473
245576
245778
245931
246086
246188
246393
246549
246704
246860
246960
247084
247333
247492
247644
247802
247959
248117
248272
248428
248584
248740
248850
249057
249176
249281
249525
249684
249842
249997
250153
250310
250469
250630
250791
250953
251116
251280
251445
251609
251775
251943
252112
252280
252448
252617
252789
252958
253119
253287
253452
253616
253782
253948
254113
254276
254440
254605
254768
254931
255095
255260
255425
255591
255759
255929
256095
256262
256427
256596
256767
256934
257043
257273
257446
257614
257781
257946
258113
258278
258440
258552
258759
258918
259076
259233
259337
259551
259677
259871
260032
260194
260358
260525
260691
260858
261022
261184
261344
261445
261662
261782
261979
262135
262291
262447
262605
262764
262927
263090
263189
263414
263580
263741
263900
264059
264165
264270
264529
264651
264842
264996
265123
265218
265454
265564
265758
265910
266062
266215
266367
266519
266670
266824
266979
267135
267295
267458
267626
267744
267953
268066
268273
268432
268592
268698
268912
269072
269232
269393
269554
269715
269874
270033
270195
270356
270516
270676
270837
270999
271160
271325
271491
271658
271824
271923
272156
272324
272492
272658
272827
272996
273164
273332
273501
273671
273840
274007
274180
274350
274516
274683
274848
275015
275182
275349
275518
275691
275867
276042
276220
276398
276579
276758
276935
277114
277291
277469
277644
277821
277996
278172
278347
278522
278696
278869
279040
279215
279390
279564
279738
279911
280086
280259
280434
280610
280784
280959
281132
281306
281482
281657
281833
282011
282189
282365
282540
282721
282900
283081
283267
283458
283649
283837
284034
284127
284423
284615
284808
284999
285190
285379
285570
285759
285945
286050
286319
286502
286686
286872
287062
287250
287436
287624
287720
287997
288182
288365
288552
288737
288922
289108
289297
289485
289674
289863
290048
290230
290414
290598
290782
290965
291148
291332
291515
291695
291876
292057
292238
292418
292599
292719
292960
293140
293317
293491
293666
293845
294023
294197
294371
294545
294722
294898
295073
295247
295421
295596
295769
295941
296115
296288
296461
296633
296805
296977
297148
297320
297493
297665
297838
298009
298179
298350
298521
298691
298858
299026
299194
299364
299537
299716
299890
300068
300244
300423
300599
300777
300957
301137
301318
301497
301677
301859
302037
302215
302395
302577
302757
302936
303115
303296
303476
303654
303833
304015
304197
304380
304560
304743
304926
305106
305285
305467
305648
305827
306007
306189
306373
306555
306739
306923
307106
307286
307466
307648
307828
308008
308187
308370
308551
308733
308913
309094
309275
309454
309632
309814
309999
310182
310365
310550
310734
310918
311104
311289
311472
311654
311838
312027
312212
312396
312577
312758
312939
313119
313299
313480
313661
313839
314018
314195
314373
314552
314732
314911
315093
315273
315453
315634
315816
315997
316178
316362
316546
316728
316908
317086
317264
317441
317617
317788
317957
318133
318311
318488
318662
318833
319002
319169
319340
319514
319694
319874
320054
320235
320418
320598
320778
320960
321142
321322
321502
321680
321857
322035
322211
322389
322564
322738
322913
323086
323258
323429
323601
323707
323944
324064
324289
324402
324637
324763
324987
325159
325332
325506
325680
325853
326026
326201
326374
326547
326720
326894
327067
327239
327413
327585
327757
327928
328099
328274
328447
328619
328794
328970
329143
329314
329486
329659
329831
330002
330175
330347
330520
330694
330870
331042
331212
331384
331556
331727
331896
332050
332232
332401
332569
332739
332909
333079
333249
333420
333590
333758
333927
334098
334269
334442
334616
334789
334965
335143
335320
335497
335675
335853
336030
336205
336379
336552
336726
336898
337068
337238
337409
337579
337750
337920
338090
338259
338429
338600
338770
338939
339109
339284
339467
339642
339821
340003
340182
340363
340539
340719
340897
341075
341250
341427
341600
341774
341946
342065
342290
342433
342634
342806
342979
343151
343326
343498
343669
343841
344015
344191
344366
344544
344723
344902
345085
345273
345452
345633
345813
345994
346174
346352
346534
346715
346895
347075
347256
347435
347613
347788
347964
348142
348320
348496
348672
348849
349027
349203
349379
349555
349731
349908
350086
350262
350438
350614
350790
350964
351138
351313
351487
351661
351835
352011
352185
352359
352534
352709
352883
352993
353228
353403
353576
353747
353919
354091
354262
354433
354605
354776
354883
355116
355289
355461
355632
355803
355976
356148
356320
356453
356585
356832
357003
357171
357340
357509
357676
357845
358015
358185
358351
358519
358687
358856
359026
359194
359364
359508
359707
359879
360051
360223
360397
360572
360747
360921
361096
361271
361447
361622
361747
361968
362141
362314
362485
362657
362827
362999
363170
363338
363508
363680
363853
364024
364196
364368
364541
364714
364888
365061
365235
365405
365574
365743
365913
366082
366252
366420
366588
366754
366921
367086
367252
367417
367587
367753
367920
368087
368256
368423
368594
368766
368939
369114
369288
369407
369637
369812
369985
370157
370325
370433
370656
370775
370986
371154
371324
371492
371660
371830
372001
372171
372340
372509
372678
372847
373014
373184
373352
373521
373690
373860
374031
374202
374372
374546
374718
374890
375063
375238
375413
375587
375761
375934
376107
376281
376458
376633
376806
376978
377149
377319
377489
377659
377830
378000
378170
378339
378508
378676
378823
378925
379172
379339
379502
379666
379825
379986
380152
380294
380478
380644
380805
380922
381125
381286
381443
381601
381762
381924
382093
382261
382430
382599
382768
382936
383106
383273
383441
383606
383779
383957
384137
384315
384495
384676
384854
385032
385211
385390
385567
385742
385916
386091
386265
386440
386614
386789
386964
387135
387305
387472
387637
387801
387965
388128
388290
388453
388615
388778
388941
389105
389269
389435
389543
389767
389883
390102
390219
390317
390605
390779
390948
391117
391283
391452
391621
391789
391956
392123
392288
392452
392617
392783
392948
393113
393278
393443
393610
393776
393943
394111
394278
394446
394614
394782
394952
395122
395292
395463
395586
395804
395974
396147
396265
396490
396660
396828
396995
397162
397326
397491
397653
397816
397978
398140
398302
398463
398626
398789
398957
399124
399290
399460
399628
399796
399962
400129
400297
400464
400631
400797
400965
401132
401297
401464
401631
401798
401918
402129
402296
402460
402624
402787
402950
403114
403276
403438
403601
403763
403924
404085
404246
404407
404567
404728
404888
405049
405208
405366
405514
405680
405837
405937
406148
406306
406462
406617
406772
406925
407080
407233
407387
407539
407692
407843
407994
408144
408294
408443
408592
408742
408892
409042
409194
409346
409498
409650
409802
409952
410104
410256
410377
410558
410708
410857
411006
411156
411311
411469
411630
411793
411959
412121
412279
412434
412536
412739
412894
413044
413196
413349
413503
413659
413815
413971
414128
414285
414391
414596
414753
414908
415061
415216
415368
415519
415672
415785
415974
416126
416275
416423
416572
416720
416868
417015
417162
417307
417452
417599
417745
417890
418036
418183
418330
418479
418629
418780
418933
419084
419237
419393
419550
419705
419861
420015
420168
420321
420473
420625
420776
420928
421083
421238
421394
421550
421705
421865
422025
422185
422347
422508
422670
422834
422999
423162
423326
423489
423650
423810
423968
424126
424283
424438
424593
424748
424901
425053
425205
425356
425507
425656
425806
425955
426103
426250
426397
426544
426689
426836
426982
427128
427274
427420
427566
427713
427861
428006
428153
428301
428447
428597
428748
428900
429053
429206
429362
429517
429673
429831
429991
430149
430310
430470
430630
430789
430953
431119
431283
431447
431605
431768
431927
432036
432249
432360
432575
432688
432904
433018
433232
433353
433556
433671
433876
433995
434197
434355
434515
434675
434843
435012
435184
435362
435549
435733
435920
436106
436294
436478
436658
436832
437005
437176
437349
437527
437701
437875
438046
438215
438385
438557
438730
438906
439080
439251
439422
439587
439758
439927
440093
440261
440430
440599
440699
440944
441118
441293
441395
441645
441824
442003
442181
442364
442549
442738
442927
443112
443290
443470
443646
443820
443992
444165
444339
444510
444681
444853
445029
445204
445380
445556
445736
445916
446095
446275
446458
446641
446824
447006
447187
447368
447550
447730
447908
448085
448263
448440
448617
448792
448967
449141
449313
449484
449654
449824
449994
450169
450347
450529
450710
450889
451070
451248
451426
451603
451780
451957
452133
452309
452484
452658
452835
453009
453184
453357
453531
453703
453877
454054
454229
454402
454505
454745
454881
455086
455256
455426
455595
455762
455928
456095
456266
456435
456604
456774
456945
457115
457292
457465
457638
457812
457913
458024
458320
458489
458655
458823
458993
459164
459334
459504
459674
459845
460018
460196
460371
460551
460725
460899
461075
461251
461427
461606
461780
461955
462126
462296
462469
462644
462820
462997
463171
463345
463519
463693
463868
464043
464218
464392
464564
464671
464908
465081
465253
465421
465588
465755
465922
466092
466260
466430
466601
466774
466948
467122
467293
467463
467635
467808
467984
468160
468333
468508
468682
468853
469024
469197
469373
469548
469724
469894
470064
470234
470407
470580
470755
470927
471102
471278
471460
471641
471825
472004
472183
472361
472471
472713
472891
473065
473237
473409
473584
473757
473932
474108
474286
474462
474636
474813
474991
475171
475350
475528
475706
475882
476056
476231
476406
476583
476755
476925
477093
477195
477428
477550
477765
477936
478076
478275
478446
478612
478780
478947
479113
479278
479444
479613
479780
479948
480118
480289
480461
480636
480812
480989
481165
481340
481513
481685
481858
482031
482201
482372
482542
482714
482884
483054
483223
483391
483558
483723
483890
484057
484225
484396
484566
484733
484900
485066
485230
485396
485562
485728
485893
486061
486229
486397
486568
486737
486905
487075
487248
487423
487602
487781
487958
488132
488305
488479
488654
488828
489005
489182
489360
489534
489709
489883
490057
490235
490409
490585
490757
490929
491104
491277
491448
491621
491795
491969
492142
492316
492489
492659
492827
492994
493160
493330
493434
493670
493839
494006
494174
494340
494506
494676
494849
495022
495196
495369
495541
495716
495891
496065
496236
496410
496586
496761
496937
497109
497279
497449
497618
497786
497956
498125
498294
498463
498630
498784
498959
499121
499229
499442
499609
499779
499948
500123
500294
500469
500643
500815
500990
501101
501338
501460
501685
501813
502023
502191
502359
502527
502696
502869
503040
503212
503389
503564
503735
503906
504078
504253
504428
504601
504779
504956
505134
505312
505489
505664
505838
506008
506176
506344
506508
506672
506839
507004
507174
507345
507461
507688
507858
508027
508194
508363
508533
508636
508872
509044
509214
509384
509558
509730
509903
510080
510257
510432
510548
510779
510895
511124
511252
511463
511633
511803
511972
512139
512309
512481
512655
512830
513003
513175
513348
513520
513692
513865
514039
514210
514323
514547
514717
514884
515047
515211
515378
515545
515709
515874
516039
516202
516319
516527
516691
516855
517019
517186
517355
517522
517689
517854
518020
518184
518349
518516
518685
518852
518962
519187
519357
519524
519692
519858
520024
520192
520359
520530
520701
520873
521047
521222
521395
521567
521669
521914
522089
522261
522431
522600
522769
522938
523107
523273
523379
523602
523721
523932
524097
524261
524425
524591
524759
524929
