peaks
75089
75281
75440
75581
75692
75914
76038
76238
76479
76646
76819
76957
77044
77201
77368
77491
77683
77838
78031
78252
78386
78594
78772
78883
79051
79269
79401
79552
79724
79851
80035
80149
80324
80484
80608
80758
80957
81110
81277
81437
81627
81809
82058
82285
82515
82711
82976
83139
83352
83563
83785
83974
84220
84447
84594
84840
85112
85283
85509
85674
85858
86046
86234
86418
86599
86761
86900
87074
87328
87512
87741
87875
88055
88273
88452
88612
88858
89043
89281
89444
89609
89775
90004
90152
90399
90581
90759
90968
91157
91400
91550
91796
91993
92157
92389
92578
92730
92903
93095
93350
93567
93739
93929
94097
94208
94427
94655
94843
94975
95165
95369
95585
95772
95933
96187
96351
96521
96762
96953
97101
97299
97509
97724
97892
98128
98339
98475
98622
98777
98924
99064
99309
99436
99642
99868
100030
100277
100448
100647
100823
100954
101139
101341
101501
101690
101900
102061
102307
102458
102641
102881
103009
103198
103429
103596
103769
103931
104084
104233
104368
104535
104701
104898
105053
105227
105414
105589
105771
106023
106178
106344
106559
106778
106943
107133
107320
107547
107770
107940
108145
108340
108475
108621
108793
108999
109262
109445
109643
109814
110042
110272
110501
110702
110858
111054
111298
111460
111662
111854
112025
112171
112366
112566
112662
112816
112975
113143
113323
113499
113683
113779
113936
114127
114327
114556
114764
114978
115104
115300
115536
115728
115921
116136
116268
116477
116625
116806
116968
117133
117373
117595
117750
117947
118065
118237
118452
118579
118757
118927
119148
119278
119490
119735
119938
120146
120322
120493
120708
120934
121069
121248
121451
121581
121771
121986
122159
122373
122600
122804
122911
123088
123308
123507
123647
123854
124043
124213
124411
124601
124779
124968
125149
125329
125459
125639
125754
125931
126107
126257
126433
126659
126949
127145
127329
127489
127657
127862
128075
128301
128465
128706
128853
129032
129248
129379
129577
129743
129881
130034
130230
130484
130657
130834
131029
131210
131429
131624
131780
131975
132206
132403
132655
132896
133120
133307
133454
133596
133741
133880
134000
134155
134297
134468
134618
134759
134945
135085
135227
135349
135455
135563
135704
135864
135981
136091
136197
136316
136419
136564
136668
136879
136983
137084
137322
137417
137561
137758
137874
137998
138119
138285
138447
138580
138773
138947
139101
139228
139326
139461
139561
139674
139848
139974
140080
140219
140411
140528
140741
140846
141067
141181
141380
141491
141632
141785
141892
142066
142174
142350
142477
142591
142787
142899
143126
143283
143497
143611
143900
144013
144106
144303
144409
144630
144736
144910
145083
145259
145375
145639
145776
145951
146097
146195
146420
146532
146749
146928
147130
147268
147447
147577
147687
147958
148071
148299
148460
148691
148902
149099
149295
149486
149683
149830
150081
150285
150494
150690
150960
151216
151440
151633
151784
152067
152233
152479
152691
152940
153133
153304
153499
153763
153963
154150
154339
154510
154652
154880
155098
155299
155493
155669
155898
156080
156241
156416
156605
156764
156928
157158
157400
157620
157858
157985
158187
158472
158690
158874
159101
159313
159524
159708
159904
160134
160365
160564
160779
161052
161260
161463
161626
161795
161967
162090
162283
162478
162698
162820
163036
163232
163429
163587
163771
163976
164094
164281
164547
164717
164946
165169
165366
165606
165717
165824
166033
166154
166361
166479
166700
166863
167069
167259
167471
167660
167835
167935
168197
168399
168570
168725
168911
169093
169333
169490
169641
169869
170007
170185
170332
170450
170593
170786
170911
171161
171382
171520
171638
171894
172088
172268
172445
172574
172777
173072
173235
173414
173536
173710
173913
174038
174181
174394
174520
174776
174948
175121
175300
175450
175715
175886
176111
176297
176462
176714
176900
177112
177357
177653
177891
178068
178394
178635
178781
178962
179158
179412
179652
179882
180122
180306
180464
180704
180985
181184
181362
181511
181747
181977
182182
182338
182600
182847
183043
183339
183478
183638
183853
183979
184248
184468
184664
184962
185145
185452
185614
185788
185953
186203
186360
186543
186716
186979
187139
187277
187428
187600
187755
187861
188087
188266
188445
188621
188807
188948
189075
189257
189471
189596
189844
189956
190196
190348
190565
190837
191064
191280
191447
191608
191776
191945
192096
192211
192395
192546
192741
192984
193107
193304
193585
193722
193957
194075
194277
194404
194513
194740
194850
195037
195293
195502
195677
195804
196037
196226
196356
196565
196756
196884
197057
197346
197573
197834
197996
198196
198406
198703
198938
199124
199250
199438
199640
199844
200049
200254
200438
200687
200935
201120
201314
201522
201719
201854
202120
202276
202516
202716
202931
203136
203315
203480
203721
203896
204146
204347
204529
204738
204879
205101
205311
205498
205721
205827
206071
206285
206496
206696
206829
207057
207230
207441
207626
207833
208003
208202
208431
208597
208818
209053
209234
209444
209660
209822
210038
210317
210483
210691
210882
211072
211366
211548
211764
211950
212228
212468
212652
212834
213003
213185
213385
213572
213770
213984
214207
214503
214669
214857
215083
215186
215413
215625
215806
215934
216208
216448
216589
216806
216984
217211
217419
217630
217830
218025
218258
218480
218677
218847
219029
219266
219485
219731
219877
220043
220251
220451
220665
220874
221127
221342
221572
221723
222005
222175
222340
222501
222678
222812
222997
223209
223337
223595
223790
223996
224156
224319
224448
224560
224734
224905
225117
225240
225486
225646
225890
226125
226354
226609
226842
227139
227351
227549
227725
227882
228003
228229
228483
228684
228876
229119
229339
229529
229730
229915
230179
230389
230589
230794
231069
231351
231551
231771
231988
232218
232431
232596
232827
233037
233301
233700
233860
234064
234276
234454
234639
234805
235006
235149
235328
235562
235686
235887
236122
236306
236425
236618
236793
236956
237143
237279
237430
237618
237741
237950
238162
238296
238529
238771
238939
239146
239313
239492
239659
239845
240060
240237
240452
240639
240797
240956
241082
241271
241456
241591
241775
241891
242059
242286
242399
242584
242677
242872
243017
243121
243305
243437
243623
243803
243976
244095
244285
244484
244715
244852
245050
245239
245396
245592
245773
245903
246168
246289
246581
246695
246932
247166
247331
247524
247683
247937
248159
248437
248684
248890
249076
249381
249589
249767
250003
250311
250581
250758
250935
251224
251430
251633
251822
252114
252277
252526
252723
252894
253102
253283
253481
253739
253942
254150
254426
254536
254769
254987
255158
255315
255524
255697
255911
256093
256379
256590
256771
256989
257185
257403
257588
257785
257943
258105
258356
258475
258681
258904
259103
259290
259473
259698
259831
260021
260189
260459
260676
260834
260988
261182
261367
261507
261739
261949
262202
262425
262576
262780
263086
263261
263459
263680
263974
264255
264424
264593
264791
264986
265129
265303
265405
265680
265795
266099
266211
266438
266650
266855
267155
267415
267604
267831
268088
268435
268600
268796
269090
269292
269510
269712
269944
270216
270437
270755
270969
271090
271258
271418
271543
271803
272064
272225
272384
272579
272767
272958
273218
273405
273610
273867
274107
274320
274454
274668
274813
274987
275199
275437
275727
275922
276077
276309
276565
276785
276973
277185
277375
277525
277702
277925
278055
278378
278496
278757
278965
279215
279345
279624
279751
280038
280161
280443
280672
280926
281106
281288
281496
281781
281928
282101
282278
282408
282654
282925
283185
283381
283577
283800
284027
284308
284516
284746
284940
285082
285367
285522
285838
286066
286277
286469
286734
286873
287129
287349
287520
287763
287989
288186
288468
288643
288799
288985
289185
289391
289594
289762
289997
290152
290407
290610
290764
290955
291117
291246
291450
291663
291909
292088
292247
292433
292627
292832
293059
293233
293433
293696
293842
293997
294203
294404
294615
294823
295027
295173
295440
295692
295929
296062
296320
296443
296667
296875
297230
297351
297581
297864
298111
298359
298598
298789
298993
299172
299337
299595
299776
299986
300157
300432
300646
300868
301132
301350
301548
301729
301869
302138
302255
302373
302661
302778
303060
303278
303412
303587
303749
303939
304183
304491
304607
304849
305023
305166
305383
305592
305735
305894
306145
306278
306491
306621
306774
306962
307091
307324
307522
307724
307853
308017
308146
308431
308543
308741
308925
309129
309371
309581
309854
310046
310293
310518
310851
311040
311190
311450
311556
311657
311879
311986
312244
312354
312590
312710
312837
313021
313133
313335
313588
313780
314047
314260
314449
314667
314996
315210
315495
315701
315927
316130
316378
316565
316741
316970
317102
317378
317571
317695
317874
318136
318337
318537
318650
318895
319136
319295
319539
319747
319944
320135
320307
320474
320703
320986
321172
321354
321532
321679
321907
322074
322260
322536
322753
322945
323114
323276
323468
323681
323873
324035
324232
324535
324735
324908
325386
325566
325763
325900
326101
326262
326385
326649
326849
327070
327252
327456
327726
327934
328051
328318
328441
328739
328857
329120
329391
329700
329987
330241
330453
330739
331011
331203
331474
331737
331939
332134
332373
332547
332697
332922
333173
333336
333467
333749
333987
334223
334390
334550
334848
335118
335314
335560
335756
335991
336369
336517
336778
336953
337106
337291
337531
337706
337909
338136
338312
338478
338678
338947
339127
339370
339594
339822
340065
340306
340497
340694
340985
341206
341422
341694
341869
342069
342223
342460
342733
342974
343145
343398
343551
343809
344011
344199
344413
344695
344882
345106
345314
345490
345724
345895
346086
346320
346570
346826
347126
347362
347557
347863
348113
348355
348561
348733
348930
349137
349352
349535
349768
349953
350221
350388
350636
350903
351104
351334
351542
351800
352015
352284
352433
352628
352839
353055
353256
353401
353608
353850
354027
354190
354421
354619
354788
355030
355252
355418
355595
355787
355954
356165
356307
356495
356690
356864
357117
357332
357452
357668
357878
358003
358289
358549
358801
358969
359213
359377
359554
359725
359858
360151
360266
360516
360795
361164
361404
361574
361747
361925
362204
362413
362619
362807
363059
363417
363600
363826
363983
364227
364331
364594
364925
365148
365411
365573
365787
366068
366262
366538
366690
366936
367117
367298
367472
367691
367943
368189
368453
368679
368806
369057
369234
369416
369563
369888
370082
370264
370433
370689
370897
371109
371307
371495
371658
371789
372087
372272
372482
372707
372897
373104
373332
373545
373693
373881
373982
374197
374359
374537
374726
374921
375200
375402
375578
375748
375934
376143
376411
376625
376835
377023
377173
377411
377593
377868
378088
378243
378542
378789
378953
379136
379368
379580
379727
379990
380166
380433
380643
380931
381225
381443
381629
381802
381980
382173
382377
382631
382815
382958
383223
383432
383635
383858
384013
384255
384409
384670
385022
385289
385487
385648
385823
386083
386321
386469
386652
386829
386992
387120
387418
387520
387629
387943
388050
388236
388439
388656
388778
389046
389284
389619
389837
390065
390238
390443
390656
390847
391023
391232
391440
391742
391993
392169
392358
392544
392844
393061
393290
393471
393714
393966
394173
394346
394510
394858
395108
395286
395524
395741
395952
396154
396390
396530
396785
397124
397322
397490
397738
397901
398208
398385
398609
398783
398931
399210
399360
399611
399846
400046
400313
400536
400818
401027
401241
401442
401657
401807
401980
402249
402385
402638
402860
403107
403330
403497
403695
403912
404066
404360
404469
404706
404905
405039
405220
405477
405610
405793
405948
406148
406318
406533
406806
406983
407192
407400
407676
407917
408107
408304
408510
408779
409027
409231
409477
409707
409887
410040
410328
410540
410770
410976
411163
411442
411649
411946
412051
412310
412559
412762
412907
413177
413385
413563
413797
413965
414189
414388
414661
414813
415010
415188
415408
415605
415806
415993
416162
416425
416593
416848
417019
417189
417367
417629
417851
418020
418209
418364
418487
418772
418895
419148
419346
419551
419738
419965
420224
420434
420609
420809
421102
421358
421530
421731
421896
422055
422293
422496
422769
422997
423269
423433
423598
423841
424013
424257
424452
424641
424848
425081
425339
425526
425774
426063
426194
426412
426626
426780
427024
427247
427429
427578
427748
427935
428107
428376
428575
428756
429045
429270
429569
429784
429990
430183
430426
430720
430961
431177
431284
431508
431711
431902
432131
432320
432477
432673
432895
433098
433334
433564
433720
433893
434086
434299
434503
434700
434892
435088
435368
435562
435760
435915
436130
436352
436634
436740
436995
437143
437301
437492
437620
437813
438104
438300
438565
438767
438989
439223
439469
439638
439864
440058
440318
440506
440731
440919
441101
441368
441573
441785
442006
442152
442408
442565
442750
442927
443058
443249
443385
443617
443737
444023
444136
444378
444601
444861
445118
445287
445539
445673
445920
446178
446393
446681
446878
447014
447223
447365
447588
447805
447977
448136
448340
448531
448730
448908
449077
449269
449451
449612
449858
450089
450231
450506
450738
450977
451200
451487
451712
451885
452100
452331
452559
452785
452979
453174
453366
453603
453861
454064
454273
454457
454615
454822
455024
455240
455412
455674
455855
456118
456315
456487
456757
456957
457151
457352
457617
457854
458148
458348
458568
458800
459012
459208
459435
459577
459720
459920
460127
460396
460607
460808
461093
461281
461496
461687
461835
461999
462305
462411
462628
462917
463122
463315
463534
463740
463985
464165
464360
464519
464713
464918
465066
465256
465410
465523
465762
465970
466175
466432
466628
466877
467142
467382
467590
467783
467985
468186
468356
468576
468777
468941
469162
469407
469663
469934
470189
470385
470678
470856
471130
471367
471603
471846
472044
472308
472518
472809
473026
473254
473615
473843
474097
474291
474486
474691
474870
475072
475346
475566
475767
476043
476297
476660
476878
477067
477258
477444
477539
477611
477793
477902
478192
478303
478536
478719
478951
479089
479283
479394
479675
479793
480026
480149
480344
480578
480708
480905
481031
481326
481441
481655
481853
481979
482257
482460
482706
482957
483124
483259
483432
483649
483916
484062
484294
484538
484750
484945
485070
485344
485580
485793
485898
486045
486257
486530
486722
486944
487190
487375
487563
487805
488005
488243
488535
488693
489015
489243
489468
489712
489931
490283
490499
490744
490894
491119
491324
491608
491824
492021
492223
492468
492720
492897
493043
493189
493395
493639
493835
494120
494336
494572
494821
494973
495219
495420
495626
495828
496060
496290
496573
496772
496981
497191
497365
497611
497779
498008
498171
498425
498586
498779
498989
499289
499525
499730
499994
500214
500421
500755
501019
501199
501405
501654
501892
502133
502327
502540
502741
502975
503201
503405
503574
503712
503904
504191
504411
504610
504840
505094
505303
505459
505709
505879
506096
506333
506552
506847
507038
507296
507578
507792
508071
508253
508415
508668
508844
509074
509271
509462
509669
509930
510157
510369
510579
510830
511016
511212
511438
511603
511769
511938
512171
512349
512642
512823
513001
513196
513404
513675
513870
514121
514336
514488
514684
514845
514963
515192
515411
515720
515946
516123
516317
516568
516788
516984
517177
517404
517598
517794
518016
518193
518324
518473
518738
518937
519095
519265
519454
519647
519858
520064
520347
520557
520797
520980
521225
521471
521648
521851
522067
522276
522446
522630
522766
523012
523228
523398
523552
523741
523901
524134
524386
524533
524687
524875
