peaks
75172
75356
75545
75734
75929
76118
76221
76325
76517
76716
76920
77125
77327
77511
77693
77875
78068
78259
78446
78631
78818
78997
79176
79347
79515
79678
79836
79995
80150
80308
80465
80624
80777
80934
81036
81239
81388
81536
81685
81837
81990
82146
82303
82460
82617
82770
82926
83081
83231
83383
83538
83696
83854
84016
84187
84361
84536
84721
84913
85110
85315
85524
85738
85938
86146
86349
86554
86742
86939
87147
87358
87556
87762
87976
88191
88388
88590
88801
89014
89209
89410
89613
89818
90021
90214
90416
90624
90834
91037
91237
91442
91651
91856
92042
92234
92431
92626
92812
93002
93191
93385
93579
93760
93948
94137
94318
94500
94677
94853
95037
95220
95403
95595
95796
96001
96197
96391
96587
96789
96991
97181
97379
97592
97816
98044
98262
98489
98722
98943
99156
99376
99595
99798
100007
100218
100436
100651
100853
101068
101281
101492
101688
101892
102100
102309
102506
102700
102894
103091
103292
103483
103682
103888
104094
104287
104484
104680
104878
105075
105255
105438
105622
105813
106006
106196
106398
106614
106840
107055
107278
107504
107728
107936
108143
108352
108566
108765
108966
109178
109389
109599
109794
109994
110198
110399
110590
110786
110979
111168
111349
111538
111732
111932
112123
112319
112521
112727
112933
113154
113377
113591
113787
113983
114180
114381
114570
114763
114959
115159
115358
115557
115763
115975
116171
116370
116571
116771
116957
117137
117314
117487
117658
117831
118003
118166
118334
118502
118673
118846
119018
119183
119350
119516
119683
119853
120018
120184
120354
120537
120727
120918
121109
121289
121472
121656
121844
122030
122216
122411
122610
122813
123016
123207
123404
123602
123800
123997
124181
124366
124557
124752
124936
125128
125321
125515
125698
125886
126073
126264
126451
126631
126812
126996
127168
127341
127514
127688
127866
128048
128230
128407
128580
128756
128933
129116
129306
129492
129683
129878
130082
130291
130514
130743
130971
131183
131386
131589
131772
131949
132131
132315
132506
132709
132913
133115
133314
133510
133708
133907
134107
134304
134496
134693
134891
135073
135253
135435
135620
135806
135981
136161
136340
136520
136693
136868
137048
137230
137416
137604
137793
137982
138166
138340
138515
138692
138872
139045
139227
139411
139601
139788
139967
140148
140328
140498
140674
140856
141048
141159
141435
141626
141818
142021
142208
142398
142596
142796
143002
143213
143424
143634
143832
144026
144229
144435
144642
144855
145066
145279
145497
145699
145903
146105
146306
146487
146674
146863
147055
147249
147438
147622
147813
148008
148208
148411
148605
148797
148991
149190
149385
149580
149775
149974
150174
150369
150560
150740
150915
151087
151261
151438
151623
151819
152021
152210
152408
152512
152808
153022
153237
153449
153658
153857
154049
154233
154408
154584
154762
154943
155127
155311
155494
155680
155873
156064
156259
156456
156659
156863
157065
157259
157437
157614
157790
157968
158150
158330
158506
158687
158871
159057
159231
159411
159588
159770
159956
160143
160339
160539
160720
160910
161108
161310
161510
161711
161909
162109
162310
162487
162670
162857
163044
163232
163415
163579
163749
163914
164078
164180
164426
164603
164785
164977
165175
165376
165577
165777
165970
166167
166363
166557
166754
166949
167140
167327
167512
167698
167881
168063
168245
168428
168603
168778
168958
169147
169337
169530
169726
169907
170087
170265
170443
170607
170777
170949
171121
171295
171466
171637
171811
171989
172168
172349
172531
172712
172887
173060
173236
173414
173597
173788
173981
174169
174371
174474
174801
175016
175218
175397
175581
175754
175933
176126
176235
176552
176774
176990
177208
177428
177652
177854
178059
178269
178489
178705
178926
179146
179365
179568
179760
179951
180141
180318
180498
180681
180857
181021
181183
181344
181504
181663
181821
181976
182127
182278
182427
182572
182717
182860
183002
183144
183284
183425
183568
183708
183846
183991
184094
184314
184477
184655
184754
185017
185201
185397
185497
185793
185972
186153
186339
186517
186701
186807
187079
187193
187451
187626
187802
187973
188148
188324
188503
188604
188869
189050
189220
189393
189570
189665
189765
189930
190106
190196
190477
190664
190833
191000
191172
191273
191372
191543
191721
191905
192003
192294
192485
192675
192865
193054
193156
193415
193584
193759
193866
194112
194286
194463
194564
194822
194997
195170
195348
195529
195633
195900
196088
196282
196383
196674
196876
197083
197178
197284
197480
197573
197891
198081
198274
198475
198690
198796
199109
199324
199532
199639
199973
200163
200372
200480
200808
201005
201210
201309
201616
201818
202014
202236
202355
202678
202891
203113
203221
203558
203745
203935
204137
204359
204563
204799
204911
205286
205529
205776
206029
206283
206539
206801
207042
207300
207543
207800
208058
208312
208534
208764
209002
209236
209468
209673
209895
210007
210336
210546
210759
210984
211206
211412
211614
211835
212085
212196
212561
212690
213031
213252
213460
213651
213847
214051
214160
214268
214512
214722
214976
215230
215335
215450
215712
215936
216159
216392
216617
216843
216955
217294
217429
217688
217875
218065
218254
218462
218569
218897
219018
219280
219471
219673
219771
219887
220073
220276
220383
220710
220919
221130
221319
221510
221609
221718
221902
222092
222195
222499
222701
222905
223096
223292
223395
223506
223695
223893
224107
224332
224561
224775
224990
225232
225483
225685
225906
226015
226355
226472
226749
226945
227141
227340
227548
227657
227980
228180
228389
228613
228712
229029
229246
229469
229703
229944
230148
230367
230478
230780
230979
231185
231387
231599
231707
232036
232229
232424
232619
232812
233013
233230
233346
233661
233869
234074
234268
234454
234658
234767
235076
235274
235471
235659
235850
235966
236260
236384
236656
236845
237032
237206
237389
237489
237590
237773
237962
238164
238345
238547
238653
238763
238999
239238
239490
239708
239936
240043
240398
240588
240799
241016
241228
241439
241638
241842
242044
242245
242445
242638
242829
243022
243210
243411
243626
243856
244082
244300
244526
244754
244980
245186
245407
245631
245858
246060
246275
246499
246738
246974
247186
247397
247624
247863
248064
248281
248500
248710
248904
249101
249305
249523
249742
249957
250194
250303
250646
250862
251055
251251
251452
251665
251888
252095
252312
252541
252776
252981
253200
253428
253666
253883
254107
254216
254570
254697
255010
255202
255394
255584
255781
255978
256162
256350
256537
256732
256935
257147
257370
257591
257821
258043
258268
258377
258734
258930
259138
259354
259573
259792
260005
260204
260402
260600
260784
260985
261082
261399
261601
261800
262002
262189
262395
262507
262821
262944
263201
263399
263593
263777
263953
264139
264314
264490
264668
264776
265054
265240
265432
265634
265844
266057
266276
266506
266746
266964
267198
267435
267667
267893
268101
268315
268533
268753
268953
269163
269379
269607
269838
270031
270232
270447
270677
270893
271094
271317
271557
271765
271999
272248
272507
272744
272948
273174
273410
273645
273881
274106
274324
274530
274713
274906
275100
275301
275487
275692
275788
276124
276307
276501
276703
276911
277130
277351
277569
277778
277964
278151
278329
278516
278617
278726
278929
279147
279378
279609
279819
280034
280252
280456
280671
280898
281088
281294
281401
281701
281903
282104
282301
282492
282665
282845
283026
283123
283229
283397
283570
283751
283926
284117
284224
284506
284702
284897
285090
285264
285448
285631
285820
285928
286207
286391
286578
286765
286942
287133
287329
287435
287723
287914
288109
288305
288499
288694
288865
289042
289135
289244
289411
289586
289769
289947
290130
290232
290487
290659
290829
290931
291037
291215
291398
291594
291696
291985
292176
292370
292567
292768
292874
293168
293362
293557
293734
293930
294036
294322
294519
294720
294821
295128
295306
295489
295675
295861
296046
296231
296413
296593
296780
296970
297167
297368
297570
297770
297962
298148
298338
298538
298742
298948
299128
299318
299506
299696
299890
300077
300264
300438
300616
300788
300955
301132
301319
301420
301711
301906
302100
302284
302467
302654
302839
303013
303193
303302
303566
303762
303964
304168
304352
304549
304732
304928
305123
305326
305536
305749
305969
306191
306405
306616
306819
307012
307206
307402
307600
307801
308000
308201
308415
308527
308855
309049
309233
309336
309451
309636
309728
309837
310055
310180
310448
310643
310842
311045
311224
311412
311517
311810
312013
312190
312377
312570
312747
312942
313050
313349
313461
313741
313936
314132
314305
314490
314678
314875
314977
315287
315489
315683
315876
316076
316288
316388
316711
316930
317157
317370
317589
317700
317851
318065
318159
318319
318519
318730
318832
318976
319186
319427
319663
319867
320083
320279
320491
320598
320924
321147
321365
321569
321767
321966
322172
322383
322579
322773
322963
323158
323364
323580
323781
323984
324186
324390
324598
324804
325006
325207
325381
325560
325739
325922
326104
326280
326464
326562
326662
326824
326997
327178
327355
327533
327705
327873
328044
328210
328373
328537
328659
328867
329030
329193
329350
329506
329656
329811
329915
330110
330263
330419
330533
330741
330905
331072
331229
331389
331551
331708
331814
332031
332191
332353
332515
332682
332850
333022
333197
333375
333551
333710
333879
334050
334224
334406
334592
334760
334939
335115
335295
335481
335674
335869
336065
336247
336446
336557
336874
337084
337285
337481
337676
337873
338064
338255
338455
338659
338869
339071
339273
339489
339699
339887
340093
340208
340533
340756
340975
341175
341356
341538
341726
341928
342150
342388
342583
342790
342897
343239
343486
343693
343920
344161
344403
344632
344861
345093
345314
345533
345753
345980
346206
346432
346663
346889
347118
347347
347577
347796
348013
348228
348452
348681
348879
349090
349303
349520
349733
349932
350133
350343
350562
350778
350996
351224
351456
351680
351905
352136
352374
352603
352841
353074
353287
353504
353733
353937
354156
354388
354636
354882
355104
355324
355545
355773
355981
356191
356401
356616
356836
357061
357282
357502
357714
357906
358111
358317
358524
358733
358945
359160
359375
359583
359784
359992
360205
360422
360639
360842
361041
361248
361457
361663
361867
362056
362245
362444
362633
362834
362949
363252
363376
363628
363820
364021
364226
364427
364618
364829
364944
365277
365398
365708
365913
366118
366314
366515
366623
366917
367105
367293
367475
367671
367775
368074
368269
368474
368657
368845
368949
369250
369461
369667
369863
370057
370258
370461
370651
370849
371049
371253
371465
371659
371864
372049
372246
372351
372654
372770
373026
373220
373408
373596
373783
373974
374152
374341
374450
374744
374955
375159
375361
375565
375781
376018
376243
376467
376711
376956
377193
377430
377666
377902
378135
378370
378588
378813
379040
379266
379496
379710
379933
380159
380379
380589
380795
380982
381176
381370
381568
381766
381959
382145
382335
382529
382728
382919
383110
383290
383471
383651
383837
384026
384226
384426
384631
384824
385024
385229
385443
385650
385845
386052
386264
386472
386663
386868
387080
387296
387495
387716
387952
388180
388415
388649
388877
389090
389316
389549
389770
389997
390227
390462
390678
390906
391147
391381
391596
391816
392034
392232
392432
392623
392805
392992
393180
393369
393551
393748
393862
394165
394285
394537
394726
394916
395105
395284
395476
395674
395878
396088
396193
396497
396694
396896
397092
397275
397478
397689
397912
398132
398373
398484
398644
398878
399100
399336
399552
399774
400001
400231
400462
400676
400881
401100
401327
401562
401799
402032
402239
402452
402674
402892
403101
403287
403470
403654
403847
404053
404261
404469
404671
404868
405052
405240
405436
405634
405835
406043
406239
406436
406636
406839
407044
407228
407416
407602
407796
407970
408162
408358
408560
408772
408991
409200
409418
409646
409869
410076
410295
410403
410550
410720
410917
411122
411315
411520
411725
411946
412050
412198
412396
412597
412808
413028
413257
413486
413704
413900
414110
414218
414508
414704
414903
415091
415269
415457
415648
415762
416065
416273
416483
416692
416893
417090
417264
417444
417622
417805
417990
418160
418337
418519
418709
418889
419084
419285
419486
419597
419906
420023
420291
420482
420658
420837
421024
421217
421413
421621
421836
422043
422255
422466
422685
422886
423118
423230
423392
423629
423869
424106
424342
424581
424816
425041
425273
425503
425711
425929
426149
426370
426560
426762
426870
427175
427296
427568
427752
427933
428116
428295
428478
428668
428853
429056
429166
429489
429692
429901
430011
430313
430501
430693
430892
431093
431293
431508
431620
431941
432156
432369
432473
432786
432982
433185
433386
433580
433799
433908
434238
434466
434694
434799
434944
435141
435234
435341
435612
435828
436058
436171
436314
436517
436732
436960
437065
437217
437447
437686
437935
438147
438384
438504
438654
438879
439098
439335
439442
439597
439792
440001
440192
440398
440504
440817
441022
441223
441422
441611
441799
441996
442196
442391
442582
442766
442958
443068
443364
443570
443782
444000
444225
444441
444646
444751
444899
445096
445305
445531
445634
445783
446003
446214
446444
446547
446877
447097
447324
447537
447750
447971
448191
448415
448652
448904
449141
449363
449585
449816
450050
450267
450491
450719
450948
451156
451371
451587
451814
452042
452255
452468
452685
452909
453136
453338
453549
453764
453986
454193
454394
454613
454840
455076
455269
455473
455687
455922
456159
456355
456568
456788
457016
457243
457449
457664
457883
458116
458350
458580
458792
459005
459225
459453
459684
459895
460118
460348
460577
460786
460998
461212
461396
461592
461798
462011
462204
462411
462622
462837
463042
463250
463460
463667
463884
464108
464335
464533
464733
464939
465154
465372
465591
465800
465997
466203
466393
466598
466809
466999
467210
467427
467648
467876
468080
468279
468481
468688
468901
469120
469334
469545
469746
469958
470160
470354
470549
470751
470940
471137
471321
471515
471622
471926
472051
472306
472477
472651
472829
473013
473117
473394
473573
473754
473937
474123
474230
474514
474702
474893
475080
475270
475379
475680
475884
476089
476274
476451
476629
476823
476931
477219
477427
477638
477741
478030
478228
478423
478530
478817
479003
479189
479297
479399
479576
479759
479941
480121
480294
480399
480682
480781
481068
481256
481449
481549
481833
482020
482206
482385
482572
482677
482970
483161
483341
483533
483635
483923
484119
484298
484481
484668
484843
485031
485139
485427
485622
485816
485920
486205
486387
486570
486751
486939
487046
487327
487513
487702
487895
488089
488275
488460
488566
488855
488972
489233
489421
489595
489779
489969
490079
490376
490571
490776
490887
491203
491400
491596
491699
491997
492198
492402
492607
492804
493002
493111
493413
493532
493766
493941
494115
494221
494474
494651
494822
494934
495168
495330
495495
495598
495817
495975
496127
496239
496430
496580
496725
496874
497017
497160
497305
497451
497595
497737
497878
498018
498157
498295
498431
498570
498703
498839
498932
499112
499250
499390
499488
499693
499845
499999
500104
500324
500419
500655
500823
501001
501113
501370
501549
501726
501834
502089
502264
502441
502542
502799
502967
503137
503242
503500
503588
503692
503869
503961
504247
504422
504606
504711
504986
505165
505344
505515
505685
505852
506030
506140
506403
506585
506765
506943
507118
507285
507450
507616
507788
507967
508150
508340
508548
508651
508790
508981
509180
509392
509615
509844
510075
510293
510507
510723
510942
511158
511377
511594
511813
512024
512241
512462
512679
512894
513113
513328
513550
513771
513983
514205
514424
514645
514875
515099
515318
515543
515769
515989
516212
516435
516656
516881
517105
517318
517538
517764
517984
518193
518407
518621
518832
519034
519237
519438
519636
519823
520026
520236
520441
520631
520833
521023
521214
521422
521637
521838
522056
522291
522520
522728
522954
523191
523427
523639
523860
524087
524311
524528
524753
524976
