peaks
75132
75338
75551
75765
75969
76169
76375
76579
76788
76987
77187
77395
77606
77817
78030
78246
78467
78684
78896
79114
79329
79539
79753
79964
80174
80382
80583
80785
80991
81190
81389
81592
81798
82003
82205
82412
82625
82776
83037
83232
83427
83620
83807
83988
84176
84359
84546
84725
84910
85098
85281
85463
85636
85804
85975
86149
86323
86492
86664
86844
87023
87207
87382
87567
87746
87932
88111
88292
88475
88655
88832
89009
89183
89366
89546
89720
89887
90052
90216
90384
90560
90734
90915
91102
91296
91493
91681
91880
92079
92275
92466
92654
92848
93038
93230
93418
93610
93805
94008
94205
94396
94596
94797
94998
95193
95389
95590
95788
95984
96178
96376
96581
96780
96979
97190
97395
97599
97797
97998
98209
98354
98624
98816
99016
99206
99401
99584
99773
99967
100160
100349
100534
100727
100914
101100
101287
101468
101659
101849
102038
102223
102413
102605
102798
102989
103173
103359
103551
103743
103936
104126
104316
104511
104708
104900
105084
105274
105465
105655
105845
106027
106217
106406
106593
106782
106970
107166
107362
107557
107744
107933
108123
108316
108501
108685
108872
109052
109228
109408
109585
109760
109951
110140
110330
110522
110712
110893
111083
111269
111452
111634
111817
112004
112192
112376
112559
112748
112939
113131
113315
113507
113697
113890
114076
114262
114452
114644
114836
115017
115206
115387
115565
115735
115908
116076
116252
116426
116600
116776
116965
117157
117353
117543
117739
117938
118139
118332
118527
118725
118924
119123
119317
119513
119708
119907
120096
120290
120483
120672
120860
121042
121226
121410
121599
121783
121963
122150
122331
122517
122695
122820
122942
123221
123403
123583
123766
123950
124135
124310
124440
124674
124851
125032
125208
125386
125570
125754
125937
126121
126307
126492
126671
126848
127032
127216
127398
127578
127760
127944
128127
128307
128491
128680
128867
129055
129245
129439
129630
129821
130005
130192
130381
130572
130761
130948
131139
131333
131526
131716
131905
132097
132289
132473
132655
132842
133026
133207
133389
133576
133764
133951
134138
134333
134533
134734
134930
135128
135325
135521
135707
135900
136093
136282
136468
136658
136849
137034
137222
137408
137597
137787
137979
138163
138352
138543
138740
138936
139127
139327
139529
139731
139926
140125
140329
140534
140733
140929
141129
141333
141530
141716
141916
142114
142311
142513
142713
142925
143136
143338
143534
143738
143942
144143
144334
144531
144724
144921
145106
145294
145486
145678
145869
146058
146255
146452
146648
146834
147021
147203
147380
147550
147725
147896
148067
148248
148423
148603
148782
148967
149147
149326
149508
149684
149853
150017
150182
150345
150506
150663
150822
150983
151148
151306
151468
151630
151796
151964
152129
152303
152475
152654
152836
153020
153212
153407
153607
153801
153995
154198
154401
154607
154800
155003
155213
155416
155612
155814
156012
156212
156405
156594
156793
156990
157179
157365
157553
157741
157926
158110
158220
158499
158699
158892
159087
159284
159481
159676
159874
160080
160284
160482
160675
160872
161073
161268
161459
161651
161850
162046
162244
162431
162630
162828
163022
163210
163403
163599
163793
163979
164168
164364
164567
164758
164942
165139
165329
165523
165711
165902
166094
166294
166484
166674
166875
167076
167264
167458
167653
167852
168050
168243
168443
168641
168831
169019
169213
169405
169594
169782
169973
170167
170366
170556
170748
170946
171143
171338
171530
171729
171924
172116
172304
172496
172687
172876
173065
173264
173461
173667
173874
174086
174297
174499
174706
174917
175123
175317
175523
175727
175928
176122
176320
176523
176728
176919
177116
177320
177518
177715
177902
178090
178279
178471
178660
178845
179044
179240
179439
179632
179831
180027
180233
180377
180630
180831
181026
181215
181408
181604
181803
182001
182194
182389
182595
182794
182986
183181
183381
183578
183767
183957
184153
184348
184542
184729
184926
185122
185317
185510
185709
185913
186116
186268
186514
186705
186897
187082
187267
187458
187652
187851
188041
188234
188434
188632
188826
189020
189220
189425
189634
189832
190039
190257
190397
190676
190881
191094
191301
191493
191690
191894
192091
192291
192481
192674
192870
193069
193260
193458
193664
193868
194066
194262
194463
194663
194866
195062
195257
195442
195627
195803
195974
196151
196321
196493
196660
196824
196989
197155
197323
197487
197654
197820
197986
198158
198325
198495
198665
198839
199008
199177
199349
199517
199685
199853
200021
200192
200362
200539
200720
200901
201084
201265
201451
201640
201823
202010
202201
202399
202590
202789
202989
203196
203397
203591
203787
203987
204185
204377
204573
204766
204961
205156
205347
205542
205739
205936
206126
206329
206526
206724
206919
207113
207308
207501
207681
207859
208045
208223
208398
208574
208744
208914
209080
209249
209415
209582
209749
209911
210076
210240
210404
210563
210725
210891
211061
211234
211407
211584
211766
211952
212143
212328
212518
212713
212909
213099
213292
213486
213686
213883
214077
214272
214470
214661
214847
215041
215234
215425
215611
215801
215995
216191
216382
216576
216775
216977
217166
217361
217556
217755
217944
218132
218323
218513
218702
218886
219073
219261
219448
219631
219818
220011
220212
220408
220596
220791
220984
221177
221368
221559
221754
221950
222141
222334
222535
222741
222936
223136
223330
223531
223725
223914
224110
224308
224498
224684
224879
225068
225250
225439
225626
225810
225995
226178
226354
226528
226695
226862
227028
227199
227370
227543
227718
227897
228086
228281
228473
228669
228877
229088
229283
229483
229684
229884
230075
230263
230458
230655
230843
231027
231218
231406
231597
231786
231976
232167
232359
232547
232730
232912
233098
233289
233482
233668
233865
234068
234204
234457
234636
234821
235000
235185
235367
235545
235727
235916
236111
236298
236487
236683
236877
237069
237257
237453
237651
237848
238039
238237
238431
238624
238808
239001
239192
239384
239574
239758
239956
240152
240354
240526
240745
240941
241140
241339
241528
241728
241930
242133
242331
242523
242721
242921
243118
243308
243503
243698
243893
244081
244272
244463
244658
244848
245035
245227
245420
245613
245805
245993
246191
246393
246587
246778
246978
247178
247371
247564
247758
247957
248154
248342
248537
248733
248929
249119
249310
249508
249705
249894
250079
250266
250454
250639
250818
251005
251184
251368
251549
251728
251916
252103
252286
252423
252655
252837
253024
253205
253390
253573
253759
253948
254126
254310
254501
254691
254876
255001
255256
255441
255631
255812
255990
256137
256363
256546
256735
256921
257108
257296
257480
257609
257725
258010
258196
258373
258559
258740
258866
259119
259298
259481
259672
259858
260040
260223
260351
260475
260765
260944
261130
261313
261500
261678
261861
262043
262227
262410
262596
262776
262965
263155
263345
263530
263723
263916
264111
264300
264485
264623
264878
265070
265256
265445
265627
265806
265976
266143
266313
266476
266644
266806
266966
267134
267314
267496
267679
267867
268068
268278
268485
268688
268898
269061
269168
269471
269672
269875
270080
270270
270463
270657
270857
271045
271233
271424
271608
271794
271978
272164
272351
272543
272728
272918
273109
273303
273493
273682
273878
274070
274258
274446
274639
274836
275034
275219
275414
275606
275800
275988
276173
276363
276551
276739
276915
277099
277280
277465
277651
277830
278019
278211
278401
278589
278780
278975
279169
279358
279548
279745
279948
280147
280338
280536
280731
280933
281131
281326
281525
281728
281931
282125
282325
282525
282726
282923
283118
283319
283519
283709
283900
284096
284290
284482
284667
284854
285051
285242
285427
285610
285795
285974
286158
286344
286537
286733
286926
287127
287337
287556
287760
287970
288192
288410
288616
288828
289042
289260
289461
289667
289873
290071
290266
290464
290659
290855
291048
291240
291432
291627
291816
292005
292199
292390
292576
292765
292953
293145
293338
293524
293715
293905
294097
294279
294473
294669
294862
295054
295247
295438
295633
295821
296011
296206
296399
296583
296778
296969
297158
297346
297534
297728
297922
298104
298290
298479
298667
298861
299048
299239
299428
299616
299802
299988
300170
300295
300521
300643
300863
301031
301198
301364
301533
301708
301889
302079
302266
302456
302659
302858
303051
303252
303453
303650
303841
304031
304226
304412
304600
304787
304981
305166
305352
305538
305726
305874
306102
306283
306461
306639
306813
306982
307154
307331
307511
307696
307883
308078
308278
308484
308682
308886
309098
309305
309502
309701
309905
310111
310305
310503
310704
310906
311097
311294
311490
311685
311875
312069
312262
312454
312646
312833
313027
313224
313418
313607
313805
314006
314146
314407
314601
314802
314996
315181
315376
315565
315754
315942
316131
316324
316521
316709
316898
317093
317287
317484
317677
317867
318059
318259
318448
318633
318827
319017
319209
319401
319592
319790
319988
320177
320367
320564
320759
320950
321140
321331
321526
321711
321896
322083
322275
322462
322644
322832
323022
323213
323397
323584
323778
323972
324167
324356
324540
324733
324921
325108
325288
325475
325664
325861
326053
326244
326440
326642
326841
327012
327227
327420
327612
327795
327980
328171
328360
328545
328730
328914
329103
329295
329480
329666
329858
330052
330235
330423
330607
330794
330981
331165
331351
331539
331727
331907
332088
332280
332469
332657
332846
333033
333217
333399
333582
333764
333952
334129
334312
334497
334684
334866
335053
335238
335428
335622
335810
335995
336184
336376
336560
336744
336926
337109
337296
337480
337663
337849
338041
338225
338410
338598
338785
338973
339159
339342
339527
339719
339904
340091
340284
340475
340669
340857
341044
341236
341428
341613
341795
341984
342170
342349
342529
342716
342900
343084
343267
343446
343629
343813
343997
344177
344364
344551
344733
344917
345093
345272
345455
345644
345836
346018
346213
346415
346615
346812
347010
347209
347412
347606
347802
348001
348194
348389
348575
348764
348956
349151
349340
349528
349722
349917
350113
350298
350480
350665
350845
351028
351208
351396
351586
351778
351973
352163
352358
352559
352748
352941
353136
353336
353529
353721
353917
354114
354310
354498
354694
354895
355090
355279
355475
355666
355864
356049
356238
356432
356627
356816
357003
357194
357385
357577
357765
357954
358144
358338
358522
358714
358908
359100
359285
359475
359663
359858
360046
360233
360423
360615
360804
360988
361179
361366
361560
361754
361944
362142
362342
362539
362729
362927
363131
363329
363524
363720
363915
364117
364307
364496
364696
364892
365083
365275
365470
365666
365866
366056
366162
366439
366629
366816
367002
367192
367386
367582
367773
367963
368162
368357
368547
368738
368932
369125
369317
369505
369692
369883
370067
370248
370390
370511
370775
370946
371109
371275
371441
371620
371803
371986
372184
372393
372601
372809
373021
373240
373454
373659
373868
374078
374282
374478
374674
374873
375076
375270
375461
375657
375855
376048
376238
376429
376621
376820
377011
377200
377391
377575
377766
377952
378145
378340
378531
378717
378901
379093
379292
379492
379687
379883
380080
380287
380483
380676
380874
381074
381272
381467
381655
381847
382046
382244
382432
382627
382823
383015
383203
383387
383571
383755
383935
384116
384302
384494
384696
384894
385093
385303
385518
385725
385926
386130
386332
386534
386729
386924
387115
387313
387499
387688
387882
388076
388266
388458
388650
388845
389043
389231
389423
389619
389814
390000
390186
390373
390564
390755
390939
391128
391318
391510
391699
391896
392085
392276
392461
392644
392830
393019
393215
393409
393604
393808
394013
394209
394409
394604
394797
394984
395171
395363
395549
395732
395915
396100
396290
396480
396664
396803
396929
397206
397383
397559
397741
397916
398093
398271
398405
398654
398845
399038
399236
399444
399652
399855
400064
400278
400478
400683
400892
401100
401303
401507
401713
401922
402120
402318
402516
402715
402906
403094
403283
403477
403675
403866
404067
404274
404485
404685
404889
405094
405304
405501
405699
405904
406104
406294
406495
406692
406891
407087
407281
407475
407676
407867
408059
408259
408460
408658
408854
409050
409251
409452
409647
409846
410048
410243
410432
410624
410816
411012
411203
411393
411582
411770
411952
412131
412319
412512
412699
412891
413082
413277
413471
413661
413853
414053
414251
414441
414640
414830
415023
415212
415392
415524
415770
415952
416138
416322
416514
416707
416900
417088
417281
417479
417664
417846
418039
418226
418408
418593
418779
418966
419157
419344
419531
419726
419919
420104
420295
420422
420681
420865
421052
421243
421435
421627
421816
422010
422208
422402
422585
422774
422961
423153
423339
423513
423686
423863
424035
424208
424381
424563
424747
424935
425129
425317
425513
425715
425918
426112
426310
426508
426704
426897
427086
427275
427467
427660
427845
428030
428154
428271
428563
428745
428928
429115
429295
429477
429658
429842
430028
430216
430401
430588
430721
430852
431141
431323
431521
431714
431904
432089
432279
432470
432659
432843
433029
433219
433410
433592
433779
433964
434153
434341
434525
434651
434779
435064
435249
435435
435626
435812
436007
436200
436388
436584
436782
436978
437171
437361
437554
437749
437936
438122
438306
438492
438673
438850
439027
439208
439396
439588
439778
439967
440169
440370
440570
440769
440965
441162
441360
441548
441740
441933
442130
442320
442510
442705
442897
443090
443276
443468
443659
443856
444041
444227
444411
444596
444748
444972
445093
445346
445536
445729
445917
446109
446304
446502
446689
446879
447079
447283
447481
447675
447870
448062
448256
448443
448632
448823
449012
449196
449384
449576
449767
449959
450144
450330
450468
450611
450878
451055
451237
451366
451618
451801
451990
452182
452385
452583
452774
452978
453190
453398
453604
453808
454016
454219
454414
454612
454809
455008
455198
455387
455583
455787
455984
456175
456368
456562
456757
456949
457140
457332
457526
457722
457914
458112
458310
458507
458702
458896
459095
459298
459492
459684
459885
460085
460282
460477
460670
460868
461075
461275
461473
461676
461881
462082
462279
462480
462678
462877
463064
463248
463435
463624
463817
464004
464191
464316
464580
464763
464952
465141
465334
465523
465709
465890
466077
466272
466463
466651
466843
467035
467228
467418
467610
467805
468008
468200
468388
468590
468791
468983
469172
469364
469555
469749
469932
470058
470315
470504
470690
470876
471070
471261
471453
471641
471835
472035
472233
472425
472628
472829
473026
473221
473419
473619
473820
474013
474213
474412
474609
474802
475000
475205
475405
475594
475783
475969
476152
476332
476515
476707
476898
477022
477292
477487
477683
477882
478069
478258
478455
478656
478849
479042
479242
479443
479646
479838
480036
480233
480434
480627
480819
481013
481209
481402
481588
481778
481968
482161
482348
482543
482737
482931
483121
483316
483514
483710
483903
484101
484301
484493
484684
484877
485060
485263
485452
485642
485834
486020
486209
486399
486590
486780
486962
487088
487207
487488
487677
487859
488048
488243
488428
488614
488813
489004
489198
489388
489575
489768
489965
490159
490347
490546
490741
490932
491121
491307
491488
491678
491869
492055
492249
492445
492649
492852
493047
493248
493451
493657
493856
494052
494256
494454
494650
494838
495031
495227
495421
495611
495807
496000
496195
496381
496571
496765
496962
497159
497347
497541
497729
497918
498111
498300
498491
498689
498882
499069
499262
499456
499648
499836
500024
500213
500407
500594
500777
500962
501151
501337
501519
501701
501883
502063
502240
502416
502593
502779
502966
503152
503341
503532
503727
503925
504117
504311
504514
504716
504904
505102
505299
505496
505691
505882
506074
506265
506458
506643
506831
507021
507208
507391
507571
507755
507948
508138
508327
508529
508730
508925
509120
509321
509521
509718
509911
510110
510313
510514
510706
510906
511105
511305
511491
511682
511877
512072
512259
512446
512639
512831
513021
513207
513398
513593
513785
513970
514160
514349
514539
514722
514907
515092
515285
515480
515668
515860
516057
516255
516447
516638
516830
517020
517216
517406
517600
517800
518000
518187
518383
518575
518767
518954
519139
519327
519516
519698
519877
520064
520246
520423
520595
520767
520940
521111
521283
521447
521613
521782
521950
522129
522303
522481
522666
522858
523053
523245
523439
523644
523848
524048
524245
524445
524649
524849
