peaks
75166
75337
75446
75674
75845
75966
76182
76352
76521
76691
76814
77032
77203
77374
77547
77664
77890
78062
78234
78406
78519
78750
78922
79094
79237
79439
79610
79783
79900
80125
80300
80474
80581
80818
80946
81166
81288
81510
81683
81855
81963
82199
82372
82545
82667
82889
83061
83233
83342
83576
83752
83926
84044
84272
84448
84623
84738
84969
85145
85320
85496
85672
85848
86023
86165
86376
86550
86728
86858
87081
87206
87435
87611
87784
87905
88135
88309
88484
88613
88837
88961
89186
89360
89536
89644
89884
90053
90232
90405
90573
90714
90926
91099
91272
91401
91621
91757
91968
92146
92323
92501
92679
92804
93032
93163
93383
93504
93731
93911
94088
94212
94437
94560
94791
94969
95143
95321
95497
95650
95801
96026
96202
96375
96501
96726
96851
97077
97252
97425
97553
97775
97949
98124
98300
98475
98603
98827
98974
99178
99353
99530
99643
99880
100006
100230
100404
100579
100692
100928
101085
101203
101452
101627
101801
101922
102133
102273
102492
102656
102774
103013
103182
103366
103543
103717
103893
104070
104246
104411
104599
104748
104954
105130
105308
105420
105662
105783
106018
106194
106370
106546
106721
106868
107074
107193
107426
107552
107781
107906
108135
108313
108490
108668
108847
109023
109199
109326
109555
109698
109910
110048
110260
110384
110615
110790
110964
111141
111317
111445
111670
111814
112023
112163
112377
112504
112620
112893
113084
113260
113436
113613
113789
113967
114145
114319
114500
114635
114850
115029
115207
115329
115563
115689
115917
116093
116272
116379
116626
116805
116985
117114
117342
117470
117696
117872
118052
118161
118403
118558
118683
118937
119117
119294
119417
119648
119826
120001
120130
120353
120480
120702
120828
121051
121228
121405
121538
121761
121903
122117
122295
122473
122595
122831
123008
123184
123297
123536
123680
123894
124069
124246
124375
124600
124777
124955
125077
125306
125485
125664
125787
126017
126146
126368
126547
126723
126833
127067
127189
127418
127591
127762
127878
128103
128276
128386
128616
128790
128900
129131
129304
129476
129602
129822
129996
130171
130287
130523
130651
130776
131045
131233
131406
131514
131755
131932
132103
132213
132325
132592
132786
132966
133143
133316
133489
133662
133787
134007
134179
134355
134529
134702
134874
135047
135191
135391
135545
135703
135870
136039
136193
136365
136542
136728
136902
137079
137252
137360
137612
137790
137969
138143
138318
138440
138659
138786
139009
139136
139359
139495
139705
139879
140053
140180
140400
140576
140749
140892
141103
141244
141460
141637
141817
141936
142176
142356
142532
142638
142888
143018
143246
143425
143602
143727
143956
144100
144310
144487
144666
144776
145020
145197
145373
145491
145727
145904
146080
146191
146436
146615
146792
146919
147146
147323
147501
147622
147850
148027
148203
148380
148557
148678
148909
149034
149261
149437
149613
149721
149966
150142
150320
150495
150604
150845
151024
151198
151319
151547
151687
151896
152069
152243
152369
152590
152766
152943
153050
153296
153423
153651
153829
154006
154183
154301
154412
154693
154892
155071
155247
155425
155541
155782
155960
156136
156268
156491
156669
156847
156976
157199
157378
157556
157672
157779
158054
158257
158442
158621
158799
158977
159156
159334
159514
159683
159871
160009
160225
160403
160579
160756
160872
161108
161286
161462
161581
161813
161944
162165
162340
162515
162688
162864
162993
163214
163383
163563
163703
163915
164074
164193
164440
164618
164731
164969
165145
165322
165448
165677
165821
166028
166202
166377
166494
166729
166903
167078
167205
167427
167603
167779
167932
168130
168307
168486
168606
168844
168984
169202
169380
169558
169668
169911
170089
170266
170386
170620
170798
170973
171108
171327
171449
171679
171856
172031
172140
172383
172522
172735
172911
173087
173264
173440
173612
173797
173946
174155
174331
174504
174683
174861
175004
175214
175360
175565
175742
175921
176031
176271
176399
176623
176797
176971
177087
177317
177492
177667
177842
178019
178163
178370
178515
178719
178863
179066
179242
179417
179541
179769
179895
180121
180246
180471
180600
180823
180999
181175
181287
181529
181706
181886
182006
182126
182401
182598
182777
182955
183132
183289
183488
183663
183839
184015
184193
184335
184547
184694
184900
185053
185176
185423
185595
185774
185889
186124
186251
186474
186649
186825
186933
187177
187358
187537
187710
187890
188042
188252
188422
188534
188788
188962
189144
189269
189496
189674
189851
189994
190203
190357
190553
190681
190905
191036
191258
191402
191616
191794
191974
192103
192327
192496
192687
192866
193045
193171
193404
193532
193762
193940
194056
194295
194475
194652
194762
195009
195188
195367
195476
195724
195905
196084
196208
196441
196620
196799
196975
197085
197329
197507
197683
197808
198036
198183
198389
198515
198736
198873
199085
199230
199436
199566
199791
199969
200083
200326
200503
200680
200812
201035
201213
201388
201516
201745
201923
202099
202214
202455
202633
202810
202953
203166
203313
203523
203643
203882
204063
204243
204374
204604
204735
204967
205146
205327
205436
205688
205826
206050
206180
206404
206548
206761
206938
207115
207223
207470
207651
207830
207961
208193
208347
208557
208734
208915
209043
209280
209415
209643
209772
210003
210183
210362
210472
210719
210900
211078
211204
211434
211581
211792
211916
212148
212277
212510
212639
212871
213051
213230
213411
213591
213763
213951
214060
214310
214492
214673
214794
215029
215160
215389
215521
215749
215929
216108
216289
216401
216519
216804
217000
217180
217311
217538
217718
217897
218014
218256
218387
218617
218798
218977
219158
219339
219496
219702
219885
220066
220248
220430
220566
220796
220930
221162
221344
221527
221710
221893
222040
222257
222439
222623
222753
222989
223172
223356
223482
223717
223848
224075
224264
224449
224631
224813
224947
225175
225324
225456
225708
225887
226066
226174
226429
226615
226798
226979
227156
227263
227520
227703
227885
228068
228247
228354
228613
228743
228972
229102
229330
229467
229688
229867
230046
230226
230406
230542
230765
230913
231131
231314
231497
231616
231861
232045
232227
232347
232590
232774
232957
233065
233320
233502
233683
233813
234041
234167
234396
234572
234750
234897
235103
235279
235458
235637
235817
236000
236181
236325
236545
236672
236908
237039
237267
237400
237627
237809
237987
238103
238346
238505
238623
238884
239064
239240
239370
239595
239743
239949
240072
240306
240432
240668
240849
241031
241167
241395
241525
241757
241937
242117
242241
242477
242658
242840
242966
243088
243370
243569
243752
243928
244037
244161
244448
244643
244835
245020
245205
245359
245572
245756
245941
246124
246305
246429
246668
246811
247023
247207
247382
247563
247746
247924
248106
248234
248468
248649
248830
249009
249190
249322
249549
249727
249837
250083
250263
250443
250552
250805
250966
251171
251350
251533
251715
251834
252078
252240
252441
252598
252802
252926
253161
253343
253524
253655
253881
254013
254239
254417
254597
254720
254958
255090
255326
255508
255691
255876
256061
256229
256432
256565
256798
256943
257163
257278
257528
257656
257891
258072
258251
258363
258612
258793
258971
259104
259331
259480
259691
259816
260054
260240
260423
260557
260791
260919
261157
261340
261523
261706
261813
261929
262224
262413
262598
262732
262967
263099
263335
263518
263697
263838
264055
264193
264412
264592
264775
264906
265142
265307
265504
265685
265866
265995
266230
266363
266590
266724
266950
267091
267308
267487
267666
267780
268030
268212
268395
268542
268758
268898
269126
269306
269488
269618
269855
269990
270222
270402
270582
270699
270941
271098
271213
271464
271655
271838
271975
272193
272349
272568
272690
272932
273114
273296
273431
273666
273797
274033
274216
274397
274531
274757
274895
275121
275301
275481
275615
275846
275993
276216
276398
276583
276718
276950
277110
277231
277498
277683
277866
277997
278231
278414
278597
278730
278966
279149
279335
279454
279705
279891
280077
280227
280450
280582
280826
281013
281200
281335
281574
281705
281944
282130
282315
282451
282683
282821
283050
283233
283415
283550
283779
283913
284141
284320
284499
284635
284863
284998
285224
285405
285586
285698
285945
286127
286309
286436
286663
286843
286958
287198
287383
287565
287678
287931
288097
288292
288470
288659
288843
289028
289166
289396
289579
289761
289871
290129
290266
290493
290623
290853
291037
291218
291355
291582
291729
291947
292134
292319
292441
292542
292839
293037
293220
293350
293586
293770
293947
294082
294320
294458
294694
294820
295059
295190
295421
295602
295714
295962
296146
296335
296473
296692
296873
296982
297232
297412
297598
297750
297975
298137
298351
298537
298723
298859
299102
299292
299474
299653
299849
299979
300225
300412
300598
300719
300973
301159
301345
301477
301713
301902
302083
302273
302460
302619
302834
303020
303206
303393
303576
303734
303941
304071
304304
304449
304664
304846
304959
305207
305391
305572
305694
305935
306068
306292
306472
306651
306802
307013
307176
307381
307518
307747
307930
308116
308239
308482
308661
308837
308960
309193
309321
309551
309731
309908
310086
310263
310440
310617
310793
310964
311087
311318
311496
311672
311852
312029
312150
312373
312548
312720
312844
313074
313205
313425
313580
313776
313950
314127
314247
314491
314625
314846
315021
315130
315375
315555
315734
315860
316096
316233
316455
316634
316811
316944
317166
317326
317514
317671
317861
318035
318178
318305
318559
318737
318850
319086
319263
319438
319585
319790
319966
320146
320326
320508
320625
320875
321002
321239
321421
321605
321754
321971
322145
322337
322499
322707
322857
323075
323213
323441
323566
323807
323992
324173
324319
324540
324698
324894
325055
325258
325413
325534
325797
325988
326172
326301
326533
326684
326901
327026
327264
327448
327630
327782
327993
328175
328356
328474
328720
328905
329088
329206
329455
329611
329825
330008
330116
330370
330554
330736
330844
331097
331281
331459
331579
331809
332008
332191
332345
332557
332692
332923
333069
333288
333422
333648
333830
334012
334163
334374
334557
334671
334920
335106
335287
335438
335650
335830
336012
336121
336374
336557
336739
336856
337100
337282
337463
337572
337824
338008
338187
338321
338549
338730
338911
339033
339270
339401
339631
339776
339987
340167
340328
340495
340701
340883
341061
341241
341434
341552
341801
341979
342163
342290
342531
342679
342897
343075
343186
343438
343617
343804
343924
344160
344344
344522
344675
344877
345058
345233
345418
345601
345745
345967
346150
346333
346451
346703
346890
347077
347258
347442
347584
347810
347945
348175
348313
348541
348671
348906
349042
349271
349454
349637
349787
350005
350179
350321
350553
350737
350919
351029
351284
351466
351649
351802
352020
352188
352391
352573
352693
352943
353126
353314
353447
353679
353856
353976
354215
354396
354576
354721
354936
355102
355223
355467
355651
355833
355955
356193
356327
356557
356734
356845
357096
357278
357389
357640
357823
358018
358135
358392
358572
358766
358894
359144
359332
359519
359643
359892
360020
360266
360453
360638
360825
361013
361198
361307
361564
361750
361931
362055
362287
362467
362654
362798
363021
363163
363385
363523
363729
363853
364103
364291
364472
364617
364834
364986
365214
365395
365579
365712
365947
366085
366320
366506
366689
366825
367053
367202
367422
367599
367787
367922
368155
368294
368524
368702
368887
368997
369263
369392
369633
369816
369996
370139
370368
370517
370734
370926
371111
371261
371363
371667
371855
372040
372225
372411
372541
372788
372976
373165
373353
373461
373551
373859
374061
374261
374450
374636
374825
374960
375104
375389
375579
375763
375879
376119
376297
376496
376679
376867
377050
377236
377382
377605
377753
377978
378162
378273
378524
378709
378892
379016
379269
379399
379647
379832
380017
380159
380384
380563
380754
380872
381114
381242
381487
381669
381858
382000
382228
382362
382604
382784
382961
383116
383329
383488
383708
383891
384005
384264
384450
384634
384753
385006
385193
385376
385561
385746
385892
386118
386245
386484
386617
386852
386982
387217
387351
387582
387762
387946
388096
388315
388469
388679
388806
389056
389241
389423
389566
389786
389938
390159
390280
390541
390722
390912
391046
391272
391416
391636
391817
391995
392183
392366
392548
392731
392907
393096
393279
393465
393649
393773
394017
394205
394390
394516
394750
394930
395114
395257
395496
395617
395874
396059
396246
396399
396623
396760
396997
397131
397376
397492
397747
397927
398105
398271
398473
398656
398840
399026
399216
399356
399586
399724
399932
400058
400272
400438
400670
400857
401046
401158
401417
401554
401791
401922
402150
402334
402443
402710
402891
403000
403257
403445
403632
403767
403993
404173
404363
404547
404725
404930
405121
405311
405500
405623
405871
406022
406254
406392
406626
406812
406998
407148
407370
407515
407739
407872
408109
408241
408478
408664
408774
409037
409201
409320
409590
409776
409956
410100
410320
410474
410693
410823
411060
411197
411431
411597
411733
411985
412164
412349
412480
412721
412916
413110
413242
413492
413625
413874
414054
414256
414379
414639
414832
415025
415155
415406
415597
415785
415916
416162
416289
416536
416723
416907
417052
417280
417419
417655
417841
418031
418162
418401
418545
418768
418903
419142
419325
419511
419651
419888
420022
420251
420393
420613
420754
420979
421171
421359
421542
421727
421892
422091
422205
422479
422659
422849
422970
423213
423396
423577
423770
423956
424133
424309
424485
424665
424858
425048
425223
425407
425590
425771
425917
426141
426304
426435
426691
426879
427064
427189
427436
427619
427792
427931
428126
428325
428503
428686
428863
429038
429148
429392
429566
429674
429912
430100
430279
430393
430632
430810
430988
431108
431343
431503
431693
431864
432038
432169
432397
432542
432741
432916
433090
433260
433433
433551
433773
433944
434113
434281
434451
434621
434789
434959
435131
435304
435420
435652
435828
435998
436174
436353
436479
436705
436879
437052
437204
437382
437571
437750
437938
438101
438284
438464
438644
438791
438999
439181
439298
439536
439712
439885
440050
440233
440408
440582
440758
440935
441088
441281
441460
441633
441754
441978
442140
442317
442479
442606
442834
443008
443118
443351
443525
443700
443842
444052
444220
444351
444579
444756
444932
445064
445284
445408
445637
445776
445990
446134
446350
446480
446707
446851
447064
447214
447421
447596
447777
447959
448139
448261
448502
448635
448865
449045
449219
449374
449585
449743
449945
450069
450306
450433
450669
450802
451031
451212
451397
451524
451756
451897
452117
452307
452487
452595
452850
453000
453209
453399
453581
453727
453949
454102
454316
454438
454681
454858
455046
455174
455406
455587
455769
455915
456138
456296
456416
456682
456870
457050
457184
457411
457594
457775
457911
458144
458294
458487
458623
458857
459003
459229
459409
459591
459720
459949
460080
460304
460453
460660
460826
461014
461195
461378
461501
461748
461932
462115
462269
462482
462642
462767
463028
463206
463392
463499
463752
463937
464120
464276
464482
464666
464844
464963
465210
465392
465574
465717
465937
466117
466300
466430
466669
466818
467036
467218
467331
467588
467773
467950
468078
468325
468460
468691
468827
469057
469192
469425
469576
469788
469968
470149
470270
470516
470643
470880
471025
471245
471395
471608
471730
471972
472101
472339
472468
472701
472829
473067
473196
473428
473561
473789
473932
474143
474267
474510
474692
474872
474993
475239
475394
475602
475734
475966
476104
476334
476468
476697
476873
477059
477180
477422
477603
477791
477907
478161
478297
478528
478672
478898
479032
479264
479446
479631
479738
479997
480130
480366
480510
480735
480870
481102
481286
481471
481592
481833
481984
482199
482378
482564
482694
482929
483089
483215
483481
483669
483852
484001
484214
484396
484580
484701
484949
485085
485312
485461
485677
485839
486045
486223
486407
486532
486771
486919
487136
487298
487500
487686
487806
488060
488245
488430
488588
488794
488984
489165
489272
489538
489725
489906
490034
490271
490456
490642
490777
491004
491189
491372
491523
491654
491922
492108
492294
492432
492665
492808
493027
493173
493397
493531
493768
493945
494129
494264
494506
494690
494869
495032
495244
495427
495610
495794
495979
496123
496345
496499
496711
496835
497077
497207
497447
497584
497806
497981
498154
498311
498524
498685
498893
499057
499261
499435
499625
499802
499916
500168
500352
500533
500661
500895
501045
501260
501430
501550
501800
501981
502160
502312
502524
502709
502894
503077
503258
503442
503566
503815
503997
504183
504299
504449
504727
504919
505099
505221
505459
505640
505820
505948
506178
506357
506466
506708
506889
507067
507227
507431
507613
507794
507915
508161
508345
508531
508661
508893
509072
509256
509437
509622
509769
509980
510169
510350
510469
510706
510835
511067
511216
511425
511581
511778
511912
512121
512293
512407
512640
512785
512951
513105
513256
513409
513568
513736
513921
514071
514275
514453
514564
514793
514968
515141
515313
515431
515664
515835
515946
516185
516362
516538
516687
516895
517071
517249
517420
517601
517778
517964
518096
518329
518513
518690
518805
519049
519181
519414
519594
519771
519927
520118
520265
520471
520661
520834
521010
521190
521362
521547
521676
521903
522035
522255
522437
522612
522785
522958
523131
523271
523470
523640
523812
523981
524151
524263
524488
524658
524826
524993
