peaks
75018
75139
75325
75471
75619
75766
75915
76037
76220
76366
76512
76662
76812
76966
77120
77275
77433
77548
77752
77903
78058
78208
78355
78479
78663
78813
78963
79120
79274
79434
79600
79714
79921
80080
80208
80396
80544
80696
80850
80999
81122
81309
81460
81614
81763
81909
82030
82217
82365
82519
82664
82813
82934
83119
83264
83417
83562
83711
83862
84007
84162
84312
84460
84612
84762
84908
85067
85214
85360
85507
85654
85804
85926
86107
86251
86401
86549
86698
86814
87001
87149
87294
87440
87588
87735
87886
88039
88155
88341
88485
88634
88782
88931
89050
89235
89382
89527
89672
89822
89941
90124
90268
90417
90547
90639
90855
90996
91114
91291
91429
91578
91724
91838
92022
92170
92318
92461
92613
92762
92881
93075
93226
93378
93524
93669
93815
93961
94113
94263
94414
94544
94719
94870
95017
95172
95320
95461
95604
95746
95885
96023
96165
96299
96440
96576
96717
96854
97008
97151
97299
97448
97597
97718
97911
98058
98213
98365
98521
98647
98830
98975
99127
99277
99429
99555
99730
99873
100021
100172
100321
100465
100607
100752
100898
101033
101199
101340
101491
101632
101776
101923
102071
102226
102380
102498
102689
102840
102987
103133
103284
103430
103576
103706
103874
104016
104164
104311
104460
104610
104755
104906
105056
105206
105339
105512
105658
105806
105956
106100
106251
106396
106515
106690
106836
106984
107127
107267
107426
107573
107685
107884
108031
108184
108338
108495
108623
108816
108972
109127
109283
109439
109563
109756
109906
110059
110210
110363
110496
110662
110811
110964
111116
111273
111425
111553
111742
111895
112054
112205
112359
112486
112672
112825
112982
113133
113290
113421
113613
113772
113930
114090
114253
114373
114571
114724
114879
115030
115186
115308
115495
115640
115794
115948
116105
116257
116408
116534
116723
116869
117025
117173
117326
117480
117638
117788
117945
118095
118247
118401
118551
118699
118851
118978
119158
119304
119456
119601
119750
119875
120054
120198
120349
120494
120645
120765
120957
121105
121261
121408
121559
121682
121791
122026
122170
122323
122466
122616
122762
122905
123045
123198
123341
123488
123636
123783
123928
124080
124225
124377
124492
124674
124814
124958
125102
125245
125392
125531
125644
125820
125957
126100
126237
126376
126521
126662
126771
126946
127082
127225
127367
127501
127659
127797
127939
128084
128227
128334
128518
128656
128768
128945
129082
129225
129372
129510
129672
129819
129972
130119
130264
130411
130561
130687
130789
131017
131164
131306
131450
131568
131753
131883
132050
132194
132333
132499
132649
132802
132954
133081
133272
133422
133580
133731
133887
134010
134202
134359
134511
134665
134821
134937
135142
135292
135448
135603
135758
135914
136071
136183
136381
136534
136690
136845
137000
137155
137298
137464
137615
137770
137926
138084
138242
138397
138556
138714
138874
139032
139191
139349
139502
139657
139773
139972
140123
140272
140417
140564
140711
140860
140982
141160
141307
141453
141595
141739
141885
142029
142173
142320
142464
142610
142741
142902
143045
143189
143326
143467
143613
143767
143889
144073
144224
144373
144517
144666
144818
144973
145128
145287
145439
145598
145715
145911
146068
146231
146386
146541
146659
146842
146984
147124
147264
147405
147549
147658
147856
148004
148121
148312
148461
148587
148760
148908
149054
149199
149342
149482
149629
149785
149906
150136
150252
150469
150634
150795
150917
151114
151266
151421
151569
151723
151879
152040
152194
152318
152515
152666
152818
152972
153126
153255
153445
153601
153757
153911
154070
154195
154317
154554
154664
154869
155016
155167
155319
155470
155625
155774
155931
156091
156255
156420
156588
156707
156925
157085
157238
157394
157551
157702
157859
158012
158136
158247
158478
158625
158742
158927
159072
159218
159366
159516
159640
159838
159945
160160
160312
160469
160597
160787
160941
161100
161257
161410
161536
161733
161886
162043
162195
162351
162478
162666
162815
162969
163114
163266
163394
163577
163728
163884
164030
164183
164335
164491
164648
164802
164956
165111
165225
165420
165573
165731
165878
166031
166185
166338
166494
166647
166801
166956
167112
167232
167420
167572
167720
167871
168021
168147
168270
168490
168635
168778
168923
169077
169231
169395
169514
169728
169890
170013
170203
170355
170504
170650
170796
170940
171089
171243
171403
171554
171710
171865
172016
172172
172320
172470
172624
172773
172919
173070
173223
173381
173537
173693
173855
174017
174177
174298
174502
174653
174809
174962
175106
175256
175404
175553
175700
175848
175995
176148
176292
176442
176591
176739
176882
177032
177184
177337
177488
177638
177788
177940
178090
178238
178389
178542
178691
178841
178992
179111
179295
179439
179591
179736
179877
180025
180166
180312
180458
180609
180756
180877
181057
181200
181352
181498
181640
181788
181935
182085
182228
182379
182527
182675
182832
182950
183138
183285
183427
183565
183706
183846
183958
184139
184280
184423
184561
184705
184850
184964
185146
185293
185446
185591
185742
185894
186047
186204
186356
186507
186657
186804
186958
187105
187234
187407
187554
187701
187842
187977
188132
188275
188420
188567
188710
188864
189013
189128
189308
189450
189597
189744
189893
190018
190199
190344
190497
190649
190771
190952
191105
191253
191397
191544
191693
191843
191996
192148
192297
192446
192597
192745
192894
193041
193185
193335
193457
193638
193780
193931
194075
194218
194362
194510
194630
194813
194962
195113
195259
195411
195527
195708
195851
195999
196145
196293
196415
196599
196746
196898
197045
197186
197310
197412
197629
197774
197885
198061
198198
198344
198484
198633
198745
198925
199068
199212
199358
199500
199630
199782
199905
200061
200199
200332
200498
200645
200796
200946
201096
201218
201398
201542
201690
201838
201981
202114
202289
202442
202596
202751
202866
203063
203216
203369
203518
203663
203813
203967
204119
204267
204419
204570
204721
204875
205027
205179
205336
205475
205651
205803
205955
206072
206267
206417
206569
206714
206864
207018
207176
207336
207467
207653
207801
207958
208109
208263
208412
208560
208708
208854
208980
209147
209292
209435
209583
209732
209873
210036
210184
210334
210476
210622
210769
210920
211063
211208
211353
211496
211646
211790
211932
212073
212216
212358
212502
212648
212791
212933
213077
213218
213359
213499
213638
213772
213907
214042
214177
214310
214439
214570
214705
214836
214971
215111
215249
215358
215534
215673
215811
215956
216097
216226
216384
216523
216660
216791
216904
217074
217209
217343
217478
217609
217744
217878
218010
218133
218282
218410
218543
218681
218811
218948
219080
219212
219346
219478
219615
219760
219914
220016
220212
220351
220472
220637
220775
220913
221050
221188
221323
221435
221592
221724
221841
221965
222107
222235
222364
222495
222618
222740
222868
222991
223112
223236
223358
223483
223608
223731
223854
223986
224126
224267
224408
224547
224686
224823
224958
225065
225228
225364
225492
225627
225756
225885
226018
226150
226284
226421
226551
226685
226819
226954
227088
227226
227361
227489
227623
227760
227886
228023
228151
228288
228408
228544
228683
228809
228949
229085
229225
229365
229506
229600
229773
229916
230046
230181
230315
230419
230580
230709
230838
230966
231069
231218
231341
231466
231592
231697
231847
231972
232110
232230
232350
232492
232614
232747
232871
232971
233128
233258
233387
233514
233619
233771
233896
234028
234153
234288
234417
234551
234690
234825
234962
235095
235233
235372
235501
235637
235771
235904
236034
236171
236303
236437
236565
236699
236827
236964
237095
237227
237362
237498
237636
237773
237915
238057
238198
238336
238480
238618
238724
238842
239037
239173
239306
239439
239573
239705
239804
239962
240090
240223
240353
240482
240613
240743
240874
241010
241147
241286
241423
241556
241692
241828
241954
242091
242217
242351
242479
242610
242744
242877
243002
243133
243265
243397
243529
243656
243787
243917
244038
244166
244294
244424
244550
244673
244794
244921
245051
245182
245306
245439
245568
245699
245833
245975
246119
246252
246396
246535
246677
246817
246958
247094
247235
247372
247506
247647
247773
247906
248036
248167
248299
248430
248563
248690
248825
248960
249088
249221
249357
249486
249615
249742
249871
249998
250131
250231
250388
250515
250645
250774
250898
251026
251150
251276
251401
251527
251653
251778
251899
252024
252147
252270
252395
252515
252637
252758
252880
253006
253129
253248
253370
253495
253618
253742
253865
253988
254113
254240
254363
254485
254607
254728
254854
254978
255104
255234
255363
255479
255576
255749
255883
255998
256134
256261
256390
256510
256652
256782
256913
257045
257177
257311
257440
257570
257701
257833
257966
258110
258255
258411
258562
258713
258868
259019
259166
259315
259464
259612
259757
259903
260047
260193
260345
260483
260607
260775
260881
261057
261196
261335
261473
261615
261757
261892
262035
262179
262320
262451
262611
262749
262899
263040
263182
263323
263466
263607
263747
263890
264031
264178
264323
264460
264615
264759
264898
265039
265183
265324
265458
265601
265733
265880
266017
266159
266304
266447
266587
266734
266856
267026
267166
267306
267446
267586
267725
267866
268011
268153
268297
268409
268583
268724
268864
269000
269103
269249
269424
269560
269697
269833
269978
270124
270274
270424
270573
270728
270877
270994
271174
271317
271460
271598
271736
271875
272014
272149
272290
272426
272564
272698
272839
272968
273109
273241
273385
273512
273669
273806
273950
274087
274224
274362
274497
274634
274771
274908
275044
275181
275315
275451
275584
275717
275849
275983
276108
276252
276385
276520
276653
276786
276919
277051
277182
277315
277445
277576
277706
277836
277968
278083
278230
278357
278489
278617
278744
278868
278997
279125
279252
279377
279506
279636
279764
279891
280019
280149
280280
280406
280535
280665
280800
280932
281057
281189
281316
281443
281568
281694
281815
281945
282065
282167
282317
282445
282554
282634
282805
282938
283068
283155
283312
283439
283566
283697
283829
283956
284086
284216
284347
284475
284603
284733
284857
284986
285111
285234
285357
285491
285612
285733
285860
285985
286105
286231
286353
286474
286597
286719
286839
286961
287084
287206
287325
287445
287565
287686
287805
287925
288041
288160
288282
288403
288528
288656
288774
288902
289034
289153
289256
289409
289536
289662
289788
289914
290045
290171
290296
290419
290539
290674
290800
290924
291052
291181
291307
291436
291565
291692
291827
291951
292079
292206
292335
292460
292589
292716
292826
292973
293102
293224
293314
293491
293605
293750
293874
294003
294132
294263
294390
294523
294661
294797
294930
295069
295208
295345
295478
295614
295752
295892
296025
296157
296292
296423
296556
296688
296819
296952
297083
297218
297351
297489
297625
297756
297893
298025
298157
298293
298423
298557
298691
298816
298949
299085
299219
299354
299487
299621
299759
299894
300020
300165
300298
300437
300571
300703
300836
300969
301100
301224
301368
301502
301639
301737
301905
302033
302165
302295
302395
302555
302694
302824
302958
303064
303162
303386
303529
303667
303807
303940
304078
304216
304355
304493
304632
304734
304910
305044
305185
305323
305462
305602
305741
305863
306017
306151
306283
306422
306550
306679
306819
306953
307080
307240
307387
307522
307663
307807
307943
308085
308234
308374
308528
308673
308823
308966
309117
309258
309404
309548
309698
309840
309986
310123
310271
310412
310557
310695
310839
310983
311118
311254
311398
311538
311680
311818
311957
312063
312239
312383
312522
312665
312803
312953
313069
313236
313374
313518
313657
313803
313939
314080
314194
314360
314500
314633
314768
314906
315038
315166
315302
315429
315561
315693
315828
315964
316102
316239
316376
316508
316653
316782
316921
317054
317195
317306
317458
317592
317728
317865
317969
318131
318266
318386
318534
318667
318802
318942
319038
319214
319359
319471
319645
319783
319917
320056
320199
320308
320481
320618
320760
320905
321043
321188
321331
321478
321626
321773
321924
322069
322216
322359
322504
322645
322786
322925
323062
323200
323340
323479
323614
323736
323885
324023
324167
324299
324442
324579
324719
324854
324990
325129
325253
325417
325555
325694
325830
325971
326105
326230
326381
326515
326654
326785
326924
327056
327189
327321
327455
327591
327727
327861
327995
328136
328268
328406
328536
328672
328800
328931
329048
329146
329328
329457
329578
329715
329837
329964
330094
330214
330335
330461
330590
330712
330839
330967
331093
331222
331350
331480
331621
331730
331867
331991
332118
332245
332362
332493
332615
332738
332868
332991
333116
333234
333362
333485
333613
333739
333860
333991
334110
334237
334362
334487
334608
334731
334856
334979
335103
335226
335350
335471
335592
335710
335834
335956
336078
336205
336340
336451
336649
336791
336918
337070
337204
337339
337479
337610
337736
337862
337993
338122
338249
338381
338507
338634
338758
338883
339009
339140
339262
339394
339517
339646
339774
339901
340026
340152
340279
340403
340527
340651
340774
340897
341017
341136
341257
341365
341497
341618
341736
341851
341973
342089
342211
342326
342446
342568
342685
342808
342926
343042
343162
343282
343402
343527
343640
343763
343893
344005
344125
344245
344363
344487
344604
344729
344851
344977
345092
345217
345340
345466
345602
345758
345912
346030
346216
346348
346488
346623
346756
346893
347025
347154
347294
347428
347562
347694
347828
347930
348097
348227
348360
348490
348629
348756
348891
348999
349158
349295
349426
349557
349685
349797
349948
350073
350202
350339
350464
350588
350715
350843
350972
351097
351225
351354
351477
351599
351722
351848
351974
352056
352217
352340
352463
352586
352709
352819
352953
353077
353203
353325
353450
353573
353695
353818
353941
354041
354191
354316
354442
354564
354691
354817
354944
355075
355198
355321
355446
355571
355686
355817
355939
356064
356188
356314
356439
356568
356704
356834
356972
357113
357250
357386
357534
357674
357810
357943
358073
358203
358333
358464
358593
358721
358850
358980
359114
359244
359373
359474
359633
359733
359893
360016
360145
360275
360402
360531
360662
360796
360902
361077
361214
361356
361496
361638
361769
361914
362050
362186
362323
362456
362595
362728
362863
362995
363125
363257
363391
363525
363655
363783
363912
364048
364175
364309
364435
364569
364700
364841
364971
365108
365244
365380
365480
365646
365786
365910
366043
366174
366301
366436
366575
366709
366851
366980
367115
367249
367387
367516
367642
367775
367871
368033
368159
368283
368414
368519
368666
368788
368916
369035
369140
369288
369408
369542
369659
369783
369907
370032
370155
370291
370389
370529
370657
370780
370903
371026
371146
371273
371390
371511
371632
371754
371873
371992
372117
372236
372359
372480
372603
372679
372844
372970
373089
373212
373335
373462
373580
373699
373827
373952
374075
374197
374329
374462
374595
374727
374858
374991
375122
375253
375388
375508
375654
375778
375906
376037
376162
376285
376418
376546
376674
376802
376928
377056
377184
377312
377442
377569
377711
377836
377969
378104
378232
378364
378495
378628
378757
378856
379017
379148
379283
379411
379537
379672
379805
379939
380076
380210
380346
380449
380612
380742
380872
381001
381128
381254
381373
381506
381636
381763
381891
382019
382145
382271
382400
382528
382656
382784
382907
383008
383164
383291
383417
383544
383680
383803
383934
384067
384203
384334
384470
384611
384743
384877
385008
385142
385245
385362
385538
385667
385791
385920
386034
386167
386294
386412
386537
386660
386787
386916
387055
387195
387336
387461
387580
387746
387883
388013
388135
388267
388397
388520
388647
388770
388897
389027
389143
389267
389389
389513
389640
389762
389881
390007
390127
390224
390374
390467
390616
390741
390849
390983
391104
391228
391352
391479
391603
391729
391858
391993
392121
392232
392388
392516
392649
392747
392906
393031
393158
393288
393415
393507
393668
393795
393917
394050
394170
394296
394422
394548
394677
394807
394934
395065
395195
395318
395447
395580
395709
395839
395975
396103
396237
396368
396501
396605
396769
396899
397037
397171
397301
397431
397567
397691
397808
397952
398078
398208
398340
398463
398591
398724
398850
398984
399114
399241
399370
399498
399635
399759
399891
400025
400158
400289
400425
400554
400689
400822
400938
401088
401216
401347
401474
401609
401740
401874
402008
402142
402283
402416
402553
402693
402833
402973
403109
403212
403324
403520
403616
403752
403923
404054
404179
404310
404433
404562
404691
404821
404948
405082
405217
405324
405489
405618
405756
405889
406023
406126
406290
406417
406535
406675
406779
406939
407062
407197
407318
407450
407579
407706
407821
407965
408096
408224
408348
408476
408602
408730
408852
408978
409105
409232
409360
409484
409612
409743
409874
410001
410127
410251
410379
410511
410636
410764
410896
411024
411150
411274
411372
411529
411650
411779
411904
412028
412158
412282
412407
412531
412658
412787
412912
413035
413163
413291
413419
413546
413672
413808
413938
414060
414189
414319
414446
414582
414705
414827
414952
415079
415203
415327
415446
415569
415691
415810
415930
416051
416169
416289
416409
416525
416648
416747
416884
417004
417125
417242
417359
417479
417597
417714
417834
417949
418067
418185
418304
418427
418547
418653
418795
418917
419048
419173
419298
419424
419546
419670
419793
419915
420037
420160
420285
420411
420536
420663
420789
420915
421041
421167
421296
421419
421546
421673
421798
421926
422054
422178
422305
422432
422561
422688
422815
422943
423071
423200
423331
423460
423595
423721
423853
423979
424108
424240
424367
424490
424615
424738
424865
424987
425109
425235
425358
425481
425604
425726
425850
425975
426080
426220
426340
426465
426586
426707
426826
426948
427070
427193
427309
427417
427556
427677
427800
427920
428019
428159
428283
428404
428526
428619
428773
428899
429025
429155
429287
429421
429540
429692
429825
429960
430091
430222
430351
430476
430604
430730
430857
430982
431113
431250
431391
431529
431651
431808
431940
432077
432209
432341
432441
432601
432730
432866
432994
433127
433262
433397
433501
433619
433813
433946
434081
434212
434341
434477
434611
434746
434891
435032
435140
435321
435462
435605
435746
435884
436029
436172
436315
436455
436593
436731
436834
437007
437143
437277
437406
437539
437674
437805
437937
438075
438206
438338
438471
438601
438717
438860
438988
439119
439250
439377
439508
439642
439779
439901
440050
440184
440321
440458
440595
440699
440870
441006
441114
441273
441407
441540
441670
441799
441934
442029
442206
442338
442448
442597
442729
442857
442985
443113
443242
443370
443503
443628
443759
443884
444013
444137
444264
444391
444511
444650
444776
444895
444985
445158
445285
445410
445535
445660
445785
445895
446041
446168
446299
446426
446551
446677
446803
446932
447057
447181
447303
447425
447552
447676
447800
447926
448052
448174
448297
448419
448543
448667
448793
448920
449053
449181
449309
449439
449564
449696
449826
449956
450083
450186
450346
450453
450596
450703
450851
450976
451091
451231
451355
451463
451583
451734
451860
451993
452121
452249
452379
452513
452651
452793
452933
453075
453216
453337
453494
453635
453776
453917
454054
454186
454325
454456
454585
454716
454848
454980
455112
455246
455356
455512
455646
455772
455866
456050
456180
456308
456435
456567
456655
456822
456953
457083
457211
457343
457474
457611
457753
457837
458037
458175
458291
458447
458579
458710
458840
458969
459093
459220
459347
459472
459593
459706
459846
459968
460099
460231
460367
460504
460638
460755
460916
461052
461190
461325
461439
461591
461719
461849
461951
462111
462237
462366
462493
462617
462748
462856
463004
463130
463262
463392
463525
463652
463783
463914
464046
464179
464308
464436
464567
464698
464837
464968
465102
465232
465361
465444
465620
465751
465882
465996
466139
466269
466384
466533
466661
466790
466879
467054
467180
467309
467438
467565
467694
467806
467951
468077
468207
468338
468460
468605
468726
468867
468999
469118
469268
469399
469529
469661
469790
469920
470042
470179
470306
470440
470570
470698
470832
470957
471089
471218
471344
471486
471616
471750
471885
472023
472162
472301
472413
472573
472703
472837
472970
473100
473231
473361
473479
473621
473750
473878
474007
474135
474263
474389
474520
474650
474781
474909
475039
475167
475297
475420
475540
475664
475790
475910
476034
476162
476294
476424
476579
476717
476859
476991
477131
477260
477394
477527
477661
477795
477934
478073
478210
478346
478485
478622
478755
478884
479025
479145
479277
479407
479529
479643
479785
479912
480037
480120
480308
480436
480566
480694
480825
480916
481106
481237
481362
481512
481645
481782
481916
482051
482186
482325
482459
482608
482745
482884
483022
483159
483297
483433
483540
483704
483838
483975
484107
484237
484370
484501
484627
484755
484886
485017
485148
485281
485412
485546
485668
485820
485951
486083
486207
486355
486488
486623
486758
486896
487031
487165
487296
487425
487555
487686
487819
487952
488081
488215
488352
488490
488629
488766
488891
489010
489174
489306
489438
489568
489697
489824
489953
490078
490202
490328
490455
490574
490718
490846
490980
491106
491239
491374
491459
491637
491767
491897
492027
492154
492282
492412
492544
492672
492801
492934
493063
493194
493327
493456
493587
493724
493829
493979
494079
494202
494375
494507
494619
494767
494891
494996
495147
495271
495401
495486
495662
495792
495931
496065
496203
496333
496479
496611
496745
496877
497012
497143
497232
497416
497550
497683
497815
497947
498038
498207
498338
498467
498594
498724
498853
498984
499109
499239
499372
499504
499636
499768
499898
500029
500159
500288
500418
500545
500672
500800
500932
501060
501191
501291
501459
501591
501726
501858
501990
502124
502259
502368
502542
502673
502788
502948
503082
503217
503350
503484
503599
503754
503887
503997
504158
504290
504419
504521
504635
504815
504944
505076
505207
505338
505469
505594
505718
505858
505987
506123
506256
506390
506524
506657
506789
506870
507077
507215
507342
507488
507624
507761
507854
508034
508165
508298
508430
508560
508692
508824
508958
509089
509226
509358
509490
509624
509758
509894
510034
510175
510316
510428
510595
510731
510866
510998
511127
511257
511388
511520
511640
511787
511899
512051
512183
512320
512454
512586
512722
512815
512992
513094
513259
513389
513520
513650
513766
513910
514039
514169
514295
514421
514550
514680
514809
514941
515061
515204
515334
515453
515595
515722
515852
515934
516112
516239
516366
516493
516622
516706
516884
517013
517139
517268
517404
517530
517667
517805
517951
518102
518232
518362
518555
518698
518804
518971
519105
519240
519372
519505
519636
519767
519893
520018
520147
520275
520402
520525
520652
520784
520914
521057
521192
521331
521468
521605
521738
521872
522007
522136
522268
522394
522524
522656
522786
522919
523055
523186
523271
523474
523613
523752
523884
524019
524154
524287
524412
524555
524689
524817
524908
