peaks
75016
75219
75417
75615
75720
75999
76203
76403
76597
76789
76963
77184
77293
77569
77730
77968
78173
78262
78563
78722
78962
79163
79362
79474
79753
79912
80153
80351
80547
80750
80952
81153
81346
81541
81735
81935
82135
82334
82531
82729
82927
83129
83328
83522
83721
83924
84125
84234
84515
84716
84917
85117
85311
85506
85710
85908
86020
86303
86504
86701
86904
87108
87216
87493
87693
87887
88079
88268
88378
88652
88853
89053
89251
89445
89552
89837
90034
90232
90430
90629
90736
91018
91220
91419
91620
91819
91930
92226
92436
92637
92841
93045
93255
93461
93664
93871
94081
94286
94490
94692
94898
95109
95312
95510
95714
95924
96128
96332
96532
96736
96948
97154
97356
97562
97766
97976
98184
98385
98588
98793
99001
99206
99410
99612
99817
100032
100237
100437
100546
100827
101032
101199
101430
101629
101827
102027
102230
102430
102628
102832
102943
103242
103458
103660
103861
104061
104172
104456
104664
104866
105065
105206
105465
105664
105866
106067
106266
106387
106658
106861
107064
107269
107475
107677
107882
108092
108303
108512
108716
108927
109146
109361
109572
109780
109988
110206
110414
110623
110838
111047
111256
111465
111667
111871
112082
112286
112490
112694
112897
113104
113314
113518
113722
113928
114145
114354
114562
114769
114980
115192
115406
115615
115706
116015
116236
116439
116642
116851
117062
117282
117486
117685
117877
118067
118256
118447
118638
118827
119013
119206
119396
119588
119784
119980
120185
120391
120594
120793
120998
121201
121404
121606
121712
121995
122193
122381
122576
122773
122968
123164
123367
123473
123764
123974
124172
124373
124577
124689
124982
125190
125387
125585
125786
125896
126182
126389
126586
126783
126983
127090
127373
127578
127775
127974
128175
128284
128563
128765
128958
129153
129353
129552
129756
129966
130170
130372
130578
130787
130997
131207
131414
131616
131816
132018
132223
132433
132641
132847
133055
133265
133469
133675
133876
134082
134289
134504
134709
134910
135117
135333
135544
135749
135956
136170
136382
136594
136801
137003
137206
137408
137618
137823
138028
138242
138462
138677
138887
139093
139301
139509
139718
139920
140122
140325
140529
140737
140940
141141
141344
141548
141754
141961
142165
142373
142589
142796
143003
143207
143415
143621
143836
144052
144260
144466
144674
144887
145093
145299
145512
145722
145931
146140
146344
146551
146766
146975
147178
147381
147584
147791
148001
148196
148413
148622
148830
149040
149240
149435
149635
149838
150040
150246
150444
150643
150847
151053
151256
151460
151660
151861
152071
152279
152482
152686
152892
153108
153320
153525
153734
153945
154163
154372
154577
154785
155005
155222
155427
155635
155858
156083
156301
156513
156717
156923
157145
157364
157573
157786
158011
158222
158428
158633
158838
159048
159262
159472
159676
159885
160100
160311
160516
160718
160927
161139
161343
161550
161757
161960
162169
162378
162582
162788
162994
163203
163408
163610
163817
164031
164251
164458
164665
164872
165080
165301
165516
165720
165929
166136
166347
166560
166762
166965
167178
167391
167603
167806
168007
168214
168423
168629
168837
169043
169253
169472
169687
169890
170100
170312
170525
170733
170939
171145
171355
171576
171786
171993
172203
172419
172630
172835
173046
173259
173470
173685
173894
174097
174301
174509
174716
174931
175137
175342
175550
175657
175956
176166
176366
176573
176786
176993
177200
177403
177606
177822
178025
178224
178449
178647
178851
179068
179275
179483
179695
179914
180123
180329
180539
180754
180968
181177
181393
181614
181821
182028
182238
182460
182685
182900
183111
183333
183552
183763
183967
184174
184389
184601
184804
185011
185214
185423
185634
185842
186049
186258
186480
186691
186901
187112
187319
187534
187752
187964
188174
188386
188607
188829
189039
189253
189469
189678
189888
190092
190300
190513
190730
190948
191157
191363
191570
191790
192004
192213
192429
192651
192870
193077
193285
193375
193697
193798
194110
194219
194516
194685
194935
195137
195234
195537
195719
195854
196149
196364
196541
196783
196989
197162
197399
197609
197781
198028
198237
198404
198671
198880
199041
199290
199498
199664
199912
200125
200293
200544
200756
200961
201165
201375
201583
201791
201998
202204
202415
202632
202850
202946
203256
203470
203676
203883
204085
204287
204493
204704
204913
205116
205317
205526
205742
205953
206160
206369
206582
206798
207002
207205
207409
207620
207837
208051
208262
208477
208701
208918
209010
209265
209472
209703
209927
210149
210358
210570
210792
211000
211207
211421
211646
211864
212079
212300
212517
212743
212840
213152
213370
213578
213790
214002
214210
214416
214624
214833
215048
215248
215361
215681
215897
216105
216288
216513
216728
216945
217163
217259
217562
217793
218022
218232
218330
218646
218755
219059
219270
219478
219684
219896
220108
220318
220529
220740
220949
221153
221358
221565
221781
221995
222191
222420
222629
222840
223048
223252
223464
223686
223894
224100
224284
224513
224732
224945
225146
225352
225560
225776
225989
226203
226416
226631
226849
227059
227244
227469
227692
227911
228127
228316
228550
228773
228996
229206
229420
229639
229859
230077
230290
230382
230651
230897
231123
231364
231589
231811
231903
232169
232265
232620
232857
233071
233283
233494
233712
233923
234134
234334
234581
234675
235016
235231
235345
235652
235870
236081
236294
236511
236727
236936
237151
237367
237583
237772
238005
238217
238427
238524
238791
239051
239272
239482
239575
239811
240063
240293
240515
240734
240945
241041
241293
241543
241660
241992
242218
242329
242633
242847
243053
243263
243356
243605
243863
243996
244305
244524
244733
244827
245087
245340
245567
245787
246006
246218
246314
246639
246860
247073
247278
247485
247601
247878
248108
248321
248411
248734
248832
249140
249358
249566
249776
249985
250095
250392
250609
250789
251014
251235
251452
251667
251876
252087
252300
252506
252713
252805
253132
253233
253546
253760
253961
254170
254379
254589
254803
254994
255222
255441
255659
255755
256024
256279
256512
256739
256960
257181
257281
257610
257833
258046
258259
258478
258695
258910
259126
259352
259572
259664
259991
260213
260428
260650
260865
261077
261292
261484
261716
261937
262159
262384
262608
262819
263035
263255
263469
263679
263896
264118
264338
264556
264768
264989
265209
265421
265640
265856
266075
266290
266501
266715
266932
267121
267357
267575
267794
267887
268132
268393
268503
268842
269069
269279
269371
269621
269878
269989
270326
270553
270769
270872
271124
271378
271490
271817
272043
272260
272354
272604
272859
273024
273306
273524
273739
273837
274156
274373
274485
274789
275003
275213
275427
275613
275828
276047
276265
276357
276613
276865
276973
277293
277515
277625
277942
278169
278280
278519
278759
278986
279206
279423
279637
279853
280068
280257
280482
280704
280919
281138
281349
281561
281779
281993
282208
282421
282634
282850
283061
283267
283478
283669
283905
284135
284361
284585
284811
285024
285245
285468
285564
285906
286129
286342
286562
286657
286981
287201
287421
287639
287830
287939
288268
288498
288607
288853
289111
289339
289563
289781
289877
290201
290419
290627
290839
291052
291260
291469
291679
291893
292106
292315
292525
292739
292927
293036
293365
293586
293803
294020
294227
294437
294545
294845
295061
295265
295474
295683
295901
296092
296313
296534
296753
296970
297064
297386
297485
297751
298014
298245
298468
298686
298894
299110
299327
299524
299756
299981
300205
300299
300561
300670
301006
301236
301455
301670
301877
302086
302202
302499
302716
302921
303131
303224
303542
303771
303991
304205
304419
304637
304850
305061
305274
305468
305704
305921
306136
306356
306543
306769
306995
307086
307425
307654
307867
308074
308283
308490
308680
308906
309123
309216
309563
309795
310008
310103
310425
310644
310852
311062
311275
311488
311698
311877
312100
312323
312539
312750
312957
313170
313391
313585
313822
314043
314268
314358
314618
314873
315119
315353
315585
315815
316042
316264
316483
316705
316803
317131
317349
317563
317782
317993
318203
318424
318644
318861
319056
319294
319392
319727
319951
320167
320385
320600
320810
321023
321236
321455
321670
321881
322063
322289
322510
322735
322826
323083
323350
323588
323818
324040
324267
324358
324632
324895
325123
325350
325465
325703
325952
326184
326405
326623
326842
327061
327275
327488
327581
327911
328010
328323
328428
328750
328966
329179
329384
329598
329816
330032
330245
330457
330676
331085
331324
331547
331762
331870
332176
332391
332605
332701
333021
333236
333445
333656
333870
334061
334292
334512
334725
334935
335150
335361
335581
335773
336004
336223
336442
336536
336786
337044
337281
337508
337731
337952
338177
338398
338491
338738
338970
339213
339436
339651
339867
340095
340191
340482
340747
340979
341206
341425
341642
341859
342079
342294
342503
342719
342945
343144
343382
343603
343819
344033
344244
344453
344670
344864
345094
345317
345531
345752
345849
346171
346397
346612
346823
347035
347242
347454
347673
347867
348091
348323
348546
348765
348980
349205
349400
349635
349851
350064
350275
350462
350682
350904
351126
351344
351555
351773
352000
352195
352430
352654
352872
353091
353300
353393
353727
353957
354171
354389
354488
354812
354914
355225
355332
355642
355856
356065
356272
356390
356692
356907
357113
357329
357424
357751
357853
358183
358403
358520
358823
359038
359247
359455
359554
359878
359977
360297
360514
360723
360933
361045
361339
361558
361772
361985
362198
362406
362615
362821
363002
363226
363439
363530
363856
364074
364288
364501
364712
364924
365143
365332
365445
365775
365997
366212
366302
366627
366848
367058
367268
367456
367678
367909
368131
368330
368421
368507
368603
368698
368926
369165
369384
369484
369809
369911
370238
370454
370662
370872
371080
371287
371481
371716
371932
372027
372349
372446
372766
372867
373186
373289
373549
373804
373960
374231
374327
374625
374848
375057
375266
375472
375678
375890
376001
376308
376523
376633
376936
377153
377267
377512
377765
377985
378201
378297
378545
378800
379026
379251
379365
379617
379870
380093
380312
380404
380650
380900
381125
381346
381468
381705
381889
382109
382329
382530
382729
382945
383162
383348
383580
383793
384013
384233
384453
384670
384890
384987
385328
385552
385762
385972
386180
386389
386577
386807
387032
387124
387464
387687
387899
388119
388336
388550
388764
388982
389381
389627
389854
390078
390188
390496
390719
390932
391027
391356
391572
391780
391993
392179
392407
392628
392848
393067
393281
393491
393705
393926
394138
394349
394564
394783
394999
395210
395425
395644
395833
396076
396303
396521
396745
396969
397182
397402
397599
397846
398068
398290
398507
398724
398932
399144
399354
399565
399777
399872
400185
400288
400605
400822
400948
401235
401448
401627
401848
402061
402274
402484
402692
402901
403110
403303
403413
403737
403966
404178
404388
404600
404812
405005
405235
405455
405674
405767
406022
406278
406389
406727
406959
407168
407382
407535
407799
407890
408009
408229
408429
408643
408856
409046
409279
409502
409596
409937
410155
410367
410589
410801
411016
411204
411450
411673
411892
412113
412213
412549
412782
412997
413211
413430
413524
413855
414071
414287
414507
414723
414935
415145
415361
415569
415776
415965
416201
416431
416653
416868
416962
417287
417500
417713
417927
418147
418354
418566
418782
418998
419193
419423
419640
419851
420065
420272
420483
420703
420894
421125
421349
421570
421783
421994
422205
422419
422611
422721
423049
423267
423481
423668
423901
424123
424236
424550
424768
424982
425078
425404
425624
425836
426052
426270
426485
426699
426921
427143
427357
427573
427791
428013
428230
428447
428662
428881
429103
429293
429415
429746
429977
430193
430409
430520
430781
431044
431274
431500
431725
431944
432158
432371
432558
432793
433015
433243
433464
433556
433892
434105
434318
434544
434760
434976
435190
435287
435615
435837
436047
436264
436479
436699
436891
437122
437347
437577
437800
438019
438245
438468
438684
438898
439113
439334
439554
439775
439874
440209
440439
440652
440749
440993
441257
441492
441717
441941
442156
442249
442582
442796
443006
443218
443435
443649
443863
444080
444296
444513
444735
444946
445164
445390
445610
445827
446041
446255
446476
446690
446908
447004
447272
447530
447697
448005
448237
448451
448666
448884
449112
449328
449543
449758
449958
450200
450314
450649
450871
451087
451308
451408
451736
451966
452182
452395
452611
452829
453023
453260
453490
453718
453934
454148
454362
454571
454783
455001
455193
455430
455654
455872
456087
456298
456510
456728
456946
457041
457340
457594
457815
458035
458147
458453
458674
458885
459099
459285
459397
459730
459957
460168
460378
460586
460802
461015
461230
461425
461517
461857
462072
462277
462484
462695
462909
463101
463333
463548
463764
463987
464084
464401
464504
464846
465075
465288
465395
465648
465917
466028
466370
466597
466813
466911
467238
467460
467674
467883
468095
468205
468506
468726
468937
469145
469358
469545
469767
469985
470200
470410
470624
470834
471045
471263
471477
471690
471879
472117
472343
472562
472774
472989
473212
473431
473625
473861
474096
474325
474533
474748
474963
475181
475373
475482
475813
476032
476239
476451
476666
476763
477088
477192
477440
477700
477812
478137
478358
478572
478787
478903
479211
479437
479660
479882
480096
480311
480529
480756
480959
481189
481424
481653
481880
482098
482313
482535
482769
482992
483090
483385
483649
483874
484085
484176
484428
484697
484933
485161
485383
485603
485698
485971
486235
486465
486687
486904
487118
487229
487547
487734
487843
488169
488385
488594
488771
488888
489210
489435
489642
489851
490063
490280
490494
490708
490928
491150
491339
491571
491793
492012
492230
492448
492672
492903
493122
493215
493489
493763
494004
494239
494469
494701
494921
495142
495361
495497
495792
496015
496226
496435
496549
496854
497083
497298
497510
497723
497817
498147
498366
498579
498799
499020
499231
499448
499642
499884
499980
500328
500560
500785
501002
501216
501433
501655
501872
502085
502302
502505
502746
502843
503187
503411
503629
503844
504022
504252
504480
504704
504925
505144
505237
505571
505791
505999
506215
506404
506518
506856
507075
507287
507385
507717
507935
508148
508360
508580
508775
509001
509221
509436
509649
509860
510071
510284
510478
510716
510940
511160
511369
511580
511791
512008
512225
512439
512540
512811
513074
513301
513525
513741
513966
514063
514392
514619
514834
515048
515258
515469
515682
515900
516091
516325
516554
516776
516998
517216
517436
517635
517746
518073
518202
518312
518456
518676
518917
519072
519359
519578
519789
520006
520221
520438
520655
520842
521076
521304
521525
521745
521975
522190
522407
522597
522832
523058
523277
523492
523708
523932
524151
524245
524566
524804
