peaks
75012
75182
75353
75526
75697
75867
76039
76211
76383
76556
76733
76906
77081
77260
77436
77614
77794
77972
78150
78331
78511
78693
78872
79052
79234
79363
79594
79777
79956
80136
80313
80493
80673
80853
81034
81212
81394
81573
81756
81954
82144
82326
82524
82728
82928
83071
83322
83516
83713
83914
84109
84306
84501
84693
84883
85068
85256
85453
85575
85804
85999
86183
86368
86556
86742
86927
87112
87299
87432
87661
87860
88052
88205
88427
88617
88804
88991
89174
89355
89540
89723
89901
90084
90263
90442
90625
90805
90984
91167
91350
91528
91709
91890
92066
92248
92429
92607
92787
92964
93150
93330
93499
93638
93850
94030
94208
94341
94558
94740
94918
95095
95274
95452
95628
95806
95983
96159
96337
96515
96692
96837
97049
97231
97413
97597
97778
97957
98140
98276
98496
98689
98873
99053
99233
99412
99580
99711
99935
100122
100302
100487
100678
100858
101038
101212
101393
101575
101758
101932
102113
102292
102473
102649
102827
102995
103171
103347
103523
103700
103876
104051
104225
104403
104581
104760
104936
105099
105274
105447
105628
105799
105962
106135
106313
106487
106662
106838
107013
107189
107365
107547
107731
107902
108082
108262
108443
108626
108811
109000
109178
109357
109531
109709
109883
110057
110206
110412
110593
110771
110952
111133
111313
111496
111625
111849
112036
112216
112394
112577
112757
112935
113117
113296
113474
113654
113830
114010
114195
114377
114544
114720
114896
115074
115250
115427
115606
115783
115962
116139
116321
116503
116682
116861
117042
117185
117290
117417
117606
117777
117962
118140
118334
118520
118694
118882
119061
119237
119428
119609
119788
119963
120153
120336
120520
120698
120875
121050
121228
121410
121585
121768
121947
122128
122309
122494
122681
122868
123056
123243
123429
123561
123799
123995
124191
124388
124588
124780
124959
125145
125327
125511
125696
125879
126066
126253
126384
126623
126814
127009
127141
127420
127622
127814
128005
128199
128383
128568
128753
128938
129121
129300
129483
129664
129852
130033
130224
130414
130602
130782
130962
131149
131317
131495
131670
131847
132021
132195
132375
132558
132737
132922
133098
133276
133454
133632
133818
134002
134181
134361
134539
134718
134902
135081
135253
135429
135605
135780
135955
136127
136303
136478
136653
136829
137004
137180
137359
137534
137705
137877
138053
138227
138403
138576
138750
138923
139096
139271
139445
139619
139794
139970
140143
140321
140496
140631
140728
140856
141041
141223
141411
141595
141779
141962
142146
142326
142507
142690
142870
143048
143203
143413
143598
143792
143984
144176
144369
144561
144754
144950
145136
145321
145505
145683
145864
146041
146221
146400
146580
146760
146938
147112
147300
147484
147670
147798
148033
148217
148401
148548
148758
148940
149110
149306
149478
149652
149821
149997
150161
150344
150470
150699
150887
151074
151260
151442
151627
151811
151993
152175
152358
152538
152717
152896
153073
153252
153430
153612
153795
153971
154153
154330
154505
154633
154858
155044
155228
155408
155578
155755
155934
156107
156284
156458
156635
156818
156997
157178
157360
157540
157726
157908
158047
158263
158449
158632
158815
158997
159178
159358
159541
159717
159901
160079
160259
160439
160622
160798
160978
161159
161336
161518
161698
161880
162058
162245
162427
162609
162794
162935
163037
163177
163375
163534
163721
163903
164045
164268
164462
164654
164839
165027
165212
165393
165571
165747
165921
166099
166270
166442
166617
166794
166972
167147
167326
167500
167687
167866
168039
168216
168391
168574
168724
168930
169112
169292
169468
169646
169825
169964
170089
170356
170548
170742
170923
171104
171288
171469
171652
171839
172019
172199
172384
172566
172703
172952
173159
173356
173550
173737
173931
174119
174312
174502
174695
174895
175087
175279
175467
175655
175851
175999
176250
176455
176658
176858
177051
177252
177442
177637
177827
178016
178201
178392
178586
178777
178970
179111
179338
179533
179726
179912
180097
180291
180414
180525
180851
181040
181224
181409
181598
181789
181976
182143
182327
182509
182694
182866
183040
183221
183400
183574
183754
183932
184111
184292
184418
184520
184642
184778
184999
185178
185354
185533
185708
185841
185942
186069
186243
186415
186594
186771
186952
187128
187308
187488
187664
187838
188019
188196
188378
188511
188726
188913
189095
189275
189457
189638
189819
189998
190176
190357
190533
190713
190892
191072
191250
191431
191611
191791
191971
192151
192334
192516
192697
192883
193065
193245
193427
193607
193736
193953
194138
194319
194499
194683
194860
195040
195224
195406
195586
195782
195978
196164
196300
196539
196728
196916
197106
197293
197487
197678
197856
198042
198230
198417
198603
198790
198969
199151
199341
199526
199698
199882
200063
200257
200395
200630
200818
201008
201183
201362
201544
201731
201910
202086
202260
202444
202624
202804
202979
203156
203328
203505
203680
203858
204039
204215
204348
204558
204739
204925
205102
205278
205453
205622
205757
205968
206145
206321
206495
206669
206842
207015
207188
207361
207536
207707
207879
208052
208223
208395
208569
208741
208911
209086
209258
209431
209608
209780
209951
210127
210299
210471
210646
210820
210989
211170
211344
211521
211697
211874
212044
212221
212398
212579
212760
212935
213115
213293
213470
213648
213826
214005
214184
214367
214548
214726
214908
215087
215279
215483
215677
215869
216058
216247
216433
216618
216806
216991
217177
217359
217544
217723
217906
218086
218266
218443
218628
218806
218983
219145
219325
219500
219676
219848
220025
220204
220380
220557
220734
220915
221077
221251
221422
221599
221772
221949
222122
222255
222467
222643
222818
222993
223165
223339
223513
223645
223853
224026
224197
224369
224540
224709
224881
225049
225220
225388
225557
225726
225899
226072
226244
226418
226590
226761
226935
227110
227285
227457
227631
227763
227973
228151
228327
228507
228683
228860
229034
229211
229385
229557
229723
229893
230066
230248
230434
230620
230800
230986
231158
231355
231529
231711
231888
232067
232242
232422
232599
232778
232954
233138
233318
233489
233669
233848
234025
234201
234378
234555
234732
234906
235083
235260
235436
235616
235800
235963
236140
236322
236504
236686
236833
237041
237220
237401
237580
237754
237935
238107
238272
238445
238620
238790
238963
239138
239311
239486
239665
239841
240013
240191
240365
240541
240715
240893
241041
241248
241418
241595
241772
241954
242133
242312
242494
242627
242845
243028
243207
243387
243569
243745
243886
244110
244296
244490
244689
244884
245065
245256
245439
245623
245801
245983
246164
246341
246522
246709
246893
247073
247260
247443
247624
247809
247993
248175
248358
248540
248722
248904
249082
249279
249470
249659
249839
250018
250206
250395
250582
250771
250901
251138
251331
251522
251708
251898
252087
252272
252458
252642
252823
253001
253180
253359
253537
253713
253891
254065
254250
254419
254592
254770
254944
255126
255305
255440
255652
255831
256006
256147
256359
256536
256722
256904
257082
257256
257436
257615
257790
257965
258139
258325
258508
258687
258871
259053
259235
259425
259606
259791
259975
260103
260201
260327
260528
260716
260905
261095
261286
261476
261664
261861
262051
262246
262448
262646
262840
263035
263231
263426
263619
263746
264000
264199
264399
264596
264788
264979
265183
265389
265585
265783
265984
266187
266385
266581
266775
266965
267154
267341
267472
267708
267896
268080
268264
268446
268632
268810
268994
269172
269355
269536
269714
269894
270072
270260
270443
270626
270802
270967
271141
271320
271499
271676
271849
272027
272203
272377
272555
272731
272905
273049
273255
273433
273608
273789
273961
274150
274327
274503
274670
274844
275022
275204
275403
275580
275768
275951
276139
276321
276481
276697
276827
277070
277263
277452
277643
277831
278019
278214
278412
278606
278795
278992
279181
279361
279548
279731
279914
280105
280303
280496
280688
280880
281071
281263
281462
281653
281849
282039
282169
282408
282607
282808
282997
283191
283385
283590
283782
283965
284164
284367
284556
284754
284938
285123
285301
285483
285668
285843
286030
286212
286393
286577
286758
286931
287123
287311
287490
287676
287858
288044
288230
288417
288609
288806
288988
289171
289350
289523
289699
289877
290015
290224
290400
290572
290755
290934
291113
291292
291471
291646
291823
291998
292172
292349
292525
292700
292875
293052
293228
293406
293583
293763
293930
294104
294280
294455
294615
294735
294982
295166
295344
295521
295696
295884
296071
296257
296445
296640
296826
297003
297184
297366
297545
297690
297903
298090
298278
298456
298645
298831
299017
299199
299384
299565
299743
299927
300106
300303
300489
300677
300871
301060
301237
301424
301611
301794
301973
302155
302335
302518
302708
302888
303070
303247
303424
303604
303786
303966
304150
304334
304466
304563
304691
304885
305073
305260
305447
305634
305809
306010
306196
306379
306570
306752
306932
307100
307277
307466
307646
307814
307996
308184
308365
308547
308730
308910
309082
309261
309443
309617
309802
309982
310159
310343
310521
310702
310879
311055
311236
311387
311595
311775
311960
312142
312322
312505
312685
312808
312907
313033
313239
313425
313613
313800
313987
314187
314376
314554
314744
314929
315117
315293
315475
315658
315841
316025
316210
316399
316588
316773
316954
317141
317326
317509
317685
317864
318046
318227
318406
318587
318771
318954
319099
319318
319509
319696
319888
320091
320281
320459
320652
320840
321029
321216
321402
321586
321772
321956
322091
322325
322509
322692
322839
323055
323238
323419
323599
323777
323956
324133
324308
324487
324664
324840
325017
325193
325368
325544
325718
325896
326070
326240
326417
326595
326738
326944
327120
327295
327426
327558
327818
327998
328179
328354
328529
328706
328880
329056
329233
329411
329546
329759
329943
330119
330290
330465
330654
330840
331030
331207
331388
331558
331734
331911
332081
332255
332427
332602
332777
332949
333124
333300
333475
333654
333834
334015
334195
334376
334556
334734
334911
335041
335137
335264
335444
335620
335800
335977
336157
336333
336512
336692
336873
337050
337234
337411
337595
337777
337961
338145
338325
338505
338686
338864
339044
339225
339414
339596
339765
339950
340127
340294
340469
340647
340822
341005
341184
341357
341541
341721
341856
342075
342259
342441
342589
342810
342982
343160
343335
343511
343686
343861
344037
344213
344396
344577
344760
344936
345114
345292
345423
345642
345821
346002
346181
346361
346540
346717
346900
347108
347313
347506
347699
347888
348071
348257
348399
348501
348638
348824
349002
349184
349369
349561
349754
349948
350142
350333
350533
350720
350901
351073
351252
351429
351603
351784
351912
352137
352322
352507
352683
352858
353032
353158
353378
353558
353739
353912
354095
354274
354455
354641
354821
355001
355187
355375
355555
355749
355935
356119
356304
356487
356669
356844
357023
357200
357378
357555
357733
357913
358095
358230
358460
358643
358826
359009
359191
359373
359554
359741
359919
360095
360268
360440
360622
360793
360961
361130
361297
361475
361648
361820
361988
362158
362331
362515
362698
362878
363019
363123
363249
363430
363599
363778
363955
364132
364308
364486
364663
364837
365020
365203
365384
365565
365745
365925
366103
366280
366461
366648
366835
367021
367210
367396
367581
367765
367949
368131
368315
368445
368542
368664
368875
369062
369246
369428
369601
369779
369960
370138
370319
370497
370673
370853
371032
371212
371330
371564
371735
371914
372091
372267
372443
372619
372795
372972
373150
373289
373387
373509
373694
373867
374057
374235
374415
374596
374772
374951
375134
375315
375494
375673
375850
376024
376202
376377
376554
376732
376906
377081
377257
377432
377608
377755
377876
378136
378322
378505
378684
378865
379048
379229
379412
379591
379765
379942
380119
380295
380472
380647
380815
380989
381164
381339
381511
381684
381829
382029
382204
382385
382559
382736
382916
383094
383230
383438
383619
383797
383971
384135
384306
384476
384647
384820
384992
385161
385330
385500
385668
385839
386011
386178
386349
386515
386651
386848
387021
387191
387360
387530
387699
387873
388044
388220
388388
388563
388738
388913
389082
389256
389426
389597
389767
389935
390104
390275
390446
390619
390787
390956
391125
391296
391465
391642
391811
391971
392143
392312
392482
392655
392837
393007
393174
393355
393529
393696
393870
394043
394214
394385
394558
394728
394868
394967
395090
395258
395421
395595
395780
395945
396119
396295
396472
396649
396822
396997
397133
397244
397526
397706
397881
398057
398231
398407
398583
398757
398929
399105
399278
399451
399629
399809
399984
400161
400341
400517
400694
400870
401045
401217
401392
401566
401738
401863
402087
402256
402427
402608
402772
402945
403118
403295
403473
403641
403814
403987
404157
404331
404506
404677
404848
405019
405191
405361
405528
405705
405879
406034
406210
406385
406557
406729
406889
407055
407224
407390
407556
407723
407891
408054
408221
408388
408555
408720
408888
409055
409222
409388
409556
409724
409891
410060
410227
410393
410563
410731
410897
411063
411233
411406
411577
411746
411924
412097
412267
412438
412616
412769
412957
413126
413295
413465
413635
413804
413970
414129
414302
414470
414642
414824
414986
415155
415332
415512
415684
415861
416040
416214
416394
416574
416753
416928
417107
417286
417467
417656
417827
417997
418173
418321
418525
418702
418884
419065
419248
419431
419607
419788
419963
420142
420317
420497
420671
420854
420998
421203
421384
421574
421756
421942
422123
422304
422482
422654
422821
422992
423163
423337
423468
423673
423852
424025
424200
424374
424550
424722
424893
425072
425252
425420
425605
425781
425957
426133
426312
426487
426665
426843
427021
427198
427376
427557
427732
427910
428086
428257
428433
428601
428774
428945
429083
429290
429465
429642
429822
429997
430174
430347
430525
430701
430876
431054
431227
431404
431585
431770
431947
432134
432315
432494
432675
432850
433029
433216
433396
433566
433739
433915
434093
434272
434449
434627
434806
434994
435173
435343
435520
435700
435875
436019
436238
436415
436584
436765
436951
437140
437337
437529
437720
437911
438096
438281
438465
438592
438825
439012
439194
439338
439560
439746
439936
440067
440304
440492
440670
440862
441043
441226
441410
441598
441781
441974
442166
442357
442545
442731
442916
443098
443293
443472
443653
443835
444005
444187
444370
444551
444731
444911
445098
445277
445445
445621
445797
445972
446148
446324
446500
446680
446857
447035
447210
447396
447576
447744
447888
448005
448263
448450
448576
448679
448802
448979
449133
449302
449472
449641
449812
449985
450156
450324
450494
450662
450829
450996
451163
451329
451496
451664
451833
451998
452170
452339
452507
452676
452844
453011
453177
453343
453511
453652
453847
454013
454183
454354
454525
454695
454865
455032
455204
455375
455545
455716
455885
456054
456222
456396
456568
456740
456915
457090
457267
457396
457615
457792
457970
458145
458319
458494
458673
458859
459043
459227
459411
459591
459770
459948
460126
460262
460482
460665
460846
461024
461202
461390
461571
461698
461807
462112
462292
462476
462620
462839
463027
463215
463402
463591
463779
463962
464142
464327
464513
464702
464889
465071
465258
465448
465628
465818
466005
466191
466379
466567
466709
466810
466932
467121
467296
467423
467518
467644
467865
468060
468263
468460
468598
468821
469014
469197
469367
469548
469734
469916
470099
470280
470458
470630
470809
470983
471159
471332
471510
471687
471861
472036
472208
472349
472561
472740
472920
473094
473271
473448
473629
473808
473983
474164
474340
474522
474709
474890
475018
475131
475424
475610
475786
475969
476158
476346
476527
476718
476909
477103
477288
477458
477639
477821
477999
478178
478371
478550
478729
478896
479076
479250
479436
479621
479802
479977
480160
480345
480528
480711
480896
481074
481248
481420
481597
481777
481924
482128
482313
482484
482665
482842
483021
483199
483383
483555
483731
483901
484079
484252
484420
484594
484767
484940
485078
485282
485461
485628
485804
485970
486141
486315
486489
486653
486825
487000
487171
487332
487509
487673
487843
488007
488176
488345
488514
488681
488850
489023
489158
489259
489385
489687
489861
490027
490198
490367
490537
490708
490878
491051
491222
491395
491565
491737
491904
492081
492255
492428
492604
492779
492961
493136
493313
493488
493663
493826
493959
494168
494342
494517
494689
494861
495036
495213
495397
495576
495745
495927
496093
496271
496444
496619
496795
496972
497151
497328
497508
497688
497867
497990
498093
498263
498406
498587
498764
498950
499120
499257
499362
499486
499661
499825
500005
500181
500360
500536
500713
500890
501066
501246
501419
501594
501767
501939
502118
502290
502461
502629
502794
502965
503144
503314
503477
503650
503824
503993
504163
504344
504513
504684
504854
505015
505182
505350
505517
505683
505854
506019
506184
506352
506521
506691
506855
506981
507080
507354
507523
507650
507748
507897
508048
508211
508380
508548
508717
508886
509046
509215
509391
509561
509723
509892
510057
510227
510394
510564
510737
510906
511078
511264
511437
511604
511777
511949
512120
512296
512467
512649
512824
513003
513146
513355
513538
513715
513890
514067
514248
514414
514590
514772
514951
515134
515312
515493
515667
515846
516023
516196
516380
516539
516720
516896
517068
517237
517413
517584
517755
517926
518097
518270
518443
518615
518786
518958
519127
519295
519467
519633
519803
519969
520136
520305
520471
520637
520800
520972
521138
521292
521456
521620
521783
521946
522106
522270
522435
522595
522760
522921
523081
523243
523407
523569
523729
523890
524053
524178
524310
524540
524704
524865
