peaks
75041
75295
75533
75761
76005
76249
76499
76740
76978
77222
77467
77712
77950
78188
78438
78682
78935
79173
79421
79667
79916
80170
80411
80656
80902
81152
81399
81638
81879
82121
82372
82615
82851
83098
83342
83592
83834
84070
84314
84566
84815
85067
85306
85550
85801
86053
86296
86534
86775
87026
87270
87519
87776
88044
88303
88549
88805
89060
89316
89554
89803
90051
90288
90519
90764
91012
91254
91483
91736
91984
92238
92485
92728
92979
93235
93489
93734
93979
94236
94487
94726
94973
95221
95472
95723
95962
96201
96448
96698
96949
97185
97426
97673
97924
98169
98409
98662
98919
99177
99421
99668
99922
100169
100423
100659
100891
101132
101374
101611
101842
102091
102344
102598
102842
103078
103324
103577
103841
104088
104352
104612
104864
105116
105368
105620
105857
106101
106342
106588
106830
107072
107323
107580
107822
107984
108073
108144
108225
108308
108402
108504
108605
108715
108833
109018
109143
109254
109379
109502
109604
109707
109811
109921
110014
110328
110551
110721
110828
110931
111036
111131
111249
111351
111447
111543
111636
111725
111813
111902
111988
112068
112159
112517
112722
112972
113237
113495
113736
113987
114252
114512
114758
115010
115272
115529
115774
116008
116248
116493
116733
116967
117212
117447
117688
117915
118147
118387
118630
118863
119082
119320
119550
119778
119994
120217
120447
120694
120927
121154
121393
121644
121897
122135
122360
122602
122852
123098
123329
123567
123812
124062
124295
124527
124767
125016
125259
125494
125756
126013
126274
126521
126767
127022
127273
127519
127750
127999
128251
128505
128762
129017
129284
129548
129795
130034
130282
130535
130784
131022
131273
131523
131777
132016
132241
132488
132739
132985
133208
133454
133705
133963
134199
134436
134691
134949
135193
135431
135678
135928
136170
136404
136636
136885
137138
137379
137607
137844
138087
138341
138573
138800
139045
139295
139533
139761
139994
140236
140465
140694
140922
141150
141394
141627
141850
142088
142335
142596
142839
143064
143297
143540
143795
144034
144263
144509
144759
145014
145248
145480
145726
145976
146228
146458
146686
146929
147172
147417
147642
147889
148132
148369
148601
148819
149057
149322
149590
149849
150104
150375
150642
150894
151145
151408
151672
151920
152157
152411
152656
152907
153141
153404
153657
153909
154153
154377
154614
154868
155122
155369
155599
155846
155995
156090
156266
156393
156517
156876
157096
157307
157525
157762
158015
158262
158498
158758
159014
159270
159510
159744
159989
160236
160478
160707
160967
161207
161451
161676
161907
162160
162420
162659
162894
163151
163418
163672
163913
164165
164433
164690
164924
165170
165427
165698
165951
166201
166458
166721
166985
167232
167468
167712
167962
168205
168432
168676
168936
169180
169412
169670
169915
170165
170388
170620
170866
171113
171363
171597
171840
172097
172353
172598
172842
173081
173332
173581
173806
174037
174271
174527
174775
175015
175233
175472
175706
175943
176182
176409
176651
176911
177159
177390
177643
177902
178153
178383
178628
178879
179139
179392
179631
179887
180150
180402
180642
180881
181142
181395
181631
181864
182099
182354
182599
182843
183094
183348
183603
183847
184081
184328
184574
184818
185046
185293
185549
185805
186048
186281
186529
186781
187032
187274
187499
187744
187999
188249
188478
188723
188988
189245
189483
189712
189955
190201
190438
190665
190893
191137
191390
191636
191888
192148
192413
192667
192910
193161
193429
193686
193923
194177
194431
194689
194934
195169
195409
195656
195909
196142
196372
196627
196866
197103
197350
197605
197864
198104
198345
198603
198858
199107
199347
199596
199851
200104
200350
200583
200823
201076
201311
201547
201799
202058
202299
202527
202773
203024
203280
203521
203762
204023
204278
204537
204783
205037
205300
205550
205791
206043
206297
206545
206782
207038
207297
207548
207785
208025
208269
208516
208746
208982
209230
209487
209749
210003
210241
210489
210751
211004
211252
211480
211709
211945
212177
212398
212646
212892
213157
213410
213657
213915
214177
214428
214672
214920
215179
215431
215668
215909
216157
216407
216645
216887
217130
217388
217633
217860
218097
218352
218604
218848
219087
219340
219596
219854
220097
220343
220594
220851
221092
221325
221568
221818
222065
222298
222542
222787
223046
223284
223518
223762
224014
224256
224488
224738
224993
225250
225497
225731
225971
226224
226474
226713
226960
227207
227464
227711
227944
228187
228437
228693
228934
229171
229322
229681
229911
230134
230362
230604
230846
231085
231344
231619
231899
232163
232432
232700
232954
233197
233456
233714
233969
234205
234454
234698
234931
235169
235409
235663
235910
236143
236381
236627
236888
237143
237384
237627
237885
238144
238380
238621
238876
239122
239366
239605
239858
240113
240360
240603
240850
241108
241346
241598
241853
242094
242330
242570
242822
243060
243298
243539
243786
244037
244275
244521
244768
245030
245278
245517
245757
246001
246247
246487
246724
246961
247206
247452
247695
247948
248212
248468
248707
248954
249208
249458
249694
249925
250167
250411
250647
250875
251120
251377
251634
251881
252137
252394
252649
252885
253125
253375
253622
253865
254101
254348
254603
254861
255104
255352
255595
255842
256084
256319
256557
256811
257053
257291
257544
257789
258045
258279
258529
258780
259036
259283
259523
259772
260016
260263
260494
260735
260983
261245
261493
261729
261973
262221
262473
262709
262946
263184
263432
263668
263907
264167
264423
264683
264927
265178
265426
265679
265924
266166
266417
266668
266924
267161
267396
267647
267906
268152
268389
268642
268910
269165
269409
269665
269917
270174
270410
270650
270895
271140
271373
271603
271839
272100
272361
272606
272857
273110
273371
273613
273858
274107
274363
274613
274858
275116
275367
275612
275858
276101
276347
276585
276810
277042
277286
277532
277768
277998
278247
278504
278758
278996
279253
279502
279753
279987
280226
280471
280717
280966
281214
281461
281708
281933
282170
282421
282665
282896
283142
283388
283641
283887
284123
284368
284612
284870
285110
285344
285586
285839
286082
286317
286566
286824
287070
287318
287569
287819
288062
288305
288551
288805
289065
289303
289533
289777
290024
290277
290520
290752
290987
291234
291483
291722
291963
292207
292458
292710
292959
293221
293501
293753
293991
294240
294522
294797
295069
295353
295629
295880
296112
296363
296604
296852
297087
297324
297568
297815
298050
298282
298520
298769
299003
299233
299466
299701
299943
300182
300419
300667
300911
301149
301379
301627
301875
302109
302334
302570
302810
303056
303295
303526
303763
304024
304275
304527
304763
305007
305258
305514
305748
305982
306228
306482
306750
307003
307254
307501
307764
308029
308287
308528
308765
309011
309261
309501
309750
310011
310265
310497
310737
310983
311225
311446
311676
311903
312137
312362
312588
312812
313041
313276
313496
313720
313944
314168
314396
314612
314835
315063
315293
315534
315761
316000
316230
316456
316686
316911
317135
317364
317610
317841
318070
318310
318548
318777
319006
319237
319470
319688
319904
320132
320355
320575
320796
321008
321223
321437
321643
321848
322053
322262
322475
322679
322892
323119
323347
323564
323773
323989
324210
324433
324655
324863
325085
325306
325536
325756
325973
326195
326418
326646
326858
327071
327289
327513
327736
327962
328186
328406
328641
328876
329096
329310
329527
329754
329974
330189
330392
330596
330800
331013
331221
331421
331627
331823
332014
332204
332388
332567
332752
332928
333102
333274
333446
333613
333784
333949
334124
334291
334458
334626
334790
334954
335114
335276
335434
335594
335757
335924
336115
336316
336513
336733
336992
337268
337519
337742
337981
338245
338498
338729
338957
339196
339455
339698
339926
340149
340400
340658
340905
341125
341358
341611
341856
342082
342315
342586
342841
343073
343303
343546
343806
344039
344265
344498
344744
344983
345202
345412
345629
345856
346098
346337
346559
346781
347006
347263
347522
347766
347994
348213
348443
348684
348919
349160
349400
349626
349849
350078
350310
350562
350806
351026
351246
351472
351712
351962
352195
352408
352634
352865
353105
353341
353559
353787
354015
354254
354489
354711
354944
355188
355436
355683
355906
356126
356331
356531
356731
356940
357154
357366
357604
357860
358127
358361
358575
358803
359018
359256
359474
359680
359887
360099
360320
360554
360774
360989
361196
361414
361618
361817
362003
362190
362375
362556
362732
362913
363129
363453
363711
363949
364211
364476
364745
364995
365227
365474
365722
365972
366207
366439
366676
366917
367151
367378
367614
367854
368093
368331
368557
368790
369038
369286
369536
369768
370003
370245
370493
370732
370963
371181
371409
371639
371869
372098
372317
372534
372744
372967
373192
373417
373632
373858
374087
374323
374556
374773
374995
375226
375457
375693
375921
376137
376358
376587
376827
377079
377322
377550
377773
377994
378210
378426
378647
378871
379095
379315
379549
379791
380023
380247
380490
380731
380977
381207
381418
381642
381869
382091
382307
382519
382736
382957
383179
383397
383614
383824
384040
384268
384488
384704
384932
385165
385401
385627
385841
386064
386277
386497
386716
386922
387134
387350
387573
387796
388014
388223
388437
388656
388877
389097
389306
389518
389724
389944
390166
390386
390601
390821
391039
391270
391494
391717
391936
392164
392394
392615
392832
393061
393308
393563
393810
394035
394252
394472
394710
394944
395172
395386
395599
395821
396052
396295
396547
396790
397037
397260
397475
397693
397910
398148
398393
398629
398859
399090
399325
399554
399774
399987
400207
400430
400661
400895
401119
401333
401546
401764
401988
402211
402428
402643
402856
403051
403247
403446
403644
403853
404068
404272
404472
404678
404882
405106
405330
405549
405770
406000
406228
406442
406656
406878
407106
407335
407549
407769
407989
408219
408431
408639
408854
409083
409326
409553
409768
409981
410199
410425
410646
410859
411074
411297
411529
411757
411975
412184
412402
412626
412849
413065
413272
413483
413707
413938
414164
414378
414595
414831
415067
415294
415525
415774
416042
416281
416504
416735
416970
417208
417430
417645
417868
418104
418337
418568
418787
419013
419249
419498
419741
419966
420179
420405
420637
420870
421089
421309
421513
421732
421949
422180
422398
422615
422841
423078
423320
423563
423800
424046
424275
424496
424728
424973
425207
425433
425655
425884
426125
426358
426577
426800
427039
427273
427495
427706
427931
428172
428413
428629
428863
429103
429337
429556
429789
430033
430268
430493
430704
430920
431153
431374
431587
431803
432021
432246
432468
432674
432895
433136
433366
433600
433829
434060
434297
434524
434746
434973
435200
435429
435643
435864
436079
436305
436520
436726
436936
437142
437358
437575
437784
438008
438264
438514
438773
439008
439236
439464
439691
439917
440127
440340
440546
440758
440977
441184
441388
441589
441788
441992
442198
442397
442591
442787
442987
443220
443449
443668
443911
444166
444411
444639
444876
445111
445343
445579
445801
446022
446245
446467
446687
446906
447129
447359
447588
447802
448022
448240
448464
448686
448901
449121
449343
449574
449794
450007
450234
450456
450692
450912
451128
451358
451594
451834
452077
452305
452529
452749
452972
453193
453417
453635
453844
454057
454276
454507
454736
454968
455194
455424
455648
455864
456082
456301
456535
456774
457012
457247
457463
457689
457918
458145
458373
458595
458813
459032
459258
459495
459739
459960
460179
460412
460644
460867
461085
461303
461526
461756
461993
462211
462432
462657
462889
463123
463341
463557
463784
464017
464247
464462
464679
464902
465129
465356
465570
465790
466009
466232
466465
466682
466893
467109
467328
467549
467765
467982
468212
468455
468701
468937
469158
469389
469625
469860
470079
470299
470528
470757
470997
471221
471440
471677
471919
472170
472396
472620
472854
473094
473337
473561
473779
474006
474243
474487
474718
474934
475168
475401
475642
475867
476087
476313
476548
476792
477028
477250
477489
477729
477978
478211
478431
478659
478892
479134
479364
479584
479801
480024
480261
480508
480741
480965
481201
481450
481700
481937
482172
482404
482642
482882
483110
483327
483557
483785
484019
484255
484487
484709
484946
485182
485428
485662
485885
486122
486358
486603
486847
487086
487312
487553
487786
488028
488270
488512
488742
488959
489191
489422
489662
489905
490144
490367
490602
490827
491041
491248
491450
491639
491831
492015
492195
492384
492567
492754
492941
493135
493415
493678
493943
494201
494458
494722
494986
495239
495475
495699
495938
496175
496415
496646
496863
497097
497337
497577
497819
498037
498276
498507
498752
498983
499205
499441
499690
499945
500187
500418
500652
500897
501144
501388
501623
501849
502084
502325
502560
502792
503032
503280
503529
503773
504016
504263
504523
504765
504993
505237
505488
505723
505946
506189
506438
506687
506923
507145
507386
507621
507858
508087
508297
508521
508752
508992
509231
509460
509711
509984
510261
510514
510758
511006
511256
511509
511740
511967
512201
512431
512658
512876
513106
513339
513574
513801
514033
514291
514556
514802
515048
515308
515580
515824
516071
516321
516569
516802
517040
517284
517514
517751
517996
518258
518521
518779
519033
519284
519528
519760
519988
520220
520463
520704
520940
521167
521384
521606
521831
522056
522290
522513
522752
523003
523253
523494
523722
523966
524204
524443
524674
524898
