peaks
75006
75189
75374
75564
75758
75948
76138
76326
76522
76713
76905
77083
77274
77462
77655
77842
78030
78213
78403
78587
78765
78947
79041
79125
79199
79283
79383
79465
79695
79879
80061
80242
80419
80604
80783
80965
81054
81331
81512
81690
81871
82049
82228
82412
82593
82772
82954
83139
83326
83514
83698
83890
84080
84270
84459
84646
84835
85017
85207
85389
85577
85762
85947
86132
86321
86511
86696
86883
87068
87255
87443
87549
87823
88013
88195
88381
88561
88748
88932
89113
89300
89486
89668
89848
90033
90219
90405
90592
90772
90957
91142
91326
91509
91693
91879
92059
92245
92429
92613
92798
92985
93076
93351
93536
93716
93897
94077
94254
94432
94616
94799
94978
95159
95340
95524
95613
95696
95784
95869
96085
96271
96450
96632
96820
97005
97191
97377
97567
97758
97949
98142
98335
98526
98720
98909
99099
99291
99481
99672
99863
100054
100239
100429
100623
100806
100994
101181
101366
101551
101741
101923
102116
102299
102488
102676
102863
103051
103234
103418
103602
103784
103971
104151
104335
104514
104695
104876
105055
105235
105413
105594
105773
105956
106138
106324
106506
106690
106877
107064
107250
107438
107624
107813
108000
108185
108370
108559
108746
108932
109117
109300
109487
109675
109857
110044
110231
110419
110604
110789
110978
111164
111351
111537
111725
111913
112098
112284
112475
112659
112845
113029
113216
113401
113587
113772
113957
114145
114331
114513
114697
114884
115068
115250
115434
115620
115803
115984
116169
116355
116538
116720
116907
116994
117273
117461
117645
117827
118002
118186
118369
118551
118729
118910
119086
119264
119445
119626
119803
119980
120159
120343
120528
120711
120888
121071
121251
121432
121611
121704
121978
122159
122337
122520
122702
122884
123065
123244
123430
123612
123795
123977
124156
124341
124523
124707
124891
125071
125253
125435
125617
125801
125978
126162
126345
126530
126708
126895
127076
127250
127435
127525
127796
127976
128155
128328
128511
128690
128866
129042
129220
129400
129578
129666
129930
130104
130284
130462
130638
130813
130988
131167
131344
131521
131695
131784
131866
131948
132030
132141
132217
132418
132603
132780
132957
133134
133313
133489
133665
133843
133932
134012
134088
134205
134376
134552
134727
134906
135086
135264
135441
135618
135796
135975
136153
136332
136420
136501
136575
136703
136878
137049
137225
137401
137583
137675
137752
137834
137918
138125
138304
138483
138660
138839
139011
139190
139369
139550
139723
139904
140086
140269
140450
140633
140814
140992
141179
141364
141542
141730
141914
142101
142283
142468
142650
142839
143024
143204
143388
143575
143755
143944
144132
144320
144508
144698
144881
145074
145262
145450
145635
145818
146001
146184
146374
146558
146745
146928
147109
147294
147473
147661
147763
148029
148221
148403
148586
148769
148950
149132
149311
149498
149675
149859
150041
150227
150414
150599
150784
150968
151146
151336
151520
151624
151884
152077
152258
152436
152615
152800
152984
153167
153269
153536
153726
153908
154088
154262
154443
154622
154807
154985
155166
155343
155527
155712
155894
156074
156255
156438
156540
156804
156986
157163
157339
157522
157624
157884
158075
158256
158438
158628
158816
159004
159185
159378
159562
159750
159940
160129
160312
160495
160681
160864
161048
161236
161421
161602
161787
161974
162151
162337
162523
162709
162894
163075
163267
163451
163636
163823
164007
164191
164371
164554
164731
164914
165099
165276
165462
165646
165832
166017
166201
166388
166568
166758
166946
167131
167314
167498
167681
167861
168039
168139
168406
168597
168777
168959
169140
169321
169499
169676
169864
170045
170226
170407
170590
170772
170954
171136
171314
171502
171686
171864
172048
172234
172418
172598
172783
172964
173144
173328
173509
173695
173789
173870
174072
174251
174433
174611
174794
174978
175162
175346
175532
175717
175903
176085
176268
176448
176637
176822
177003
177191
177375
177554
177736
177921
178105
178290
178472
178656
178838
179017
179199
179379
179569
179751
179929
180115
180297
180483
180670
180855
181040
181223
181413
181602
181791
181977
182164
182350
182536
182721
182909
183094
183276
183461
183640
183829
184017
184203
184390
184480
184763
184945
185128
185311
185492
185672
185849
186028
186208
186386
186567
186741
186919
187100
187281
187462
187643
187826
188003
188182
188365
188546
188728
188907
189086
189264
189438
189538
189796
189977
190151
190329
190503
190678
190850
191027
191128
191386
191566
191745
191918
192090
192267
192448
192624
192795
192974
193151
193333
193505
193682
193858
194032
194135
194388
194561
194740
194912
195087
195259
195429
195603
195703
195947
196125
196298
196471
196649
196821
196998
197173
197351
197528
197704
197884
198065
198247
198431
198524
198814
199004
199189
199373
199557
199740
199919
200099
200280
200461
200643
200820
201002
201183
201366
201547
201727
201905
202086
202266
202446
202626
202807
202988
203166
203345
203525
203700
203881
203973
204243
204426
204603
204786
204969
205152
205333
205512
205697
205879
206060
206243
206423
206601
206784
206964
207145
207326
207508
207687
207867
208041
208222
208404
208584
208767
208946
209130
209314
209499
209682
209868
210047
210235
210422
210606
210790
210975
211156
211337
211520
211699
211875
212057
212239
212422
212601
212782
212963
213143
213327
213507
213689
213871
214047
214224
214405
214587
214767
214947
215128
215307
215492
215678
215862
216043
216220
216402
216588
216774
216957
217140
217326
217510
217695
217883
218066
218246
218433
218618
218805
218986
219171
219356
219543
219726
219917
220099
220283
220462
220650
220831
221016
221196
221378
221555
221742
221926
222107
222291
222474
222658
222836
223023
223206
223389
223569
223755
223941
224126
224309
224494
224679
224866
225048
225230
225335
225604
225791
225972
226152
226333
226509
226696
226880
227062
227242
227431
227615
227800
227984
228168
228353
228538
228723
228905
229011
229273
229452
229636
229819
230000
230180
230361
230541
230723
230901
231087
231268
231450
231628
231812
231992
232167
232347
232529
232709
232886
233066
233243
233421
233603
233698
233968
234153
234331
234516
234700
234881
235064
235241
235425
235608
235792
235976
236153
236340
236526
236702
236887
237070
237249
237435
237620
237805
237990
238094
238364
238547
238735
238920
239103
239285
239463
239650
239833
240010
240201
240385
240573
240756
240940
241121
241308
241494
241678
241862
242043
242226
242413
242599
242783
242964
243153
243340
243525
243711
243897
244083
244269
244449
244636
244822
245008
245192
245378
245557
245743
245926
246114
246298
246485
246668
246849
247030
247213
247304
247585
247773
247952
248134
248313
248499
248681
248864
249046
249229
249418
249606
249794
249985
250173
250360
250550
250735
250922
251107
251290
251478
251660
251843
252026
252211
252395
252576
252755
252940
253124
253303
253490
253577
253859
254048
254230
254414
254597
254780
254959
255143
255327
255510
255695
255876
256060
256243
256428
256612
256794
256978
257166
257354
257541
257728
257912
258097
258283
258467
258649
258741
259020
259206
259382
259568
259753
259937
260121
260301
260479
260662
260848
261030
261214
261397
261578
261759
261848
262125
262308
262490
262668
262849
263030
263207
263389
263570
263754
263936
264118
264300
264487
264667
264856
265044
265230
265420
265605
265792
265982
266165
266349
266536
266724
266907
267088
267275
267460
267647
267827
268012
268197
268380
268560
268652
268932
269117
269306
269494
269677
269859
270038
270227
270411
270593
270778
270957
271144
271327
271506
271694
271881
272066
272256
272441
272629
272813
273001
273184
273368
273562
273751
273938
274126
274313
274501
274690
274879
275065
275253
275440
275630
275815
275999
276092
276376
276567
276752
276936
277123
277309
277496
277684
277868
278056
278243
278427
278613
278802
278991
279177
279371
279560
279748
279931
280117
280301
280483
280575
280850
281033
281207
281389
281572
281752
281932
282107
282200
282475
282661
282843
283025
283209
283391
283571
283757
283936
284123
284308
284493
284678
284864
285044
285227
285321
285602
285792
285974
286158
286344
286528
286712
286895
287081
287267
287454
287643
287824
288012
288198
288388
288577
288761
288854
289137
289325
289510
289697
289877
290061
290241
290426
290522
290799
290985
291167
291345
291530
291715
291899
292081
292265
292449
292633
292818
292996
293187
293371
293557
293651
293936
294120
294309
294496
294685
294871
295058
295245
295433
295617
295810
296000
296188
296375
296563
296754
296935
297123
297220
297500
297692
297879
298066
298248
298436
298622
298804
298991
299177
299359
299549
299736
299924
300109
300297
300484
300671
300857
301043
301232
301419
301606
301791
301974
302164
302258
302550
302741
302928
303115
303302
303492
303682
303871
304061
304248
304443
304631
304821
305011
305199
305385
305575
305765
305955
306145
306335
306525
306711
306893
307081
307268
307454
307640
307820
308010
308107
308385
308573
308758
308943
309129
309315
309501
309688
309874
310057
310247
310436
310623
310804
310994
311184
311371
311560
311653
311940
312132
312320
312499
312688
312877
313060
313244
313432
313617
313711
313993
314187
314375
314563
314749
314932
315124
315314
315503
315694
315880
316069
316258
316442
316637
316827
317016
317204
317388
317579
317672
317964
318153
318340
318533
318720
318907
319095
319284
319474
319665
319853
320037
320224
320417
320609
320800
320990
321171
321360
321456
321742
321933
322120
322305
322492
322680
322865
323048
323234
323418
323600
323786
323972
324152
324338
324520
324699
324889
325076
325263
325447
325637
325820
326002
326189
326282
326565
326752
326936
327118
327299
327485
327670
327854
328035
328218
328315
328596
328787
328976
329165
329352
329541
329725
329914
330107
330296
330486
330675
330865
331052
331239
331426
331519
331804
331989
332165
332350
332534
332716
332899
333081
333173
333451
333640
333821
334006
334190
334376
334556
334743
334837
335121
335309
335494
335687
335875
336064
336254
336445
336636
336824
337012
337201
337390
337571
337757
337944
338130
338319
338501
338685
338780
339058
339250
339439
339624
339804
339990
340177
340361
340545
340728
340909
341094
341280
341467
341562
341845
342033
342218
342403
342584
342772
342959
343143
343330
343517
343704
343892
344072
344261
344356
344640
344831
345015
345197
345387
345571
345759
345947
346132
346318
346509
346695
346880
347068
347162
347454
347648
347840
348027
348216
348404
348587
348780
348874
349161
349354
349543
349731
349920
350103
350293
350485
350673
350861
351050
351233
351424
351615
351800
351990
352178
352368
352559
352752
352934
353126
353318
353503
353697
353886
354075
354261
354458
354652
354845
355038
355228
355419
355610
355705
355992
356182
356369
356552
356743
356927
357115
357306
357491
357586
357873
358063
358251
358435
358618
358802
358987
359170
359260
359547
359739
359927
360115
360302
360483
360674
360863
361051
361240
361426
361612
361798
361982
362165
362258
362538
362724
362907
363092
363281
363469
363659
363849
364034
364129
364413
364606
364795
364981
365165
365351
365532
365726
365819
366102
366291
366478
366657
366849
367035
367222
367410
367597
367692
367978
368168
368356
368540
368727
368914
369102
369289
369478
369667
369851
370046
370239
370430
370624
370810
370903
371194
371386
371576
371757
371945
372136
372322
372509
372693
372790
373073
373260
373448
373627
373812
373999
374182
374279
374558
374746
374932
375120
375305
375488
375672
375770
376047
376235
376421
376603
376790
376976
377158
377255
377537
377723
377909
378091
378272
378456
378642
378739
379020
379209
379396
379583
379766
379953
380140
380328
380516
380612
380898
381089
381279
381468
381659
381845
382033
382230
382413
382607
382707
382991
383181
383367
383557
383742
383926
384120
384220
384499
384685
384866
385052
385238
385423
385524
385800
385986
386170
386354
386544
386730
386916
387014
387297
387489
387677
387865
388055
388241
388430
388616
388804
388994
389182
389281
389568
389760
389950
390134
390326
390516
390707
390897
391088
391279
391473
391661
391850
391953
392238
392432
392624
392816
393005
393199
393392
393581
393768
393962
394154
394345
394451
394734
394922
395117
395308
395497
395685
395871
395968
396256
396448
396634
396822
397010
397197
397296
397577
397769
397955
398142
398326
398509
398608
398885
399077
399263
399448
399636
399824
400009
400110
400403
400593
400781
400962
401148
401334
401431
401710
401901
402086
402265
402451
402639
402827
403010
403195
403378
403482
403753
403941
404126
404306
404494
404681
404869
405051
405238
405427
405616
405712
405992
406183
406370
406557
406741
406928
407025
407308
407497
407683
407868
408055
408239
408336
408456
408625
408803
408986
409166
409352
409533
409633
409720
409879
410089
410196
410466
410657
410837
411021
411207
411394
411496
411773
411956
412145
412333
412515
412705
412803
412919
413089
413276
413462
413647
413840
414028
414215
414403
414501
414783
414969
415152
415340
415528
415714
415895
415997
416276
416469
416655
416844
417032
417219
417413
417513
417623
417801
417988
418178
418368
418556
418744
418930
419028
419322
419441
419711
419899
420085
420269
420454
420637
420827
421013
421201
421390
421580
421764
421958
422058
422345
422465
422730
422925
423114
423302
423491
423684
423872
424064
424256
424450
424643
424838
425030
425221
425414
425607
425799
425993
426185
426376
426475
426769
426898
427153
427346
427535
427726
427911
428100
428287
428470
428659
428850
429037
429135
429418
429610
429798
429985
430174
430359
430546
430738
430925
431111
431301
431483
431582
431867
432056
432241
432432
432616
432805
432995
433183
433370
433555
433744
433933
434118
434216
434498
434689
434879
435064
435250
435438
435620
435719
436005
436196
436387
436571
436760
436949
437138
437329
437523
437718
437909
438107
438208
438501
438702
438893
439087
439279
439471
439663
439852
440049
440241
440435
440628
440820
441012
441206
441394
441588
441776
441876
442170
442362
442552
442742
442930
443118
443311
443499
443687
443878
444067
444258
444449
444641
444829
445023
445216
445403
445596
445788
445973
446071
446359
446551
446741
446929
447117
447307
447491
447678
447866
448049
448234
448424
448611
448794
448986
449085
449365
449550
449737
449918
450106
450295
450481
450670
450854
451041
451137
451414
451600
451783
451967
452156
452342
452523
452709
452894
453078
453269
453456
453554
453838
454024
454211
454397
454586
454775
454962
455152
455341
455531
455632
455913
456105
456291
456478
456669
456853
457043
457141
457425
457613
457809
458002
458193
458385
458577
458765
458955
459151
459344
459536
459729
459827
460114
460306
460496
460684
460874
461064
461254
461438
461625
461816
462008
462194
462295
462581
462776
462969
463159
463349
463542
463732
463924
464111
464300
464493
464683
464870
465056
465154
465447
465567
465839
466032
466223
466414
466608
466799
466990
467183
467378
467575
467769
467960
468160
468361
468555
468752
468949
469142
469341
469539
469737
469933
470126
470321
470520
470717
470914
471109
471305
471500
471689
471882
472076
472266
472458
472641
472742
473026
473219
473407
473595
473784
473974
474165
474361
474558
474755
474951
475151
475347
475545
475742
475934
476133
476332
476528
476724
476919
477113
477306
477500
477690
477881
478067
478262
478359
478646
478837
479019
479212
479402
479590
479777
479967
480066
480347
480538
480728
480911
481103
481294
481487
481677
481866
482053
482243
482434
482535
482820
483016
483204
483397
483583
483770
483959
484057
484345
484536
484724
484914
485109
485299
485489
485682
485780
486072
486269
486460
486655
486849
487044
487244
487441
487636
487831
488025
488225
488421
488610
488810
489002
489191
489384
489578
489768
489953
490148
490336
490519
490620
490904
491098
491287
491479
491663
491856
492047
492239
492431
492622
492814
493003
493192
493389
493585
493778
493882
494168
494362
494554
494745
494932
495123
495311
495502
495692
495884
496072
496264
496360
496656
496852
497050
497241
497433
497625
497813
497999
498187
498376
498561
498662
498942
499132
499321
499511
499701
499886
500078
500262
500450
500640
500829
501017
501116
501409
501605
501791
501979
502165
502353
502538
502726
502912
503102
503292
503484
503584
503869
504061
504252
504445
504632
504825
505015
505198
505387
505578
505768
505958
506146
506243
506532
506731
506919
507109
507298
507489
507680
507870
508060
508251
508434
508626
508820
509012
509206
509309
509596
509797
509991
510185
510374
510564
510749
510942
511129
511320
511503
511693
511885
512076
512268
512365
512653
512773
513045
513237
513426
513612
513795
513985
514174
514364
514555
514748
514940
515131
515328
515518
515712
515904
516096
516196
516479
516673
516864
517053
517242
517426
517618
517808
517996
518095
518379
518566
518755
518948
519134
519323
519511
519700
519799
519893
519974
520275
520466
520652
520836
521022
521208
521394
521494
521785
521974
522153
522338
522525
522705
522887
523070
523254
523434
523617
523800
523984
524083
524360
524546
524732
524917
