peaks
75146
75316
75489
75659
75829
76001
76177
76349
76525
76703
76880
77063
77244
77425
77610
77790
77972
78161
78346
78532
78718
78903
79087
79271
79456
79641
79823
80008
80186
80364
80546
80722
80899
81079
81256
81426
81598
81768
81938
82104
82272
82441
82613
82786
82961
83134
83307
83481
83654
83826
83998
84169
84336
84501
84670
84839
85009
85182
85356
85536
85719
85906
86088
86273
86458
86645
86837
87026
87211
87398
87585
87765
87944
88120
88295
88470
88650
88833
89030
89226
89418
89608
89796
89988
90179
90369
90556
90742
90923
91105
91278
91452
91626
91800
91909
92147
92323
92490
92663
92832
93001
93173
93349
93527
93712
93927
94134
94333
94539
94735
94927
95114
95299
95476
95655
95834
96016
96197
96373
96555
96746
96937
97127
97324
97520
97721
97927
98132
98339
98540
98741
98937
99133
99327
99515
99714
99917
100118
100322
100528
100737
100943
101150
101363
101578
101792
102014
102231
102444
102658
102867
103075
103275
103472
103668
103858
104054
104254
104454
104667
104880
105095
105311
105532
105756
105974
106194
106411
106626
106843
107062
107281
107496
107719
107943
108162
108382
108603
108818
109026
109226
109428
109628
109820
110021
110223
110427
110642
110864
111083
111299
111521
111746
111966
112188
112414
112635
112858
113073
113285
113496
113701
113897
114097
114301
114506
114719
114936
115151
115368
115577
115786
115990
116192
116393
116586
116773
116968
117159
117356
117558
117762
117965
118178
118388
118594
118807
119019
119232
119436
119644
119847
120048
120248
120447
120643
120839
121033
121229
121434
121646
121856
122070
122277
122488
122711
122923
123078
123357
123562
123768
123979
124183
124388
124593
124800
125006
125224
125459
125693
125937
126184
126434
126669
126906
127148
127386
127610
127825
128034
128239
128488
128710
128924
129132
129344
129566
129786
130019
130261
130505
130748
130984
131217
131452
131681
131913
132150
132377
132612
132845
133069
133288
133505
133729
133941
134145
134361
134576
134799
135015
135229
135447
135668
135894
136111
136323
136538
136749
136957
137161
137364
137575
137782
137978
138172
138369
138565
138767
138976
139184
139405
139629
139839
140055
140269
140487
140712
140926
141138
141346
141557
141767
141973
142185
142403
142607
142805
143017
143228
143446
143654
143866
144069
144271
144469
144669
144866
145068
145260
145453
145642
145840
146035
146234
146429
146622
146818
147015
147213
147409
147610
147810
148008
148205
148403
148599
148794
148985
149176
149360
149553
149750
149951
150151
150352
150555
150756
150962
151167
151372
151573
151772
151970
152163
152357
152550
152748
152949
153154
153362
153573
153784
153999
154193
154394
154592
154783
154975
155166
155362
155557
155762
155964
156176
156387
156600
156823
157042
157263
157480
157699
157924
158140
158359
158592
158816
159047
159279
159508
159735
159951
160172
160388
160603
160815
161022
161230
161435
161632
161828
162030
162233
162436
162646
162857
163075
163294
163514
163729
163944
164163
164377
164586
164797
165012
165216
165424
165626
165829
166027
166223
166423
166626
166833
167040
167251
167460
167670
167879
168086
168288
168490
168690
168889
169081
169283
169485
169695
169909
170128
170345
170555
170765
170980
171198
171420
171635
171856
172070
172284
172497
172710
172928
173145
173366
173587
173813
174031
174246
174454
174666
174873
175081
175287
175488
175691
175888
176086
176278
176468
176663
176854
177041
177230
177423
177617
177811
178008
178202
178394
178585
178773
178959
179156
179354
179556
179767
179982
180194
180420
180652
180885
181111
181336
181562
181783
182003
182218
182429
182646
182865
183082
183308
183532
183757
183985
184204
184426
184645
184862
185068
185268
185462
185655
185851
186055
186267
186478
186687
186900
187113
187335
187547
187759
187962
188162
188357
188549
188741
188937
189137
189331
189525
189726
189929
190138
190340
190542
190748
190951
191147
191342
191538
191731
191929
192127
192334
192546
192755
192964
193182
193399
193620
193838
194055
194276
194496
194716
194925
195126
195331
195531
195755
195970
196183
196385
196592
196795
196994
197189
197378
197569
197763
197963
198179
198384
198584
198791
198996
199201
199410
199620
199822
200020
200222
200426
200634
200843
201060
201283
201506
201723
201941
202167
202400
202625
202852
203083
203304
203538
203771
203998
204230
204460
204686
204910
205132
205346
205552
205755
205951
206156
206370
206587
206803
207039
207284
207542
207790
208024
208263
208512
208750
208986
209217
209454
209697
209928
210159
210387
210609
210823
211041
211261
211481
211702
211931
212164
212395
212622
212850
213075
213299
213519
213751
213985
214209
214443
214689
214933
215162
215389
215621
215844
216068
216287
216499
216713
216929
217145
217358
217568
217773
217978
218178
218379
218581
218779
218972
219166
219358
219565
219777
219999
220235
220463
220691
220930
221167
221402
221624
221850
222076
222301
222533
222767
223010
223249
223478
223708
223935
224155
224372
224581
224788
224988
225187
225384
225582
225787
225992
226197
226396
226602
226800
227001
227202
227396
227597
227804
228006
228211
228419
228636
228857
229073
229292
229513
229725
229938
230145
230350
230556
230755
230958
231175
231386
231608
231841
232074
232308
232534
232751
232974
233190
233405
233618
233827
234035
234234
234438
234640
234850
235063
235280
235491
235701
235914
236126
236333
236535
236732
236939
237147
237364
237587
237808
238041
238274
238501
238734
238973
239212
239442
239673
239892
240109
240320
240521
240714
240903
241094
241285
241481
241681
241878
242076
242276
242470
242666
242857
243045
243230
243420
243614
243807
244004
244194
244388
244582
244774
244972
245167
245360
245553
245749
245946
246152
246361
246574
246791
247005
247218
247433
247644
247852
248056
248265
248485
248690
248856
249174
249385
249605
249816
250026
250237
250446
250651
250868
251088
251310
251530
251749
251975
252202
252426
252648
252871
253097
253318
253540
253757
253966
254173
254374
254569
254776
254981
255189
255396
255596
255786
255981
256171
256358
256545
256725
256902
257079
257255
257429
257602
257771
257936
258101
258266
258429
258588
258750
258908
259078
259248
259421
259596
259777
259955
260143
260330
260530
260730
260925
261121
261316
261508
261704
261902
262092
262280
262465
262648
262831
263013
263193
263369
263546
263719
263895
264069
264245
264415
264589
264759
264929
265102
265276
265449
265627
265807
265985
266162
266335
266518
266692
266867
267043
267215
267385
267557
267726
267897
268074
268247
268419
268591
268762
268931
269100
269268
269436
269606
269776
269952
270129
270312
270500
270680
270866
271049
271229
271407
271587
271764
271941
272125
272310
272495
272682
272867
273054
273240
273427
273610
273797
273982
274168
274355
274548
274743
274945
275145
275343
275533
275719
275905
276093
276284
276473
276663
276852
277041
277234
277427
277615
277808
278000
278181
278363
278541
278720
278898
279078
279248
279420
279596
279769
279941
280114
280286
280458
280628
280797
280965
281133
281308
281486
281673
281866
282058
282250
282445
282636
282827
283016
283204
283385
283564
283742
283919
284100
284285
284470
284659
284852
285045
285243
285438
285629
285823
286012
286198
286377
286559
286743
286933
287126
287319
287513
287709
287906
288103
288298
288493
288682
288872
289056
289240
289419
289598
289775
289954
290134
290245
290504
290689
290880
291068
291261
291452
291644
291840
292034
292229
292422
292611
292800
292989
293172
293351
293529
293709
293889
294078
294266
294450
294640
294831
295020
295212
295401
295584
295769
295952
296135
296322
296513
296705
296900
297092
297283
297475
297667
297858
298048
298236
298420
298603
298785
298965
299145
299323
299499
299676
299859
299970
300238
300425
300591
300808
300997
301185
301369
301558
301747
301934
302121
302302
302481
302666
302853
303037
303224
303412
303598
303785
303972
304158
304344
304529
304716
304902
305088
305270
305452
305633
305824
306015
306206
306398
306591
306787
306983
307177
307372
307560
307746
307929
308112
308293
308475
308657
308837
309017
309195
309370
309548
309728
309911
310095
310282
310468
310652
310840
311028
311217
311408
311592
311776
311959
312138
312319
312504
312690
312881
313072
313268
313458
313649
313841
314030
314221
314405
314591
314776
314956
315135
315313
315489
315664
315838
316015
316198
316390
316590
316781
316974
317162
317349
317530
317708
317886
318062
318236
318409
318576
318739
318846
319066
319227
319385
319545
319703
319858
320017
320176
320338
320509
320688
320875
321069
321268
321468
321665
321863
322057
322258
322455
322651
322845
323034
323219
323403
323586
323763
323941
324122
324300
324481
324663
324850
325033
325222
325403
325589
325777
325969
326157
326353
326542
326731
326919
327104
327287
327471
327659
327849
328038
328225
328407
328594
328782
328966
329149
329328
329504
329683
329859
330037
330214
330393
330573
330754
330939
331119
331299
331479
331658
331839
332015
332196
332374
332555
332740
332925
333116
333306
333492
333683
333876
334069
334266
334461
334655
334845
335038
335229
335421
335618
335810
336004
336202
336397
336594
336793
336994
337197
337394
337591
337791
337991
338188
338385
338581
338774
338970
339163
339350
339536
339723
339907
340088
340272
340454
340639
340826
341012
341196
341390
341559
341739
341916
342090
342264
342436
342608
342778
342945
343112
343277
343442
343610
343782
343958
344136
344317
344502
344693
344889
345086
345276
345467
345657
345851
346040
346227
346415
346599
346779
346967
347157
347348
347542
347742
347941
348134
348326
348517
348709
348899
349091
349280
349468
349655
349837
350021
350202
350382
350563
350749
350934
351124
351312
351395
351477
351549
351630
351717
351802
351891
351973
352059
352251
352421
352587
352753
352921
353086
353257
353364
353618
353796
353990
354178
354366
354556
354749
354941
355131
355317
355504
355690
355877
356058
356234
356408
356581
356755
356934
357121
357309
357496
357688
357878
358076
358275
358470
358664
358856
359039
359227
359410
359590
359770
359949
360128
360317
360509
360709
360909
361114
361311
361514
361710
361903
362095
362287
362482
362680
362870
363056
363244
363431
363614
363809
364000
364187
364368
364548
364729
364912
365096
365275
365453
365630
365808
365988
366169
366350
366531
366719
366902
367080
367258
367437
367616
367796
367978
368154
368259
368503
368676
368844
369015
369183
369351
369517
369684
369853
370021
370132
370372
370546
370732
370913
371094
371274
371379
371649
371835
372028
372215
372400
372589
372773
372959
373145
373330
373520
373707
373900
374089
374277
374459
374639
374826
375020
375212
375413
375610
375803
376000
376196
376392
376588
376778
376970
377161
377352
377537
377726
377914
378104
378295
378483
378673
378860
379044
379224
379403
379586
379769
379959
380144
380329
380432
380678
380887
381077
381262
381443
381625
381807
381985
382161
382269
382519
382698
382877
383054
383158
383400
383573
383678
383923
384099
384274
384450
384624
384732
384974
385148
385327
385505
385614
385865
386044
386151
386403
386582
386685
386935
387110
387215
387451
387624
387733
387974
388153
388328
388501
388605
388846
389025
389209
389391
389572
389760
389951
390141
390337
390531
390722
390915
391103
391290
391476
391663
391847
392025
392208
392382
392559
392746
392938
393125
393320
393522
393722
393920
394117
394315
394511
394708
394906
395106
395304
395502
395699
395891
396085
396281
396474
396667
396854
397046
397240
397434
397626
397822
398017
398214
398412
398610
398805
399001
399190
399377
399564
399749
399931
400116
400299
400488
400673
400858
401039
401221
401404
401585
401767
401945
402050
402290
402465
402637
402808
402982
403151
403322
403426
403677
403855
404039
404226
404409
404589
404770
404954
405136
405325
405512
405695
405802
406064
406246
406431
406614
406804
406990
407180
407368
407562
407761
407963
408167
408371
408571
408772
408969
409164
409358
409551
409741
409930
410110
410289
410468
410643
410748
411004
411186
411291
411549
411731
411912
412094
412280
412473
412667
412856
413053
413252
413452
413657
413860
414058
414256
414449
414640
414830
415014
415198
415378
415558
415740
415927
416121
416322
416522
416722
416921
417117
417312
417505
417698
417889
418077
418260
418444
418629
418824
419021
419229
419431
419632
419838
420043
420245
420449
420650
420850
421051
421246
421439
421631
421820
422007
422189
422368
422544
422721
422828
423084
423268
423459
423646
423834
424026
424214
424408
424602
424792
424983
425173
425361
425547
425734
425916
426101
426280
426455
426633
426816
427002
427192
427381
427573
427769
427959
428162
428357
428546
428734
428918
429099
429275
429451
429631
429815
430001
430191
430388
430580
430780
430977
431176
431370
431561
431749
431936
432117
432295
432473
432650
432755
433006
433189
433293
433559
433744
433937
434125
434309
434494
434681
434874
435067
435260
435452
435638
435825
436007
436185
436362
436537
436715
436891
437074
437255
437443
437634
437827
438020
438214
438406
438592
438783
438970
439155
439341
439519
439704
439884
440064
440240
440422
440613
440806
440999
441196
441390
441588
441784
441980
442176
442368
442555
442744
442928
443109
443289
443469
443574
443823
444001
444110
444343
444514
444677
444862
445042
445226
445422
445624
445826
446026
446234
446436
446632
446826
447017
447206
447393
447585
447767
447948
448132
448312
448492
448672
448852
449024
449133
449371
449542
449715
449889
450068
450248
450428
450611
450793
450984
451173
451362
451550
451734
451920
452104
452283
452460
452569
452823
453002
453178
453349
453457
453688
453861
454029
454200
454377
454559
454744
454933
455127
455321
455517
455713
455900
456085
456267
456445
456549
456805
456984
457090
457345
457524
457630
457887
458068
458174
458430
458607
458788
458972
459156
459338
459523
459703
459884
460061
460168
460413
460589
460697
460936
461108
461278
461448
461613
461782
461950
462118
462283
462451
462622
462790
462902
463146
463327
463432
463700
463880
464060
464161
464415
464590
464700
464946
465123
465301
465477
465582
465849
466034
466141
466428
466618
466811
467003
467193
467384
467577
467776
467978
468182
468388
468589
468787
468984
469177
469366
469557
469745
469930
470115
470298
470482
470664
470846
470950
471215
471399
471506
471768
471948
472051
472293
472467
472645
472829
473022
473223
473423
473635
473853
474065
474280
474491
474707
474905
475104
475304
475503
475700
475900
476091
476279
476462
476647
476832
477023
477213
477405
477597
477784
477972
478161
478348
478536
478721
478905
479085
479264
479369
479616
479795
479967
480134
480304
480480
480663
480767
481054
481248
481455
481652
481850
482047
482248
482447
482643
482834
483018
483207
483387
483565
483668
483920
484095
484276
484456
484638
484820
485006
485195
485382
485568
485754
485936
486118
486222
486473
486653
486763
486999
487171
487340
487509
487677
487849
488025
488202
488306
488568
488751
488858
489121
489301
489407
489651
489827
489934
490179
490354
490528
490701
490807
491045
491217
491391
491560
491733
491908
492016
492273
492457
492562
492840
493029
493224
493410
493596
493782
493965
494151
494342
494534
494724
494918
495107
495291
495475
495658
495839
495944
496196
496369
496549
496725
496904
497087
497271
497454
497645
497839
498033
498225
498415
498601
498785
498961
499143
499246
499487
499662
499838
500015
500119
500367
500548
500655
500917
501105
501210
501483
501668
501863
502054
502246
502435
502624
502812
502998
503186
503378
503572
503762
503952
504143
504327
504513
504695
504799
505054
505235
505411
505587
505768
505946
506050
506310
506491
506678
506859
506964
507213
507391
507499
507740
507914
508087
508261
508434
508610
508801
508994
509187
509378
509567
509752
509936
510041
510296
510478
510666
510847
510952
511203
511378
511554
511727
511900
512079
512185
512438
512618
512804
512985
513090
513352
513537
513642
513920
514107
514212
514481
514665
514772
515033
515214
515319
515571
515750
515930
516106
516212
516462
516639
516823
517003
517185
517289
517539
517716
517823
518059
518232
518402
518568
518736
518901
519069
519232
519393
519557
519723
519886
520050
520215
520376
520535
520695
520854
521011
521171
521338
521505
521676
521841
522009
522177
522346
522520
522624
522866
523048
523154
523394
523564
523673
523900
524071
524246
524350
524589
524764
524947
