peaks
75117
75332
75547
75760
75975
76190
76403
76617
76831
77045
77259
77474
77688
77904
78119
78332
78545
78758
78973
79189
79403
79619
79832
80045
80258
80472
80688
80903
81118
81334
81548
81764
81979
82194
82412
82626
82838
83051
83264
83480
83692
83904
84115
84326
84536
84745
84955
85167
85376
85584
85792
85998
86206
86414
86621
86826
87032
87238
87444
87649
87854
88061
88265
88469
88672
88876
89083
89290
89495
89699
89905
90110
90315
90520
90727
90931
91136
91339
91544
91749
91957
92164
92368
92573
92778
92983
93188
93393
93600
93803
94007
94210
94413
94618
94824
95029
95234
95437
95641
95847
96053
96258
96463
96667
96871
97075
97279
97484
97691
97896
98101
98305
98511
98716
98920
99126
99332
99536
99739
99944
100150
100357
100562
100768
100971
101177
101382
101587
101792
101996
102202
102406
102609
102813
103017
103223
103428
103632
103834
104038
104243
104447
104649
104853
105055
105258
105459
105661
105864
106069
106273
106476
106679
106883
107088
107291
107496
107701
107906
108110
108313
108518
108723
108930
109135
109340
109544
109749
109955
110159
110364
110571
110776
110981
111185
111390
111598
111805
112011
112216
112421
112626
112832
113039
113244
113450
113657
113861
114067
114272
114479
114685
114890
115095
115301
115507
115711
115917
116124
116328
116532
116735
116939
117145
117350
117556
117761
117965
118170
118376
118581
118786
118992
119198
119404
119611
119817
120026
120234
120442
120649
120856
121062
121269
121476
121684
121892
122098
122305
122511
122718
122927
123135
123342
123548
123755
123964
124172
124380
124590
124797
125004
125211
125419
125627
125837
126044
126252
126460
126668
126877
127084
127291
127500
127708
127913
128119
128327
128536
128746
128952
129160
129368
129576
129783
129990
130198
130404
130610
130816
131022
131229
131438
131645
131853
132059
132268
132475
132682
132890
133099
133306
133513
133720
133927
134137
134346
134555
134764
134973
135183
135392
135602
135812
136021
136230
136438
136646
136857
137068
137279
137488
137697
137908
138119
138329
138539
138750
138960
139170
139380
139590
139802
140015
140226
140438
140649
140861
141074
141286
141499
141711
141921
142132
142345
142559
142773
142985
143198
143411
143626
143840
144054
144269
144482
144697
144911
145125
145342
145558
145773
145988
146204
146418
146634
146848
147063
147279
147493
147707
147921
148138
148355
148573
148791
149008
149227
149445
149663
149882
150100
150317
150532
150749
150967
151187
151405
151622
151840
152058
152275
152493
152713
152931
153148
153365
153583
153802
154022
154242
154462
154679
154899
155117
155335
155556
155776
155996
156215
156435
156655
156875
157078
157311
157531
157752
157972
158191
158412
158632
158851
159070
159290
159512
159732
159951
160170
160389
160610
160830
161049
161269
161487
161704
161921
162141
162364
162585
162804
163024
163243
163463
163682
163903
164124
164343
164562
164780
165000
165221
165442
165662
165882
166102
166322
166542
166763
166984
167203
167422
167644
167866
168090
168313
168538
168761
168986
169211
169438
169667
169894
170120
170349
170582
170815
171047
171280
171514
171746
171980
172213
172446
172676
172908
173139
173369
173603
173835
174064
174295
174525
174755
174988
175221
175454
175685
175917
176149
176385
176620
176854
177088
177322
177558
177793
178028
178265
178499
178731
178968
179206
179442
179680
179916
180153
180389
180627
180863
181099
181335
181570
181806
182003
182278
182519
182754
182990
183228
183468
183707
183949
184193
184435
184679
184926
185170
185413
185659
185903
186147
186392
186637
186882
187125
187370
187619
187867
188115
188363
188614
188867
189119
189372
189625
189879
190134
190392
190653
190914
191175
191436
191697
191953
192208
192460
192713
192965
193219
193475
193727
193979
194233
194485
194737
194991
195244
195494
195743
195996
196252
196503
196754
197008
197260
197509
197761
198012
198260
198508
198758
199009
199260
199512
199762
200014
200268
200521
200773
201024
201277
201529
201784
202037
202289
202542
202794
203043
203294
203546
203797
204047
204298
204550
204802
205054
205305
205559
205812
206062
206316
206566
206814
207064
207315
207565
207815
208064
208313
208560
208807
209055
209302
209546
209792
210039
210286
210530
210774
211016
211261
211505
211748
211992
212235
212476
212717
212961
213205
213447
213690
213937
214182
214427
214675
214920
215164
215409
215653
215899
216145
216389
216633
216877
217122
217364
217608
217851
218092
218332
218576
218820
219063
219305
219549
219791
220033
220278
220521
220761
221003
221244
221487
221729
221969
222210
222451
222691
222931
223173
223412
223652
223892
224131
224373
224614
224854
225093
225334
225576
225817
226059
226300
226541
226780
227022
227262
227502
227741
227982
228224
228467
228710
228955
229199
229442
229687
229934
230181
230428
230673
230921
231168
231414
231661
231906
232150
232395
232642
232889
233135
233381
233627
233875
234121
234366
234611
234818
235100
235348
235595
235842
236086
236328
236573
236814
237056
237299
237539
237782
238020
238262
238505
238749
238992
239235
239482
239727
239972
240219
240464
240708
240955
241203
241449
241696
241943
242188
242435
242682
242927
243173
243418
243662
243909
244157
244403
244648
244893
245138
245384
245631
245877
246122
246368
246614
246862
247109
247354
247592
247846
248092
248338
248586
248833
249077
249324
249573
249820
250069
250318
250565
250814
251063
251312
251558
251804
252048
252293
252541
252786
253026
253278
253524
253770
254018
254266
254511
254757
255004
255253
255500
255748
255958
256238
256488
256732
256978
257223
257467
257711
257959
258207
258454
258704
258952
259201
259451
259702
259952
260202
260450
260698
260948
261196
261442
261690
261940
262189
262437
262688
262939
263188
263438
263693
263943
264196
264450
264704
264956
265208
265463
265714
265965
266218
266471
266725
266980
267231
267483
267740
267996
268254
268507
268762
269017
269273
269529
269787
270044
270302
270561
270819
271078
271337
271596
271855
272116
272379
272638
272900
273161
273417
273672
273918
274175
274422
274669
274922
275172
275424
275675
275931
276188
276445
276703
276960
277214
277467
277722
277976
278227
278479
278732
278986
279235
279496
279748
280002
280256
280514
280771
281029
281288
281546
281803
282060
282318
282576
282839
283105
283375
283650
283923
284200
284482
284762
285043
285321
285592
285863
286140
286415
286688
286962
287238
287515
287794
288075
288356
288638
288920
289204
289483
289759
290034
290310
290587
290867
291146
291426
291709
291994
292277
292558
292839
293121
293405
293690
293971
294251
294532
294817
295098
295380
295665
295948
296232
296516
296804
297092
297385
297685
297987
298291
298596
298906
299214
299519
299825
300132
300440
300745
301055
301367
301678
301998
302317
302632
302948
303270
303585
303895
304209
304518
304826
305130
305434
305734
306033
306335
306636
306938
307239
307547
307852
308157
308465
308772
309078
309384
309687
309989
310287
310589
310888
311189
311494
311798
312099
312404
312707
313010
313315
313623
313930
314240
314559
314878
315197
315522
315844
316168
316495
316818
317145
317383
317801
318123
318359
318752
319067
319376
319683
319993
320302
320613
321229
321542
321858
322181
322504
322828
323152
323476
323795
324113
324433
324750
325064
325375
325688
325989
326283
326578
326870
327162
327443
327758
328058
328361
328670
328977
329284
329543
329901
330208
330515
330822
331130
331440
331753
332067
332384
332708
333038
333362
333687
334016
334344
334664
334983
335303
335620
335936
336256
336573
336893
337217
337538
337858
338181
338504
338826
339148
339469
339793
340115
340440
340763
341087
341413
341733
342051
342370
342691
343008
343327
343646
343965
344286
344605
344921
345245
345569
345889
346208
346529
346846
347164
347481
347797
348114
348433
348755
349076
349398
349723
350047
350368
350692
351017
351339
351659
351979
352297
352616
352935
353251
353570
353893
354215
354534
354856
355174
355492
355808
356119
356428
356733
357036
357337
357641
357952
358264
358577
358889
359209
359535
359859
360181
360498
360806
361114
361420
361724
362030
362339
362643
362947
363255
363561
363867
364177
364484
364787
365095
365406
365721
366038
366359
366684
367010
367335
367660
367985
368308
368629
368953
369276
369604
369933
370260
370589
370921
371250
371577
371907
372238
372568
372894
373220
373548
373872
374195
374522
374848
375171
375494
375819
376143
376471
376798
377129
377455
377781
378110
378436
378761
379090
379416
379739
380067
380381
380712
381037
381362
381684
382007
382332
382655
382979
383305
383626
383944
384262
384575
384889
385200
385512
385820
386125
386428
386731
387037
387345
387657
387970
388284
388599
388916
389237
389555
389872
390189
390511
390828
391145
391471
391804
392138
392469
392796
393122
393447
393767
394084
394401
394721
395040
395358
395679
396007
396331
396652
396973
397291
397608
397926
398239
398554
398874
399194
399514
399836
400157
400477
400801
401129
401457
401789
402120
402445
402769
403094
403420
403743
404068
404392
404717
405038
405357
405675
405998
406318
406636
406957
407279
407599
407918
408238
408556
408872
409191
409506
409820
410142
410461
410776
411095
411417
411740
412061
412380
412704
413029
413349
413668
413989
414308
414627
414946
415267
415590
415916
416245
416573
416898
417219
417543
417862
418178
418493
418812
419128
419445
419766
420088
420412
420736
421059
421383
421706
422026
422348
422675
423000
423326
423652
423977
424302
424626
424946
425265
425584
425906
426224
426543
426868
427194
427514
427836
428157
428479
428801
429119
429361
429749
430064
430370
430675
430983
431289
431591
431909
432221
432538
432861
433184
433503
433823
434144
434464
434783
435105
435428
435747
436064
436383
436700
437016
437336
437653
437969
438288
438917
439236
439626
439877
440185
440490
440798
441116
441444
441771
442101
442433
442764
443088
443410
443723
444365
444685
444993
445302
445615
446235
446554
446875
447195
447521
448173
448503
449139
449460
450086
450403
451026
451244
451648
451960
452234
452349
452448
452547
452646
452736
452839
452932
