peaks
75181
75429
75681
75941
76197
76448
76688
76930
77166
77403
77645
77887
78126
78367
78613
78865
79125
79368
79624
79873
80125
80376
80626
80891
81155
81420
81679
81947
82209
82461
82716
82977
83242
83507
83767
84023
84277
84525
84776
85026
85279
85528
85773
86017
86258
86511
86768
87025
87281
87533
87785
88028
88281
88532
88774
89021
89273
89528
89771
90019
90267
90516
90765
91005
91239
91476
91709
91944
92179
92418
92658
92904
93147
93382
93622
93865
94099
94334
94568
94802
95049
95298
95539
95774
96011
96241
96497
96745
96996
97244
97490
97741
97989
98231
98475
98722
98975
99227
99482
99731
99987
100250
100514
100762
101015
101266
101521
101775
102023
102271
102525
102780
103031
103278
103522
103766
104015
104263
104505
104750
104999
105251
105500
105751
106012
106275
106533
106801
107078
107343
107606
107872
108137
108392
108640
108896
109154
109409
109667
109921
110171
110421
110665
110903
111145
111387
111631
111878
112127
112379
112633
112878
113126
113378
113627
113876
114130
114386
114643
114903
115162
115414
115670
115926
116184
116436
116680
116932
117189
117443
117695
117938
118185
118431
118688
118949
119208
119459
119716
119976
120229
120485
120739
120994
121251
121502
121752
121997
122250
122500
122747
122987
123231
123469
123712
123960
124201
124448
124695
124947
125207
125456
125708
125958
126210
126453
126690
126928
127173
127420
127671
127932
128188
128443
128705
128965
129229
129484
129746
130000
130259
130513
130777
131037
131291
131541
131796
132042
132286
132536
132785
133033
133282
133528
133778
134025
134280
134524
134775
135020
135270
135517
135762
136004
136242
136478
136723
136970
137214
137457
137695
137938
138177
138414
138661
138910
139178
139455
139731
139989
140258
140521
140779
141032
141278
141523
141772
142014
142266
142509
142760
143019
143274
143537
143802
144060
144315
144568
144824
145072
145326
145580
145828
146068
146309
146558
146804
147054
147309
147556
147798
148041
148287
148530
148768
149021
149275
149521
149769
150011
150249
150491
150730
150974
151213
151454
151702
151949
152196
152427
152677
152929
153179
153417
153667
153918
154169
154415
154658
154909
155163
155416
155671
155920
156165
156428
156687
156944
157200
157454
157697
157942
158188
158433
158686
158935
159177
159420
159663
159920
160167
160423
160686
160947
161194
161450
161707
161965
162211
162461
162706
162945
163186
163429
163673
163917
164166
164414
164664
164917
165171
165427
165666
165908
166153
166399
166646
166896
167142
167394
167646
167897
168134
168379
168625
168867
169108
169359
169612
169863
170106
170355
170605
170858
171096
171339
171579
171811
172050
172287
172521
172764
172999
173242
173485
173727
173970
174214
174458
174705
174946
175192
175446
175704
175956
176212
176460
176714
176958
177201
177440
177685
177936
178186
178440
178689
178944
179198
179447
179702
179943
180190
180440
180690
180935
181173
181407
181652
181903
182157
182411
182667
182920
183170
183407
183654
183894
184141
184379
184627
184880
185136
185386
185630
185883
186133
186375
186628
186885
187129
187369
187619
187863
188117
188370
188627
188889
189150
189405
189664
189921
190176
190429
190668
190910
191153
191392
191634
191881
192128
192374
192611
192850
193085
193313
193553
193797
194043
194295
194550
194807
195066
195323
195570
195819
196068
196317
196570
196822
197074
197325
197577
197834
198092
198343
198599
198856
199112
199363
199613
199860
200109
200354
200587
200821
201053
201288
201521
201752
201978
202210
202439
202660
202894
203131
203373
203620
203868
204112
204349
204595
204841
205089
205326
205567
205818
206068
206329
206590
206848
207091
207342
207592
207841
208085
208324
208564
208810
209059
209304
209549
209784
210028
210272
210504
210747
210989
211234
211476
211718
211962
212204
212452
212698
212938
213183
213421
213661
213904
214139
214383
214641
214896
215151
215419
215685
215947
216207
216468
216732
216997
217251
217514
217771
218018
218272
218521
218757
219000
219244
219489
219730
219974
220223
220479
220736
220993
221247
221487
221734
221974
222218
222461
222704
222947
223188
223428
223671
223918
224163
224404
224651
224890
225131
225368
225605
225846
226095
226347
226591
226842
227088
227339
227590
227837
228092
228350
228606
228851
229103
229350
229602
229851
230110
230373
230629
230887
231145
231391
231641
231896
232144
232390
232641
232895
233133
233376
233622
233862
234106
234355
234599
234851
235101
235356
235601
235850
236094
236347
236596
236851
237109
237367
237621
237874
238110
238350
238593
238837
239082
239333
239581
239820
240067
240312
240557
240797
241031
241273
241516
241758
242002
242236
242484
242732
242980
243230
243467
243709
243954
244192
244432
244675
244919
245158
245403
245644
245888
246126
246362
246596
246830
247069
247306
247538
247774
248002
248232
248461
248697
248938
249181
249427
249678
249929
250178
250412
250653
250897
251146
251397
251650
251903
252158
252409
252653
252898
253129
253371
253612
253857
254090
254331
254572
254808
255053
255289
255535
255782
256032
256270
256516
256760
257002
257235
257469
257704
257945
258175
258415
258660
258911
259161
259399
259637
259882
260129
260377
260615
260858
261101
261336
261575
261815
262058
262287
262520
262756
262993
263224
263460
263688
263925
264164
264409
264654
264898
265136
265381
265626
265866
266111
266356
266593
266836
267081
267327
267560
267803
268044
268282
268525
268759
269004
269249
269492
269737
269977
270212
270450
270691
270933
271167
271406
271636
271878
272117
272352
272587
272823
273061
273298
273540
273780
274018
274261
274498
274731
274964
275196
275429
275662
275894
276130
276354
276586
276815
277045
277270
277503
277736
277974
278211
278455
278692
278935
279176
279411
279653
279899
280145
280394
280643
280892
281134
281367
281602
281837
282071
282304
282537
282781
283021
283274
283526
283778
284028
284277
284524
284775
285028
285285
285544
285795
286047
286293
286541
286784
287022
287262
287494
287729
287965
288205
288450
288698
288940
289189
289436
289687
289933
290174
290423
290670
290918
291163
291385
291622
291857
292096
292334
292567
292806
293027
293268
293497
293729
293962
294192
294427
294666
294898
295135
295360
295593
295824
296056
296293
296531
296768
297005
297241
297481
297728
297971
298207
298452
298693
298931
299167
299414
299655
299904
300157
300405
300654
300895
301127
301366
301605
301847
302087
302335
302586
302833
303089
303329
303573
303820
304068
304313
304553
304800
305032
305276
305518
305756
306000
306248
306496
306738
306987
307231
307482
307734
307988
308231
308479
308727
308974
309224
309479
309723
309968
310212
310458
310702
310938
311184
311425
311665
311900
312131
312353
312585
312823
313066
313303
313538
313771
313998
314228
314461
314685
314909
315130
315347
315560
315773
315987
316209
316426
316663
316907
317150
317393
317634
317875
318121
318366
318608
318849
319094
319331
319576
319819
320053
320292
320532
320773
321013
321250
321488
321733
321972
322222
322472
322722
322967
323217
323460
323703
323937
324174
324407
324644
324885
325128
325366
325606
325844
326081
326316
326554
326784
327021
327255
327482
327717
327959
328209
328466
328725
328984
329229
329484
329738
329980
330227
330478
330733
330987
331232
331484
331727
331979
332233
332481
332733
332975
333223
333480
333740
333999
334259
334517
334780
335037
335284
335536
335786
336038
336279
336531
336781
337033
337276
337527
337773
338024
338278
338530
338774
339019
339263
339504
339753
339994
340238
340487
340727
340972
341218
341466
341703
341934
342174
342417
342665
342911
343151
343398
343643
343885
344130
344374
344618
344861
345108
345361
345613
345859
346106
346357
346605
346859
347108
347360
347608
347858
348110
348351
348599
348837
349078
349327
349575
349826
350078
350335
350588
350838
351094
351348
351592
351844
352103
352364
352624
352885
353139
353382
353630
353880
354132
354383
354634
354884
355136
355382
355628
355883
356140
356400
356660
356913
357158
357410
357662
357921
358180
358436
358691
358941
359183
359426
359669
359913
360157
360392
360631
360868
361107
361351
361591
361832
362066
362303
362537
362773
363012
363257
363500
363743
363983
364224
364460
364696
364934
365178
365415
365644
365877
366110
366340
366564
366795
367022
367255
367491
367730
367970
368204
368430
368657
368888
369122
369352
369584
369814
370050
370290
370531
370772
371000
371229
371463
371695
371932
372171
372411
372653
372887
373125
373361
373596
373840
374089
374330
374580
374834
375074
375324
375574
375825
376067
376314
376560
376796
377036
377280
377522
377753
377994
378236
378483
378733
378983
379235
379490
379731
379980
380221
380470
380720
380966
381216
381464
381702
381944
382178
382419
382665
382914
383159
383407
383655
383900
384147
384394
384629
384873
385116
385349
385580
385816
386059
386304
386542
386776
387015
387249
387486
387724
387963
388200
388445
388684
388931
389176
389415
389653
389893
390143
390396
390648
390894
391142
391391
391629
391871
392117
392355
392595
392835
393084
393331
393575
393820
394062
394307
394559
394815
395060
395307
395558
395809
396062
396305
396550
396799
397044
397289
397538
397777
398020
398272
398525
398774
399021
399272
399524
399767
400011
400253
400498
400736
400988
401239
401491
401744
401991
402241
402486
402727
402961
403197
403430
403670
403915
404150
404393
404632
404875
405127
405374
405629
405883
406133
406388
406628
406880
407129
407386
407640
407893
408146
408396
408636
408880
409131
409383
409635
409886
410125
410370
410620
410871
411120
411371
411619
411871
412123
412377
412633
412886
413138
413380
413629
413876
414122
414365
414604
414845
415083
415317
415557
415798
416043
416286
416526
416774
417024
417282
417522
417776
418029
418276
418520
418764
419008
419243
419478
419716
419951
420191
420431
420664
420894
421127
421363
421597
421831
422065
422297
422534
422761
422992
423222
423450
423685
423922
424163
424407
424646
424884
425123
425363
425603
425843
426080
426315
426553
426794
427038
427282
427522
427761
428004
428241
428483
428726
428969
429206
429447
429685
429928
430179
430420
430662
430894
431136
431375
431608
431848
432084
432317
432549
432779
433008
433239
433465
433692
433917
434148
434384
434611
434838
435065
435286
435514
435745
435978
436207
436441
436674
436895
437126
437351
437580
437807
438027
438254
438479
438699
438919
439133
439349
439562
439779
439997
440212
440428
440648
440870
441096
441315
441532
441742
441960
442175
442390
442599
442817
443018
443234
443463
443684
443898
444109
444315
444525
444733
444936
445138
445345
445551
445754
445973
446190
446408
446624
446840
447056
447268
447483
447697
447908
448124
448342
448563
448782
448998
449221
449445
449671
449892
450111
450329
450546
450754
450964
451172
451376
451584
451790
451997
452204
452414
452622
452832
453042
453254
453466
453673
453883
454093
454306
454513
454716
454919
455122
455321
455522
455720
455919
456116
456314
456513
456710
456910
457110
457310
457514
457720
457925
458125
458329
458533
458732
458935
459137
459335
459539
459742
459939
460142
460347
460549
460758
460967
461182
461391
461604
461823
462036
462257
462478
462698
462918
463141
463366
463584
463808
464037
464261
464480
464703
464928
465147
465365
465581
465792
466013
466235
466456
466683
466908
467129
467350
467573
467797
468024
468248
468471
468699
468923
469144
469364
469583
469804
470024
470238
470461
470686
470907
471127
471348
471572
471794
472038
472273
472503
472736
472969
473197
473427
473655
473883
474118
474348
474567
474786
475002
475212
475424
475640
475853
476069
476287
476505
476720
476938
477155
477367
477581
477793
478005
478221
478438
478655
478869
479078
479290
479494
479703
479909
480111
480313
480513
480667
480776
480870
480988
481098
481207
481332
481414
481540
481655
481755
481887
481998
482121
482248
482338
482423
482536
482654
482750
482859
482958
483056
483148
483248
483349
483431
483510
483585
483658
483737
483814
483893
483968
484043
484114
484185
484259
484333
484432
484510
484581
484664
484741
484814
484891
484966
485044
485121
485199
485279
485355
485432
485514
485629
485723
485820
485908
486000
486107
486192
486277
486366
486484
486628
486752
486883
487022
487160
487292
487399
487505
487594
487673
487746
487824
487891
487970
488036
488106
488171
488255
488337
488412
488484
488558
488632
488710
488779
488854
488928
489011
489096
489166
489247
489330
489407
489476
489570
489656
489736
489827
489920
490000
490077
