peaks
75077
75275
75469
75585
75765
75914
76054
76199
76324
76519
76708
76846
77007
77204
77324
77444
77592
77825
77964
78142
78304
78510
78661
78797
78967
79121
79358
79497
79692
79884
80082
80261
80397
80646
80876
81016
81235
81374
81493
81672
81810
81938
82108
82237
82375
82526
82708
82887
83038
83244
83423
83577
83768
84028
84195
84428
84568
84808
85002
85157
85283
85449
85594
85733
85894
86091
86230
86402
86559
86777
86916
87097
87257
87412
87602
87738
87877
87998
88168
88352
88560
88703
88858
89018
89178
89295
89439
89672
89795
89897
90056
90271
90494
90688
90863
90999
91140
91255
91402
91553
91795
92011
92206
92342
92602
92780
93008
93246
93432
93558
93751
93980
94209
94400
94602
94769
94907
95059
95261
95399
95543
95722
95854
96000
96203
96338
96458
96683
96815
97064
97210
97350
97513
97656
97803
97971
98163
98311
98462
98639
98766
98904
99082
99228
99455
99676
99810
99948
100090
100215
100334
100470
100574
100712
100905
101043
101178
101297
101446
101588
101693
101869
101994
102129
102254
102406
102545
102689
102837
102962
103057
103200
103361
103506
103665
103831
103937
104087
104205
104349
104483
104635
104792
104954
105130
105260
105407
105551
105702
105902
106072
106283
106438
106568
106748
106911
107018
107203
107329
107518
107690
107843
108024
108214
108356
108473
108623
108729
108893
109083
109298
109475
109640
109851
109984
110166
110302
110458
110694
110847
110985
111168
111312
111424
111611
111792
111914
112101
112214
112354
112494
112613
112760
112897
113025
113178
113308
113449
113569
113748
113885
114013
114133
114259
114420
114568
114673
114832
115045
115217
115359
115508
115639
115789
115891
115985
116088
116206
116339
116485
116614
116734
116878
117062
117213
117381
117534
117673
117856
117979
118118
118224
118373
118507
118638
118787
118949
119137
119288
119454
119583
119675
119843
119957
120104
120234
120403
120527
120697
120812
120967
121123
121235
121378
121584
121733
121949
122111
122276
122437
122614
122741
122866
123009
123126
123245
123386
123579
123725
123864
124020
124204
124370
124503
124679
124830
124953
125106
125246
125428
125529
125729
125849
126011
126110
126242
126385
126539
126735
126856
126999
127176
127315
127436
127563
127673
127823
127933
128073
128180
128341
128499
128634
128774
128924
129070
129177
129271
129371
129513
129617
129788
129944
130052
130209
130371
130549
130704
130806
130979
131120
131241
131432
131588
131716
131856
132018
132169
132316
132482
132642
132794
132910
133056
133235
133391
133523
133666
133848
134025
134218
134406
134562
134711
134834
134964
135109
135265
135449
135579
135790
135948
136104
136287
136429
136594
136757
136891
137022
137229
137394
137507
137696
137879
138080
138242
138451
138649
138795
138920
139085
139218
139441
139694
139856
140031
140174
140332
140502
140642
140805
140916
141077
141186
141331
141458
141598
141695
141828
141987
142116
142235
142373
142493
142627
142754
142886
143020
143219
143340
143462
143651
143793
143960
144089
144229
144371
144537
144660
144817
144968
145113
145255
145437
145570
145699
145869
146011
146143
146299
146430
146561
146735
146875
147001
147121
147249
147366
147501
147636
147808
147943
148055
148200
148345
148462
148606
148747
148904
149075
149258
149424
149535
149701
149868
150022
150158
150277
150413
150536
150681
150827
150979
151112
151236
151384
151490
151601
151764
151897
152046
152212
152379
152493
152630
152770
152950
153118
153237
153410
153532
153658
153816
153961
154075
154218
154351
154481
154633
154766
154935
155089
155190
155315
155444
155548
155660
155819
155951
156063
156174
156346
156470
156572
156714
156890
157008
157137
157288
157479
157597
157789
157932
158073
158172
158316
158485
158669
158853
159006
159127
159294
159439
159622
159724
159879
160054
160243
160382
160523
160705
160814
160952
161099
161269
161403
161567
161753
161848
161994
162128
162296
162444
162570
162719
162845
163009
163196
163339
163508
163631
163784
163915
164092
164201
164329
164488
164637
164764
164903
165027
165192
165337
165497
165634
165762
165879
166001
166151
166305
166415
166570
166725
166857
167005
167131
167256
167455
167661
167861
167987
168161
168308
168456
168588
168727
168869
168990
169144
169262
169413
169568
169695
169835
169983
170152
170293
170427
170543
170668
170807
170941
171049
171180
171298
171418
171539
171687
171832
171935
172067
172193
172295
172437
172552
172660
172798
172939
173080
173273
173447
173608
173766
173898
174057
174210
174375
174519
174650
174749
174852
174984
175113
175233
175353
175480
175598
175719
175866
176022
176136
176241
176371
176510
176676
176807
176955
177109
177290
177393
177513
177628
177793
177931
178094
178285
178392
178558
178696
178800
178923
179022
179158
179277
179403
179527
179670
179821
179919
180057
180192
180330
180429
180541
180669
180776
180904
181062
181200
181305
181436
181619
181758
181910
182079
182196
182284
182404
182533
182651
182775
182884
183011
183110
183253
183346
183465
183586
183698
183820
183925
184026
184142
184251
184419
184515
184622
184721
184809
184912
185018
185148
185257
185390
185514
185631
185756
185857
185955
186075
186172
186277
186399
186515
186611
186729
186835
186938
187034
187121
187204
187334
187442
187546
187679
187782
187887
188024
188131
188226
188329
188422
188513
188613
188751
188897
189035
189142
189285
189402
189496
189631
189732
189845
189940
190054
190162
190281
190421
190534
190655
190769
190879
191007
191126
191231
191350
191507
191623
191712
191826
191965
192067
192229
192337
192442
192544
192650
192772
192910
193040
193155
193310
193404
193536
193644
193777
193926
194071
194242
194382
194506
194602
194739
194844
194985
195122
195225
195306
195384
195475
195595
195700
195786
195891
196001
196114
196207
196344
196464
196586
196725
196852
196957
197067
197161
197259
197382
197477
197596
197701
197837
197947
198061
198180
198276
198378
198489
198587
198690
198784
198906
199007
199136
199260
199367
199477
199568
199646
199756
199852
199934
200021
200111
200241
200358
200460
200547
200631
200756
200860
200954
201039
201125
201227
201325
201451
201549
201667
201781
201889
201977
202090
202182
202265
202381
202463
202559
202642
202722
202848
202953
203059
203146
203273
203382
203488
203586
203700
203815
203920
204000
204117
204217
204297
204406
204492
204592
204691
204796
204888
205009
205092
205186
205276
205367
205477
205553
205630
205713
205790
205936
206049
206143
206231
206349
206442
206538
206629
206730
206850
206938
207076
207182
207277
207392
207479
207583
207667
207780
207891
207994
208089
208223
208318
208427
208510
208600
208692
208814
208897
208983
209113
209224
209314
209397
209474
209582
209668
209770
209903
210009
210094
210186
210266
210347
210432
210519
210621
210738
210829
210919
211022
211133
211236
211342
211444
211536
211635
211728
211851
211974
212086
212186
212305
212405
212537
212610
212718
212802
212924
213030
213136
213266
213378
213488
213582
213690
213786
213883
213993
214095
214189
214296
214414
214503
214632
214731
214837
214954
215033
215159
215265
215352
215471
215582
215694
215788
215892
215999
216106
216193
216278
216380
216463
216539
216678
216790
216854
216952
217023
217111
217185
217258
217343
217435
217536
217613
217698
217777
217858
217962
218067
218184
218285
218374
218471
218555
218643
218725
218829
218902
219008
219094
219175
219255
219345
219424
219531
219625
219725
219822
219914
220017
220114
220198
220277
220358
220442
220520
220597
220684
220762
220839
220924
221028
221107
221174
221265
221364
221458
221541
221640
221721
221793
221867
221947
222025
222129
222210
222304
222399
222508
222590
222694
222789
222882
222985
223087
223177
223250
223332
223418
223507
223592
223697
223787
223862
223957
224033
224120
224227
224330
224424
224532
224652
224755
224884
224977
225081
225177
225262
225349
225460
225562
225673
225769
225854
225946
226083
226187
226260
226384
226489
226583
226710
226856
226936
227043
227170
227243
227324
227406
227541
227619
227706
227796
227912
228009
228106
228195
228306
228404
228506
228608
228691
228794
228891
228984
229110
229198
229299
229381
229511
229596
229677
229760
229839
229951
230055
230163
230261
230352
230438
230557
230671
230752
230854
230937
231019
231163
231270
231344
231449
231530
231605
231732
231866
231963
232050
232140
232261
232372
232470
232562
232639
232739
232835
232935
233043
233143
233219
233300
233424
233515
233606
233705
233788
233884
234006
234104
234246
234393
234498
234591
234692
234792
234892
234978
235090
235202
235286
235375
235523
235631
235731
235869
235972
236049
236131
236267
236367
236458
236590
236717
236819
236925
237065
237178
237307
237387
237475
237598
237747
237862
237988
238101
238245
238376
238480
238608
238712
238865
239006
239123
239257
239400
239504
239596
239678
239785
239925
240036
240152
240283
240401
240483
240565
240683
240838
240947
241058
241172
241282
241374
241475
241603
241681
241755
241849
241929
242091
242202
242266
242386
242472
242578
242712
242814
242909
243052
243144
243244
243387
243470
243609
243722
243818
243931
244029
244162
244259
244347
244450
244593
244718
244816
244958
245090
245170
245254
245356
245444
245520
245648
245732
245833
245940
246079
246198
246326
246421
246504
246614
246709
246819
246950
247056
247196
247285
247370
247487
247600
247736
247910
248001
248085
248193
248344
248465
248549
248665
248770
248930
249078
249183
249350
249440
249564
249682
249817
249919
250037
250157
250273
250417
250542
250712
250866
250974
251105
251263
251374
251491
251616
251735
251815
251969
252091
252252
252379
252521
252649
252783
252893
253011
253105
253222
253357
253462
253545
253681
253761
253865
253976
254083
254177
254291
254370
254494
254590
254738
254876
254987
255070
255239
255352
255462
255541
255663
255782
255890
256039
256144
256271
256377
256469
256583
256662
256766
256912
257007
257122
257217
257346
257438
257534
257634
257748
257857
257935
258022
258101
258203
258304
258404
258480
258580
258698
258834
258924
259023
259116
259202
259300
259384
259476
259554
259689
259782
259880
259990
260121
260211
260315
260397
260503
260602
260678
260749
260841
260944
261020
261112
261231
261318
261433
261521
261630
261714
261831
261948
262038
262118
262218
262330
262422
262516
262633
262715
262818
262905
262987
263066
263162
263275
263388
263493
263585
263695
263770
263881
263973
264055
264179
264294
264377
264474
264569
264651
264747
264830
264932
265048
265136
265214
265335
265444
265524
265626
265740
265852
265942
266020
266116
266190
266278
266381
266501
266606
266719
266814
266894
266971
267054
267145
267229
267307
267390
267485
267588
267674
267785
267881
267961
268060
268192
268283
268379
268489
268576
268669
268764
268841
268921
269013
269096
269201
269300
269381
269465
269547
269622
269717
269808
269911
270040
270145
270237
270314
270396
270471
270539
270688
270775
270833
