peaks
75202
75482
75795
76122
76432
76748
77058
77366
77676
77955
78230
78547
78876
79185
79470
79746
80069
80390
80700
81003
81282
81553
81826
82143
82460
82768
83074
83383
83691
83996
84303
84610
84917
85224
85530
85836
86113
86387
86661
86976
87294
87605
87912
88219
88525
88832
89138
89416
89689
90006
90326
90637
90947
91254
91561
91867
92174
92480
92759
93036
93311
93585
93902
94243
94548
94868
95183
95492
95800
96110
96409
96685
96962
97238
97513
97787
98109
98430
98740
99035
99322
99599
99872
100147
100422
100698
101016
101334
101639
101941
102231
102510
102789
103066
103343
103616
103922
104290
104608
104911
105221
105530
105836
106144
106450
106757
107066
107373
107683
107992
108298
108604
108915
109223
109530
109840
110148
110459
110768
111050
111328
111604
111879
112152
112427
112743
113067
113373
113700
113991
114272
114550
114824
115098
115374
115650
115925
116243
116559
116871
117176
117489
117773
118055
118335
118613
118891
119166
119440
119719
120038
120387
120695
121026
121346
121663
121966
122282
122593
122901
123220
123529
123843
124150
124461
124781
125094
125411
125723
126028
126305
126582
126861
127184
127528
127842
128158
128443
128721
129042
129222
129581
129941
130256
130569
130875
131200
131505
131806
132114
132421
132704
132986
133264
133539
133814
134087
134360
134633
134958
135280
135596
135907
136216
136522
136834
137118
137394
137663
137970
138278
138587
138887
139162
139464
139766
140068
140367
140666
140967
141266
141566
141844
142142
142443
142744
143044
143345
143646
143945
144244
144542
144837
145133
145408
145702
145998
146295
146583
146847
147146
147449
147753
148056
148357
148660
148961
149257
149521
149821
150108
150408
150699
150965
151264
151564
151863
152129
152392
152690
152990
153288
153585
153878
154172
154465
154758
155043
155297
155590
155886
156187
156488
156791
157095
157399
157707
158012
158317
158587
158852
159159
159470
159778
160077
160379
160678
160949
161213
161522
161835
162116
162379
162638
162951
163257
163558
163854
164150
164444
164739
165005
165268
165575
165877
166177
166444
166708
167016
167320
167619
167913
168209
168504
168798
169094
169361
169624
169932
170238
170539
170809
171073
171339
171646
171948
172248
172541
172810
173073
173380
173683
173979
174271
174541
174802
175071
175355
175627
175899
176171
176476
176775
177070
177363
177658
177951
178223
178487
178751
179013
179274
179536
179799
180102
180403
180696
180973
181240
181505
181769
182035
182340
182648
182949
183240
183511
183774
184084
184383
184680
184974
185267
185565
185861
186158
186449
186734
186996
187260
187523
187786
188050
188317
188622
188936
189237
189531
189823
190116
190410
190703
190993
191274
191555
191836
192097
192363
192627
192892
193162
193425
193687
193952
194259
194565
194867
195165
195463
195759
196056
196345
196640
196939
197239
197511
197779
198044
198310
198575
198839
199146
199459
199765
200064
200359
200660
200958
201255
201557
201856
202150
202453
202755
203054
203355
203657
203952
204253
204551
204849
205145
205442
205738
206024
206323
206633
206940
207211
207476
207742
208009
208282
208550
208814
209080
209346
209613
209880
210147
210408
210673
210983
211298
211597
211893
212191
212492
212789
213082
213377
213672
213974
214275
214577
214875
215173
215474
215747
216017
216283
216547
216812
217076
217341
217605
217870
218178
218499
218802
219098
219396
219692
219989
220287
220584
220881
221179
221474
221763
222039
222318
222621
222930
223232
223530
223801
223968
224312
224668
224971
225246
225516
225785
226053
226321
226591
226861
227167
227478
227780
228083
228358
228629
228900
229170
229436
229700
229969
230236
230542
230863
231172
231476
231781
232082
232382
232688
232989
233287
233564
233839
234112
234382
234651
234921
235229
235535
235837
236137
236439
236724
237056
237357
237661
237964
238264
238570
238875
239179
239480
239777
240078
240381
240687
240987
241285
241585
241889
242165
242439
242710
242980
243249
243519
243787
244055
244321
244590
244858
245126
245385
245712
246027
246329
246628
246928
247229
247528
247830
248140
248444
248747
249052
249328
249598
249873
250147
250415
250683
250953
251219
251531
251849
252160
252435
252707
252974
253241
253559
253867
254169
254453
254731
255000
255271
255588
255901
256204
256471
256735
257010
257318
257625
257892
258153
258455
258763
259066
259334
259594
259895
260200
260503
260794
261059
261321
261623
261925
262228
262505
262767
263066
263367
263667
263958
264238
264535
264834
265099
265359
265656
265955
266254
266550
266844
267137
267429
267700
267962
268238
268503
268792
269093
269390
269687
269969
270228
270484
270743
271041
271343
271644
271944
272241
272534
272797
273055
273356
273661
273960
274252
274547
274840
275129
275420
275716
276008
276274
276536
276795
277101
277409
277708
278000
278296
278589
278882
279171
279437
279698
280007
280310
280612
280879
281141
281309
281631
281978
282286
282584
282881
283176
283474
283741
284003
284267
284578
284904
285207
285495
285767
286031
286335
286637
286932
287230
287525
287827
288128
288424
288718
288989
289255
289517
289780
290094
290400
290696
290991
291258
291519
291780
292041
292347
292651
292950
293245
293513
293779
294044
294311
294575
294878
295184
295483
295777
296070
296363
296657
296949
297242
297534
297826
298119
298411
298683
298902
299246
299566
299864
300162
300455
300749
301045
301305
301609
301875
302141
302407
302719
303005
303311
303614
303919
304216
304499
304800
305099
305394
305695
305967
306233
306505
306774
307030
307304
307612
307883
308217
308514
308813
309085
309353
309620
309886
310151
310415
310696
311000
311310
311616
311916
312217
312521
312822
313118
313415
313712
314008
314297
314594
314866
315138
315405
315669
315936
316199
316467
316732
316998
317302
317612
317915
318210
318514
318782
319045
319312
319578
319843
320106
320371
320635
320903
321168
321430
321693
321957
322221
322486
322744
323015
323276
323546
323804
324073
324341
324510
324868
325173
325468
325759
326057
326356
326622
326932
327204
327476
327748
328018
328282
328546
328811
329079
329389
329710
330015
330320
330615
330888
331154
331420
331687
331954
332219
332528
332845
333149
333446
333752
334026
334302
334477
334814
335166
335464
335758
336070
336409
336722
337041
337350
337653
337929
338197
338459
338725
338992
339316
339635
339940
340212
340483
340751
341015
341329
341633
341938
342236
342537
342834
343129
343424
343726
344026
344326
344626
344928
345199
345462
345723
345982
346290
346605
346912
347213
347512
347807
348107
348407
348705
349000
349293
349578
349837
350095
350356
350641
350926
351210
351493
351773
352052
352326
352602
352875
353147
353420
353673
353942
354214
354483
354751
355017
355283
355548
355714
355977
356249
356518
356787
357056
357324
357589
357854
358118
358382
358646
358907
359171
359433
359693
359953
360212
360472
360731
360990
361253
361516
361780
362045
362311
362577
362845
363115
363382
363555
363822
364102
364379
364660
364940
365223
365507
365790
366075
366360
366645
366930
367215
367473
367752
367997
368242
368534
368831
369123
369372
369623
369914
370207
370493
370771
371051
371329
371607
371884
372135
372358
372658
372967
373255
373539
373821
374099
374350
374655
374933
375164
375478
375764
375993
376308
376597
376885
377162
377449
377706
377957
378225
378516
378799
379063
379318
379556
379720
380037
380372
380683
380967
381249
381531
381811
382094
382376
382661
382938
383226
383507
383795
384080
384336
384589
384841
385093
385348
385643
385931
386219
386500
386764
387021
387275
387529
387784
388042
388295
388547
388798
389049
389300
389552
389805
390058
390309
390562
390803
391065
391318
391569
391718
392075
392217
392584
392719
393092
393234
393599
393738
394122
394255
394333
394403
394465
394529
394913
395044
395147
395574
395708
395793
395875
395946
396017
396130
396492
396634
396714
396784
396856
396920
396989
397061
397136
397550
397701
397778
397840
397953
398094
398392
398531
398610
399032
399162
399247
399316
399382
399441
399495
399561
399625
399694
399766
399828
399894
399954
400017
400081
400136
400207
400274
400656
400803
400879
400948
401014
401079
401151
401267
401352
401656
401814
402152
402281
402353
402413
402477
402537
402598
402663
402729
402802
402865
402938
403305
403451
403524
403920
404050
404126
404200
404273
404346
404410
404477
404535
404601
404663
404728
404793
404857
404914
404979
405027
405095
405157
405220
405274
405339
405398
405460
405534
405606
406025
406170
406247
406310
406370
406438
406500
406571
406641
406707
406781
407134
407275
407348
407736
407863
407933
407994
408060
408135
426390
426556
426658
427165
427320
428338
428493
429039
429438
429588
429673
429783
429884
429993
430726
431110
431262
431351
431489
432470
432658
433156
433310
433705
433849
433937
434535
434798
435036
435294
435591
435885
436105
436338
436553
436765
436983
437190
437398
437608
437816
438021
438217
438400
438541
438694
438895
439129
439355
439568
439740
439921
440096
440272
440441
440623
440791
441012
441212
441392
441574
441756
441925
442098
442270
442436
442588
442725
442898
443053
443208
443365
443506
443690
443857
444032
444172
444357
444498
444656
444827
444983
445137
445284
445434
445566
445696
445859
445995
446123
446281
446422
446582
446729
446856
447001
447162
447316
447461
447604
447747
447892
448036
448181
448325
448465
448609
448753
448899
449042
449173
449324
449469
449613
449758
449891
450039
450188
450320
450473
450599
450712
450823
450935
451046
451158
451270
451379
451492
451607
451723
451837
451951
452064
452178
452292
452406
452521
452635
452748
452862
452975
453089
453202
453315
453428
453542
453655
453769
453882
453994
454105
454220
454333
454446
454559
454670
454784
454897
455007
455123
455235
455348
455458
455570
455685
455798
455910
456022
456131
456245
456362
456476
456588
456701
456817
456923
457038
457150
457262
457371
457483
457597
457706
457817
457929
458040
458152
458264
458377
458488
458600
458710
458814
458924
459035
459147
459258
459369
459480
459592
459704
459816
459926
460038
460149
460260
460371
460484
460594
460704
460815
460928
461041
461153
461263
461375
461486
461597
461707
461820
461930
462040
462150
462262
462373
462485
462588
462698
462809
462919
463029
463143
463254
463364
463475
463586
463697
463809
463914
464024
464131
464242
464353
464454
464561
464670
464781
464892
465003
465113
465225
465336
465446
465556
465667
465776
465888
465999
466110
466220
466331
466442
466553
466663
466774
466881
466994
467105
467215
467326
467436
467546
467656
467766
467878
467985
468098
468208
468318
468429
468539
468649
468760
468870
468980
469091
469200
469311
469422
469533
469644
469754
469865
469974
470085
470195
470306
470415
470525
470635
470746
470856
470967
471076
471187
471297
471408
471516
471628
471739
471849
471960
472070
472181
472293
472403
472513
472621
472735
472842
472954
473064
473175
473285
473396
473506
473616
473726
473837
473947
474057
474168
474277
474387
474498
474609
474718
474830
474942
475054
475162
475274
475382
475496
475607
475716
475825
475935
476044
476156
476267
476378
476489
476598
476708
476818
476929
477039
477151
477258
477369
477480
477591
477702
477814
477925
478034
478145
478258
478366
478478
478590
478701
478811
478924
479033
479145
479256
479366
479476
479588
479698
479808
479921
480030
480141
480252
480362
480474
480585
480697
480808
480916
481028
481141
481251
481362
481473
481581
481691
481804
481914
482024
482134
482244
482355
482468
482580
482691
482800
482911
483023
483134
483245
483355
483468
483578
483688
483800
483912
484021
484132
484241
484354
484465
484575
484686
484796
484908
485018
485130
485242
485355
485465
485575
485686
485799
485911
486023
486134
486245
486356
486467
486580
486692
486803
486914
487024
487134
487246
487357
487468
487579
487688
487800
487912
488022
488132
488239
488338
488439
488545
488657
488768
488878
488989
489100
489205
489311
489419
489531
489643
489754
489866
489977
490088
490197
490310
490421
490532
490643
490755
490866
490976
491087
491198
491308
491420
491532
491642
491753
491863
491976
492087
492196
492309
492421
492532
492643
492754
492865
492975
493088
493199
493310
493421
493531
493642
493752
493864
493974
494084
494195
494305
494415
494526
494635
494748
494859
494972
495082
495193
495303
495414
495525
495636
495746
495854
495966
496079
496189
496297
496408
496522
496630
496743
496851
496964
497075
497186
497298
497409
497520
497629
497740
497854
497964
498077
498187
498298
498409
498520
498631
498742
498853
498964
499074
499182
499295
499406
499517
499627
499739
499850
499962
500073
500185
500297
500407
500519
500630
500741
500853
500965
501078
501188
501299
501409
501520
501632
501744
501857
501965
502080
502190
502304
502415
502527
502640
502750
502863
502974
503087
503198
503308
503420
503533
503644
503754
503866
503972
504090
504201
504313
504426
504539
504648
504760
504874
504987
505098
505208
505320
505432
505544
505656
505767
505877
505991
506103
506214
506328
506438
506549
506661
506774
506885
506996
507109
507222
507333
507445
507557
507668
507781
507893
508006
508117
508228
508339
508449
508559
508670
508782
508893
509006
509118
509230
509342
509455
509566
509680
509791
509902
510013
510126
510238
510350
510463
510574
510685
510799
510910
511022
511134
511245
511358
511469
511584
511693
511807
511918
512030
512142
512254
512367
512476
512588
512701
512813
512927
513038
513151
513262
513375
513486
513599
513710
513822
513933
514045
514159
514271
514385
514496
514608
514720
514834
514944
515056
515168
515281
515390
515504
515616
515729
515842
515953
516064
516176
516288
516401
516512
516625
516737
516851
516962
517075
517188
517302
517413
517526
517639
517752
517865
517975
518088
518200
518312
518426
518536
518648
518761
518875
518988
519100
519212
519325
519436
519549
519661
519775
519888
519999
520113
520225
520337
520450
520563
520674
520785
520898
521012
521123
521234
521348
521460
521573
521684
521796
521909
522023
522136
522248
522358
522468
522578
522691
522803
522917
523030
523143
523255
523369
523482
523593
523708
523817
523931
524043
524157
524270
524384
524494
524608
524722
524832
524946
