peaks
75052
75175
75314
75453
75596
75714
75877
76023
76157
76342
76480
76607
76728
76837
76957
77099
77230
77395
77533
77638
77800
77907
78039
78151
78307
78435
78542
78652
78781
78906
79018
79129
79236
79403
79558
79730
79903
80071
80176
80322
80484
80654
80806
80950
81056
81196
81371
81480
81607
81761
81908
82045
82192
82342
82496
82656
82813
82924
83070
83196
83343
83447
83632
83791
83934
84084
84237
84380
84527
84636
84761
84902
85049
85196
85305
85423
85584
85747
85856
85977
86109
86248
86374
86488
86666
86833
86976
87140
87278
87477
87582
87695
87838
87963
88095
88199
88366
88531
88642
88746
88851
89016
89144
89248
89432
89560
89670
89770
89933
90072
90191
90359
90481
90591
90731
90839
90992
91153
91281
91447
91576
91712
91845
91950
92065
92216
92354
92495
92604
92711
92873
93013
93173
93298
93422
93569
93693
93816
93931
94072
94184
94287
94392
94554
94687
94817
94951
95068
95203
95335
95495
95607
95709
95840
95979
96089
96206
96312
96463
96599
96724
96832
96936
97068
97215
97336
97498
97625
97772
97947
98129
98261
98371
98517
98632
98764
98883
99023
99158
99281
99417
99550
99681
99839
99997
100107
100265
100401
100565
100691
100798
100915
101057
101192
101311
101429
101577
101756
101888
102022
102156
102314
102443
102548
102676
102829
102956
103095
103259
103437
103589
103738
103857
103983
104089
104238
104396
104519
104642
104787
104937
105048
105206
105346
105475
105628
105784
105932
106070
106178
106346
106509
106622
106767
106893
107062
107187
107297
107438
107598
107752
107862
107970
108075
108183
108324
108471
108591
108713
108857
109022
109163
109311
109471
109652
109764
109939
110083
110218
110362
110466
110584
110733
110845
110985
111101
111239
111344
111483
111607
111729
111853
111956
112105
112281
112426
112570
112711
112868
112997
113131
113269
113404
113572
113703
113848
113981
114089
114237
114390
114500
114645
114805
114911
115046
115238
115351
115498
115633
115772
115928
116102
116215
116356
116513
116626
116798
116949
117130
117243
117364
117486
117667
117817
117944
118070
118211
118371
118514
118617
118827
118973
119078
119188
119332
119464
119625
119748
119850
119991
120097
120257
120385
120536
120676
120806
120917
121051
121168
121302
121406
121564
121740
121925
122050
122162
122283
122429
122567
122696
122815
122969
123123
123266
123383
123534
123662
123830
123971
124085
124192
124344
124497
124677
124792
124895
125037
125179
125338
125455
125615
125738
125904
126050
126187
126332
126487
126595
126702
126808
126967
127106
127248
127401
127570
127684
127825
127956
128091
128241
128351
128488
128624
128757
128870
129006
129117
129255
129410
129518
129624
129784
129938
130143
130259
130439
130581
130702
130897
131012
131115
131218
131379
131532
131675
131787
131896
132029
132133
132246
132386
132527
132658
132777
132921
133057
133218
133323
133512
133679
133824
133946
134067
134226
134386
134521
134664
134809
134944
135048
135148
135329
135480
135582
135735
135885
135995
136145
136259
136416
136561
136751
136859
136981
137089
137244
137414
137531
137648
137771
137902
138011
138136
138280
138417
138530
138701
138840
138988
139141
139253
139466
139598
139748
139863
139987
140116
140273
140430
140537
140688
140839
140997
141107
141213
141373
141528
141668
141817
141926
142031
142157
142294
142438
142570
142679
142792
142928
143104
143219
143336
143454
143591
143738
143851
143965
144074
144216
144399
144527
144633
144813
144922
145075
145209
145316
145479
145641
145763
145881
146016
146173
146309
146484
146592
146756
146910
147060
147222
147330
147508
147618
147752
147885
147996
148133
148272
148369
148531
148693
148834
148947
149051
149189
149298
149411
149524
149645
149787
149901
150003
150109
150215
150393
150536
150702
150840
150952
151067
151223
151333
151439
151602
151733
151842
151965
152125
152296
152418
152566
152677
152802
152982
153135
153253
153362
153486
153597
153732
153860
153967
154125
154232
154340
154470
154576
154685
154834
154987
155096
155295
155449
155562
155669
155810
155926
156080
156261
156379
156492
156597
156707
156813
156979
157133
157285
157398
157544
157701
157851
157968
158080
158212
158319
158496
158605
158711
158819
158972
159138
159270
159403
159549
159658
159785
159949
160111
160240
160392
160504
160604
160712
160866
160989
161110
161249
161363
161471
161623
161737
161860
161992
162127
162235
162334
162438
162588
162729
162830
162997
163115
163281
163388
163499
163642
163798
163925
164061
164227
164338
164457
164573
164728
164863
164976
165115
165261
165399
165503
165666
165777
165890
166045
166186
166296
166403
166514
166668
166809
166942
167097
167214
167353
167507
167655
167767
167871
168031
168183
168320
168428
168560
168669
168775
168926
169077
169208
169347
169465
169623
169771
169897
170004
170166
170314
170452
170568
170716
170874
170981
171162
171291
171432
171539
171706
171897
172057
172164
172276
172381
172533
172706
172848
172953
173134
173249
173356
173498
173653
173803
173964
174099
174218
174407
174558
174707
174843
174956
175105
175224
175369
175547
175684
175789
175945
176059
176230
176358
176519
176634
176760
176912
177022
177129
177269
177380
177562
177727
177891
178003
178111
178276
178447
178633
178774
178884
179080
179213
179359
179466
179658
179774
179933
180095
180219
180328
180475
180688
180803
180907
181072
181217
181350
181461
181571
181728
181837
181944
182086
182253
182410
182572
182688
182797
182949
183123
183261
183422
183530
183691
183801
183962
184109
184218
184380
184516
184664
184810
184921
185077
185238
185392
185522
185635
185781
185915
186023
186133
186288
186422
186554
186724
186874
187006
187121
187290
187432
187544
187653
187755
187919
188069
188227
188373
188495
188648
188760
188897
189005
189112
189262
189418
189531
189634
189776
189891
190016
190198
190311
190420
190582
190759
190892
191041
191158
191304
191484
191600
191705
191871
192024
192147
192323
192466
192618
192733
192843
193014
193166
193328
193441
193550
193685
193805
193911
194018
194175
194376
194497
194601
194715
194849
194966
195076
195187
195338
195460
195609
195774
195917
196064
196180
196291
196454
196561
196735
196852
196987
197098
197256
197402
197521
197670
197790
197897
198005
198155
198284
198395
198505
198655
198787
198937
199041
199172
199318
199430
199533
199648
199789
199925
200032
200199
200354
200476
200581
200742
200916
201080
201188
201301
201403
201553
201681
201859
201980
202129
202242
202420
202562
202671
202856
202996
203113
203232
203342
203448
203567
203675
203789
203901
204007
204201
204324
204451
204577
204684
204835
204992
205193
205322
205434
205538
205716
205829
205963
206135
206317
206433
206542
206651
206759
206931
207108
207223
207333
207472
207640
207793
207910
208044
208156
208268
208382
208499
208609
208717
208827
208992
209170
209287
209407
209542
209660
209820
209939
210041
210159
210346
210460
210575
210768
210957
211072
211225
211363
211479
211639
211748
211911
212066
212199
212313
212422
212532
212641
212761
212945
213063
213170
213286
213470
213581
213750
213868
213978
214087
214200
214379
214499
214614
214728
214836
215026
215144
215256
215367
215480
215596
215707
215920
216084
216260
216398
216512
216623
216733
216844
216954
217064
217177
217290
217451
217578
217688
217798
217914
218079
218195
218367
218473
218612
218732
218841
219020
219138
219253
219367
219561
219681
219847
220057
220182
220355
220472
220648
220769
220876
221022
221141
221259
221425
221545
221650
221777
221943
222121
222245
222353
222462
222642
222756
222868
223025
223141
223242
223367
223547
223676
223781
223954
224074
224309
224501
224650
224753
224869
224978
225138
225250
225431
225545
225668
225835
225952
226058
226231
226349
226473
226593
226707
226867
226991
227115
227277
227398
227514
227619
227738
227843
227960
228111
228246
228357
228467
228635
228741
228854
229078
229193
229302
229429
229561
229694
229833
229951
230062
230177
230281
230396
230512
230632
230748
230862
230976
231191
231318
231459
231609
231735
231856
231963
232081
232194
232307
232502
232693
232812
232920
233035
233181
233324
233499
233648
233757
233872
233988
234106
234222
234373
234534
234660
234766
234891
235069
235206
235369
235556
235706
235822
235978
236110
236260
236379
236494
236727
236879
237054
237183
237297
237433
237541
237660
237782
237974
238104
238211
238385
238510
238699
238816
238997
239219
239353
239558
239683
239814
239934
240179
240312
240429
240549
240658
240851
241054
241188
241320
241480
241614
241764
241873
242001
242115
242240
242364
242495
242664
242783
242980
243097
243412
243559
243692
243871
244041
244169
244291
244398
244534
244679
244882
245002
245174
245300
245488
245609
245734
245849
245979
246091
246223
246423
246613
246768
246886
247009
247125
247338
247571
247713
247834
247957
248115
248383
248518
248781
249021
249153
249396
249545
249660
249785
249969
250121
250241
250376
250504
250619
250732
250848
251065
251255
251456
251602
251724
251889
252016
252132
252266
252395
252517
252636
252854
253081
253276
253397
253558
253684
253869
253994
254111
254336
254479
254646
254777
254992
255163
255309
255456
255618
255760
255892
256012
256130
256315
256475
256708
256862
257008
257154
257310
257431
257561
257710
257949
258120
258283
258410
258520
258706
258899
259178
259328
259440
259742
259894
260042
260169
260365
260567
260710
260867
261086
261218
261324
261473
261692
261874
262005
262122
262302
262440
262560
262722
262900
263143
263285
263407
263534
263780
263896
264159
264282
264407
264561
264779
265089
265297
265421
265537
265705
265928
266073
266320
266445
266565
266753
266885
267015
267175
267353
267509
267846
268024
268250
268385
268503
268628
268803
268930
269049
269172
269297
269501
269705
269835
269954
270194
270387
270540
270731
270875
270995
271247
271398
271529
271657
271877
272035
272197
272373
272650
272780
272921
273297
273477
273609
273726
273960
274098
274223
274358
274481
274605
274749
274866
275041
275169
275358
275498
275683
275938
276116
276311
276501
276643
276769
276895
277191
277451
277585
277710
277847
277968
278341
278488
278688
278890
279087
279290
279575
279716
279839
279955
280180
280380
280585
280727
280876
280995
281112
281223
281476
281672
281826
281952
282123
282238
282429
282587
282767
283054
283276
283494
283624
283741
283886
284007
284202
284343
284671
284857
285043
285233
285355
285476
285659
285795
285917
286101
286248
286498
286647
286852
287010
287221
287393
287525
287651
287773
287900
288031
288225
288423
288586
288713
288836
288974
289089
289288
289421
289549
289697
289981
290162
290346
290544
290733
290908
291067
291237
291383
291497
291682
291864
292087
292281
292416
292578
292712
292827
292973
293133
293313
293472
293598
293803
293937
294063
294267
294397
294583
294798
295085
295230
295418
295754
295899
296036
296254
296387
296501
296689
296837
297132
297328
297550
297684
297806
297933
298088
298274
298533
298787
299011
299188
299425
299568
299701
299898
300096
300283
300441
300656
300879
301091
301326
301488
301695
301957
302119
302297
302465
302610
302746
302909
303099
303270
303400
303522
303665
303872
304006
304127
304394
304630
304834
304976
305153
305357
305528
305678
305958
306088
306266
306451
306722
306892
307094
307235
307521
307722
307866
308020
308155
308268
308396
308514
308696
308841
309000
309160
309327
309495
309631
309884
310131
310277
310411
310563
310726
310858
310989
311116
311263
311506
311654
311841
312036
312198
312385
312556
312691
312909
313039
313181
313418
313608
313791
313922
314047
314188
314327
314474
314599
314941
315096
315223
315344
315473
315650
315807
315961
316178
316375
316509
316771
316912
317044
317247
317562
317826
318043
318261
318539
318662
318792
319003
319147
319397
319618
319811
320012
320150
320433
320647
320838
321034
321190
321403
321612
321913
322172
322326
322530
322681
322840
322986
323250
323398
323575
323739
323980
324268
324416
324573
324718
324900
325200
325403
325562
325780
325973
326116
326274
326487
326666
326832
327052
327202
327353
327504
327832
328106
328300
328492
328628
328767
328887
329044
329238
329460
329662
329848
330047
330291
330443
330737
330964
331128
331275
331439
331650
331934
332175
332336
332494
332731
332898
333086
333229
333472
333655
333821
334003
334204
334341
334487
334636
334794
334964
335105
335289
335455
335611
335827
336003
336147
336303
336490
336622
336740
337065
337242
337423
337647
337833
338039
338169
338359
338501
338660
338801
338977
339173
339369
339756
339917
340052
340202
340439
340712
340863
341122
341356
341523
341647
341788
341995
342222
342367
342480
342606
342713
342836
342979
343133
343260
343438
343603
343760
343920
344078
344384
344558
344770
344892
345039
345202
345329
345438
345649
345817
345987
346144
346261
346434
346562
346687
346913
347052
347316
347477
347607
347725
347936
348081
348289
348462
348639
348855
349016
349204
349360
349534
349657
349817
349969
350121
350418
350630
350796
350969
351131
351291
351461
351656
351806
351988
352137
352280
352398
352514
352679
352816
352952
353079
353420
353630
353864
354008
354134
354272
354385
354504
354703
354827
355074
355260
355385
355503
355645
355876
356056
356293
356438
356624
356823
356984
357215
357371
357535
357687
357845
358037
358193
358384
358569
358722
358944
359122
359343
359472
359595
359748
359930
360159
360306
360453
360704
360921
361145
361365
361593
361769
361976
362126
362263
362386
362678
362923
363062
363187
363405
363643
363902
364076
364273
364504
364694
364842
365005
365181
365342
365482
365753
365891
366035
366303
366553
366759
366970
367115
367320
367469
367605
367811
368198
368587
368760
369056
369295
369565
369798
370013
370208
370417
370656
370858
371052
371206
371363
371526
371681
371844
372117
372454
372624
372779
373052
373324
373497
373655
373851
374014
374287
374566
374946
375260
375489
375668
375832
376068
376324
376594
376795
376975
377152
377392
377565
377816
378046
378284
378556
378886
379434
379646
379983
380144
380428
380585
380813
381343
381833
381994
382376
382554
382739
382911
383063
383512
383979
384570
397892
398470
398995
399490
399976
400287
400855
401148
401397
401647
401902
402153
402412
402660
402921
403184
403451
403723
404005
404282
404573
404867
405169
405471
405785
406099
406427
406749
407085
407404
407766
408095
408430
408743
409073
409393
409730
410054
410691
411253
411791
412315
412832
413358
413904
414440
414982
415488
416016
416538
417078
417631
418174
418707
419235
419760
420285
420803
421332
421852
422374
422889
423401
423925
424440
424961
425476
425990
426504
427025
427534
428558
429077
429590
430104
430604
431114
431620
432132
432640
433152
433655
434169
434687
435205
435739
436262
436781
437305
437827
438343
438850
439362
439879
440401
440928
441449
441957
442468
442974
443484
443990
444501
445004
445503
445988
446480
446979
447483
448000
448517
449023
449520
450009
450499
450916
451488
452071
452630
453130
453635
