peaks
68
342
620
892
1162
1432
1696
1964
2240
2520
2792
3076
3378
3692
3998
4304
4610
4902
5196
5494
5790
6082
6364
6646
6928
7202
7472
7746
8024
8310
8594
8882
9178
9480
9784
10090
10392
10692
10992
11286
11564
11844
12146
12452
12752
13048
13344
13642
13946
14252
14560
14872
15180
15478
15782
16092
16400
16702
16994
17296
17610
17920
18224
18542
18862
19170
19464
19742
20024
20314
20614
20912
21198
21472
21758
22054
22358
22660
22964
23272
23580
23886
24184
24478
24780
25080
25370
25646
25940
26254
26572
26886
27198
27510
27814
28124
28430
28744
29058
29378
29700
30016
30320
30628
30928
31230
31530
31826
32118
32410
32706
33006
33312
33612
33910
34222
34538
34846
35164
35478
35792
36106
36418
36726
37032
37344
37660
37974
38278
38576
38870
39176
39480
39778
40066
40356
40656
40960
41266
41556
41844
42134
42434
42738
43046
43350
43646
43942
44240
44534
44820
45106
45394
45680
45978
46274
46568
46852
47130
47402
47672
47938
48202
48468
48736
48994
49270
49554
49846
50128
50416
50708
51004
51294
51580
51860
52130
52402
52686
52990
53300
53612
53912
54214
54512
54812
55094
55362
55648
55954
56266
56574
56886
57188
57494
57794
58094
58382
58664
58940
59212
59496
59794
60092
60388
60692
61000
61310
61622
61932
62236
62538
62830
63120
63412
63698
64000
64296
64588
64872
65164
65456
65738
66014
66288
66564
66852
67144
67432
67708
68004
68302
68598
68890
69172
69456
69742
70032
70330
70630
70944
71258
71572
71894
72210
72528
72842
73146
73456
73766
74074
74394
74702
75000
75278
75550
75838
76136
76422
76720
77006
77300
77588
77874
78156
78444
78732
79012
79282
79540
79786
80038
80304
80580
80860
81140
81412
81692
81974
82260
82568
82864
83164
83450
83734
84020
84304
84590
84874
85168
85458
85752
86062
86380
86694
86994
87286
87576
87862
88142
88418
88696
88976
89244
89504
89768
90028
90282
90540
90802
91072
91336
91598
91866
92138
92416
92710
93012
93314
93612
93906
94196
94486
94772
95056
95336
95626
95922
96210
96498
96800
97102
97398
97698
98000
98304
98614
98920
99226
99526
99828
100142
100434
100738
101038
101336
101634
101934
102228
102520
102824
103132
103436
103726
104014
104310
104600
104886
105176
105448
105708
105986
106276
106574
106868
107148
107414
107696
107986
108290
108598
108916
109228
109534
109832
110114
110398
110680
110970
111268
111560
111856
112152
112456
112760
113068
113376
113682
113978
114274
114570
114870
115172
115490
115808
116120
116426
116732
117044
117350
117650
117956
118254
118558
118862
119156
119438
119724
120026
120314
120602
120896
121192
121482
121768
122050
122332
122618
122912
123198
123502
123816
124132
124444
124758
125070
125384
125690
126006
126308
126616
126924
127236
127546
127852
128152
128424
128696
128976
129270
129568
129862
130158
130450
130738
131026
131316
131620
131920
132222
132526
132844
133152
133450
133722
133986
134260
134538
134832
135132
135436
135748
136060
136372
136676
136972
137274
137590
137910
138226
138546
138864
139180
139490
139808
140128
140446
140758
141076
141388
141696
141992
142300
142610
142914
143222
143542
143854
144168
144474
144774
145070
145370
145672
145974
146278
146580
146884
147180
147486
147792
148088
148392
148696
148998
149300
149606
149910
150222
150532
150846
151170
151480
151792
152104
152408
152712
153024
153324
153626
153940
154250
154560
154874
155182
155494
155808
156118
156434
156744
157048
157358
157664
157960
158262
158570
158870
159172
159456
159744
160044
160350
160646
160948
161252
161542
161842
162144
162450
162744
163036
163322
163606
163894
164176
164462
164746
165018
165302
165598
165896
166202
166504
166808
167116
167426
167730
168030
168324
168614
168908
169206
169496
169782
170072
170374
170670
170960
171264
171570
171876
172182
172488
172788
173084
173374
173654
173924
174192
174456
174716
174970
175218
175458
175700
175940
176170
176404
176630
176850
177074
177304
177532
177760
177996
178234
178474
178724
178952
179190
179420
179650
179872
180096
180314
180534
180752
180970
181194
181426
181660
181900
182144
182388
182638
182890
183142
183382
183622
183858
184094
184330
184566
184800
185032
185260
185478
185694
185916
186136
186364
186594
186828
187064
187310
187556
187806
188056
188292
188526
188760
188998
189228
189458
189688
189916
190150
190390
190632
190874
191112
191342
191580
191822
192064
192310
192546
192776
193022
193276
193534
193796
194056
194310
194566
194826
195096
195370
195634
195898
196154
196414
196672
196932
197192
197452
197718
197980
198232
198462
198706
198940
199178
199422
199674
199938
200206
200476
200744
201002
201260
201498
201758
202026
202288
202562
202840
203118
203400
203676
203946
204224
204512
204806
205102
205386
205668
205948
206228
206508
206782
207048
207314
207578
207846
208118
208392
208666
208922
209190
209472
209762
210042
210170
210476
210706
210984
211224
211470
211710
211922
212188
212456
212724
212914
213234
213514
213804
214082
214354
214620
214876
215118
215354
215622
215908
216198
216482
216758
217016
217268
217538
217818
218090
218348
218588
218840
219098
219370
219644
219884
220114
220344
220568
220794
221044
221310
221560
221820
222084
222342
222594
222850
223104
223350
223594
223834
224074
224306
224528
224766
225016
225272
225534
225788
226042
226296
226554
226814
227068
227300
227534
227776
228034
228300
228566
228824
229076
229316
229558
229796
230040
230270
230506
230746
230992
231224
231458
231698
231944
232202
232452
232700
232932
233164
233386
233614
233832
234058
234294
234532
234760
234978
235196
235434
235662
235900
236118
236336
236562
236744
237024
237172
237448
237676
237888
238100
238314
238512
238716
238930
239148
239374
239598
239826
240048
240274
240482
240692
240914
241130
241354
241580
241800
242006
242210
242426
242654
242878
243110
243250
243582
243708
244040
244268
244486
244710
244924
245072
245396
245536
245840
246078
246304
246530
246762
246998
247236
247486
247740
247998
248260
248524
248794
249064
249334
249602
249870
250138
250406
250678
250944
251220
251502
251784
252066
252354
252640
252914
253178
253444
253706
253974
254244
254512
254788
255064
255334
255610
255884
256168
256460
256750
257038
257326
257618
257914
258208
258494
258780
259054
259342
259630
259912
260198
260494
260798
261096
261398
261694
261992
262282
262578
262868
263160
263452
263746
264028
264302
264580
264866
265146
265426
265700
265974
266250
266528
266806
267092
267372
267650
267922
268200
268474
268752
269024
269294
269560
269824
270084
270338
270582
270826
271080
271334
271590
271856
272116
272368
272624
272850
273082
273320
273574
273822
274078
274340
274600
274870
275136
275414
275686
275952
276216
276470
276734
276994
277258
277508
277764
278018
278270
278530
278782
279040
279298
279552
279814
280074
280324
280576
280836
281090
281352
281610
281872
282136
282396
282666
282936
283218
283510
283802
284098
284388
284682
284982
285280
285574
285860
286146
286434
286732
287028
287332
287638
287946
288244
288554
288868
289176
289494
289810
290114
290408
290712
291016
291328
291642
291954
292268
292584
292890
293196
293498
293800
294094
294398
294704
295014
295316
295618
295924
296224
296524
296826
297132
297438
297756
298074
298358
298670
298976
299280
299580
299878
300170
300460
300758
301052
301352
301654
301960
302264
302580
302902
303212
303526
303836
304136
304434
304730
305024
305324
305624
305922
306222
306524
306828
307144
307454
307770
308082
308394
308700
309008
309314
309620
309920
310220
310528
310806
311096
311396
311710
312022
312326
312634
312940
313250
313556
313860
314160
314456
314752
315044
315330
315618
315912
316202
316492
316772
317044
317322
317600
317872
318142
318424
318712
319010
319306
319600
319890
320184
320472
320762
321048
321334
321616
321898
322182
322466
322758
323050
323338
323624
323906
324194
324484
324776
325046
325332
325618
325906
326202
326500
326784
327054
327314
327562
327802
328048
328316
328596
328882
329158
329446
329738
330030
330320
330612
330906
331198
331488
331780
332068
332352
332632
332912
333194
333482
333774
334074
334368
334658
334946
335238
335528
335812
336094
336382
336666
336948
337228
337508
337792
338074
338352
338628
338898
339166
339436
339710
339984
340262
340546
340828
341106
341392
341676
341956
342228
342502
342772
343040
343304
343572
343848
344130
344416
344704
344986
345270
345556
345834
346108
346384
346660
346926
347192
347456
347712
347958
348204
348450
348698
348948
349190
349418
349642
349870
350116
350368
350634
350912
351194
351478
351758
352032
352308
352582
352832
353090
353356
353628
353912
354200
354488
354778
355070
355354
355638
355916
356186
356456
356726
356994
357262
357528
357792
358054
358300
358542
358802
359062
359322
359576
359826
360072
360296
360522
360744
360958
361176
361398
361612
361826
362052
362276
362490
362712
362934
363170
363392
363620
363848
364090
364318
364558
364766
364988
365230
365476
365728
365976
366234
366486
366738
366990
367258
367498
367706
367918
368136
368370
368614
368864
369124
369384
369638
369894
370154
370414
370678
370936
371192
371446
371698
371954
372214
372478
372750
373018
373280
373548
373818
374090
374366
374640
374908
375174
375438
375700
375938
376178
376408
376638
376864
377104
377338
377578
377804
378030
378254
378476
378692
378908
379118
379330
379534
379738
379948
380168
380394
380606
380824
381038
381260
381470
381684
381896
382110
382330
382558
382786
383010
383234
383456
383674
383900
384126
384346
384564
384782
384988
385192
385392
385596
385796
385994
386196
386402
386614
386826
387044
387270
387488
387710
387926
388142
388364
388590
388818
389042
389264
389490
389710
389928
390142
390358
390576
390794
391014
391238
391466
391688
391908
392150
392372
392606
392834
393062
393280
393496
393708
393914
394116
394316
394522
394726
394930
395138
395344
395550
395758
395966
396170
396374
396576
396768
396960
397154
397346
397542
397734
397924
398110
398294
398484
398668
398860
399048
399252
399466
399674
399892
400112
400326
400544
400760
400976
401176
401374
401572
401774
401982
402202
402418
402632
402844
403054
403260
403468
403678
403896
404110
404328
404538
404744
404948
405160
405378
405604
405828
406054
406282
406504
406726
406946
407162
407372
407584
407794
408010
408232
408454
408664
408878
409094
409314
409528
409732
409934
410130
410318
410506
410696
410888
411082
411278
411470
411660
411846
412032
412211
412396
412580
412762
412954
413150
413362
413574
413774
413980
414188
414406
414618
414828
415034
415246
415462
415674
415888
416104
416324
416550
416778
417002
417222
417448
417686
417918
418152
418380
418598
418812
419028
419242
419460
419664
419862
420064
420274
420488
420694
420898
421102
421292
421486
421684
421886
422084
422282
422478
422676
422874
423074
423278
423484
423684
423882
424084
424290
424500
424712
424922
425134
425344
425550
425754
425960
426170
426382
426594
426804
427006
427216
427430
427650
427870
428086
428298
428512
428726
428940
429146
429352
429554
429754
429948
430140
430330
430518
430702
430894
431092
431292
431496
431696
431898
432114
432324
432528
432724
432910
433124
433320
433518
433710
433898
434078
434258
434440
434632
434834
435034
435236
435442
435670
435886
436092
436290
436480
436664
436842
437014
437182
437346
437508
437670
437834
438016
438222
438418
438618
438830
439046
439270
439482
439700
439908
440112
440318
440524
440728
440936
441154
441396
441632
441872
442106
442332
442560
442788
443014
443236
443454
443668
443886
444106
444326
444538
444744
444952
445158
445366
445572
445778
445978
446180
446378
446576
446778
446992
447210
447436
447668
447896
448124
448342
448562
448778
448998
449214
449416
449620
449812
450000
450184
450364
450540
450714
450886
451056
451222
451390
451556
451734
451926
452122
452322
452524
452714
452902
453080
453264
453452
453642
453842
454046
454256
454472
454684
454900
455108
455308
455500
455684
455862
456034
456202
456298
456550
456724
456898
457116
457350
457604
457852
458076
458328
458556
458790
459094
459374
459644
459902
460144
460386
460614
460842
461088
461330
461570
461798
462026
462268
462506
462736
462974
463230
463468
463706
463946
464190
464424
464652
464892
465120
465350
465568
465782
466000
466206
466406
466600
466794
466994
467220
467450
467664
467882
468104
468338
468574
468802
469020
469242
469466
469682
469890
470106
470322
470542
470774
471012
471244
471480
471718
471948
472180
472392
472602
472814
473020
473236
473452
473672
473886
474106
474326
474538
474780
475020
475260
475492
475724
475942
476150
476348
476540
476726
476916
477116
477346
477586
477842
478084
478330
478564
478788
479016
479240
479470
479698
479922
480142
480366
480596
480832
481072
481310
481550
481788
482022
482244
482460
482682
482900
483130
483356
483576
483792
484020
484248
484482
484722
484960
485192
485422
485652
485880
486114
486350
486568
486786
487018
487250
487478
487712
487940
488164
488376
488584
488804
489018
489232
489448
489662
489880
490096
490312
490528
490748
490968
491190
491408
491628
491854
492090
492330
492568
492800
493028
493250
493472
493683
493888
494083
494272
494448
494620
494792
494960
495132
495302
495484
495672
495884
496122
496342
496576
496794
497018
497242
497462
497676
497894
498120
498336
498578
498816
499040
499254
499472
499678
499880
500086
500290
500500
500736
500954
501158
501360
501554
501758
501972
502212
502464
502700
502950
503216
503490
503756
504022
504292
504562
504830
505100
505370
505634
505902
506168
506432
506700
506962
507230
507494
507752
508004
508254
508494
508740
508992
509242
509486
509730
509986
510242
510496
510744
510980
511216
511450
511684
511920
512166
512410
512648
512884
513120
513348
513566
513784
514004
514226
514452
514688
514928
515172
515408
515638
515868
516100
516332
516558
516774
517000
517232
517462
517700
517948
518172
518392
518606
518822
519044
519278
519506
519730
519954
520186
520422
520654
520882
521118
521354
521585
521832
522066
522308
522552
522800
523034
523264
523496
523732
523972
524204
524434
524664
524892
525118
525340
525556
525772
525990
526202
526414
526632
526846
527062
527272
527476
527690
527898
528102
528316
528542
528768
529008
529250
529482
529704
529926
530152
530374
530590
530798
531006
531222
531446
531668
531876
532092
532320
532562
532794
533036
533282
533528
533770
534002
534236
534476
534710
534936
535164
535392
535628
535864
536092
536314
536538
536766
536998
537224
537450
537678
537902
538120
538340
538564
538792
539018
539238
539458
539680
539904
540124
540340
540556
540780
541008
541234
541452
541660
541876
542106
542346
542592
542834
543072
543302
543524
543746
543970
544196
544428
544658
544876
545092
545296
545498
545704
545906
546120
546344
546566
546778
546980
547180
547374
547566
547756
547942
548128
548322
548514
548746
548974
549186
549408
549632
549848
550070
550294
550538
550770
551008
551246
551482
551718
551950
552184
552420
552662
552904
553154
553402
553650
553892
554134
554376
554620
554856
555096
555344
555584
555824
556052
556276
556502
556730
556956
557178
557400
557626
557854
558086
558318
558550
558788
559028
559268
559506
559738
559972
560208
560450
560692
560938
561162
561374
561600
561834
562070
562302
562530
562758
562986
563210
563426
563642
563868
564096
564324
564554
564790
565030
565270
565512
565754
565980
566202
566432
566656
566880
567112
567340
567562
567800
568042
568278
568516
568760
568994
569232
569468
569698
569932
570164
570398
570624
570848
571078
571308
571534
571764
572004
572244
572482
572718
572954
573194
573432
573662
573890
574102
574304
574498
574694
574896
575088
575290
575504
575726
575960
576202
576444
576694
576930
577166
577398
577624
577848
578068
578292
578516
578744
578964
579186
579414
579642
579876
580100
580326
580570
580818
581056
581290
581524
581742
581954
582162
582364
582564
582776
582994
583216
583450
583688
583928
584172
584410
584642
584864
585088
585318
585556
585796
586030
586258
586486
586720
586962
587206
587446
587692
587932
588170
588406
588642
588876
589112
589344
589580
589816
590058
590294
590528
590762
590998
591232
591462
591686
591912
592138
592352
592568
592788
593006
593224
593446
593680
593912
594144
594372
594606
594836
595054
595266
595484
595690
595894
596108
596320
596530
596736
596966
597194
597426
597652
597868
598076
598290
598518
598754
598966
599182
599408
599624
599854
600094
600342
600586
600828
601076
601324
601564
601800
602024
602246
602458
602670
602878
603088
603298
603508
603726
603948
604172
604398
604626
604858
605090
605324
605552
605778
606004
606230
606458
606686
606914
607136
607356
607580
607806
608036
608264
608492
608722
608946
609166
609378
609588
609798
610008
610226
610450
610678
610912
611152
611392
611624
611846
612064
612284
612494
612704
612928
613146
613362
613592
613818
614050
614270
614498
614728
614942
615166
615386
615598
615824
616052
616292
616530
616766
617004
617252
617506
617764
618018
618270
618516
618762
618996
619222
619450
619684
619918
620148
620372
620600
620826
621054
621278
621504
621726
621950
622172
622390
622608
622828
623050
623270
623488
623704
623924
624140
624360
624582
624800
625016
625230
625450
625674
625906
626138
626368
626604
626826
627044
627268
627492
627720
627950
628174
628402
628642
628880
629108
629320
629526
629726
629930
630138
630360
630572
630796
631030
631278
631524
631774
632012
632244
632464
632676
632880
633100
633308
633542
633754
634010
634272
634532
634790
635042
635284
635526
635766
636000
636230
636462
636692
636922
637152
637392
637644
637898
638152
638412
638668
638914
639162
639412
639662
639906
640152
640398
640626
640846
641066
641184
641300
641510
641754
642004
642254
642502
642746
643018
643274
643538
643786
644012
644250
644480
644722
644978
645226
645472
645724
645974
646216
646460
646706
646954
647178
647414
647646
647874
648116
648356
648596
648838
649088
649346
649592
649834
650082
650326
650572
650828
651074
651312
651546
651796
652046
652298
652552
652800
653046
653290
653532
653772
654010
654240
654464
654684
654892
655110
655342
655578
655814
656056
656300
656530
656754
656984
657214
657440
657668
657902
658140
658376
658612
658848
659080
659306
659524
659754
659988
660228
660476
660730
660976
661216
661456
661690
661928
662166
662398
662636
662876
663108
663332
663560
663794
664034
664276
664514
664748
664980
665214
665438
665656
665878
666104
666322
666544
666772
667004
667230
667454
667678
667906
668132
668352
668570
668790
669018
669246
669476
669706
669926
670148
670380
670618
670856
671102
671354
671602
671838
672070
672298
672530
672762
672994
673222
673444
673666
673892
674124
674358
674596
674836
675074
675312
675542
675770
675986
676204
676418
676638
676862
677088
677322
677550
677778
677994
678212
678446
678682
678916
679156
679392
679630
679858
680084
680312
680542
680772
680996
681216
681442
681666
681888
682110
682332
682546
682770
683004
683242
683490
683746
684002
684242
684482
684720
684952
685190
685432
685664
685902
686142
686378
686610
686846
687086
687334
687576
687822
688072
688324
688568
688808
689052
689292
689528
689764
689994
690206
690424
690646
690878
691112
691338
691568
691794
692024
692254
692484
692712
692940
693164
693382
693596
693806
694022
694242
694464
694686
694904
695120
695350
695584
695822
696064
696310
696550
696794
697038
697278
697512
697746
697978
698202
698426
698638
698858
699088
699316
699556
699800
700042
700278
700520
700764
701006
701240
701476
701714
701952
702188
702418
702650
702880
703116
703350
703584
703812
704036
704258
704500
704750
705006
705260
705506
705754
706004
706238
706470
706688
706904
707148
707392
707640
707890
708136
708372
708614
708856
709096
709330
709566
709794
710016
710238
710476
710722
710970
711204
711444
711684
711924
712166
712414
712666
712914
713148
713384
713620
713846
714078
714312
714546
714784
715022
715252
715484
715710
715940
716170
716388
716604
716836
717058
717280
717482
717688
717904
718130
718362
718602
718838
719072
719278
719508
719738
719970
720192
720422
720646
720860
721068
721280
721496
721726
721962
722194
722432
722672
722906
723144
723380
723624
723868
724114
724356
724596
724830
725056
725272
725480
725688
725904
726128
726354
726586
726818
727046
727274
727500
727728
727954
728184
728412
728642
728872
729100
729320
729550
729780
730010
730238
730470
730702
730936
731166
731398
731632
731872
732110
732346
732574
732806
733034
733262
733496
733734
733970
734202
734442
734682
734924
735168
735410
735648
735888
736128
736368
736606
736846
737080
737306
737524
737744
737964
738190
738414
738636
738856
739076
739298
739514
739734
739958
740184
740410
740632
740854
741072
741294
741512
741730
741950
742182
742422
742658
742896
743134
743364
743588
743818
744044
744266
744488
744712
744940
745162
745384
745616
745836
746070
746284
746512
746726
746956
747172
747396
747622
747838
748064
748294
748524
748756
748984
749206
749426
749646
749864
750070
750280
750496
750714
750930
751158
751392
751624
751852
752082
752316
752552
752780
753006
753222
753436
753646
753872
754096
754324
754548
754776
755004
755232
755454
755690
755922
756154
756372
756604
756838
757076
757312
757546
757780
757990
758232
758472
758706
758952
759210
759472
759730
759960
760190
760436
760684
760912
761180
761436
761690
761924
762144
762390
762618
762858
763106
763360
763616
763872
764126
764374
764618
764864
765114
765358
765608
765868
766124
766378
766622
766860
767090
767322
767562
767812
768062
768320
768590
768860
769130
769388
769648
769908
770158
770388
770608
770832
771060
771298
771540
771792
772042
772292
772538
772772
772994
773218
773444
773674
773908
774142
774384
774630
774876
775120
775356
775594
775840
776088
776332
776574
776824
777082
777336
777586
777830
778070
778312
778544
778768
778982
779190
779400
779626
779858
780104
780376
780642
780908
781168
781424
781684
781948
782206
782466
782726
782984
783250
783522
783794
784062
784336
784614
784880
785148
785410
785670
785936
786204
786470
786734
787004
787274
787548
787826
788104
788382
788668
788952
789234
789516
789798
790086
790372
790656
790942
791226
791510
791792
792070
792350
792631
792920
793190
793456
793724
793980
794232
794484
794736
794986
795242
795496
795758
796022
796284
796536
796790
797058
797324
797596
797868
798150
798436
798714
798986
799264
799538
799816
800104
800394
800672
800952
801234
801520
801810
802102
802388
802674
802970
803264
803548
803836
804128
804410
804678
804950
805230
805500
805756
806024
806294
806568
806844
807110
807378
807646
807916
808194
808464
808732
809002
809274
809546
809812
810064
810306
810538
810762
810978
811190
811396
811606
811814
812032
812254
812474
812688
812902
813110
813320
813546
813778
814016
814252
814486
814714
814938
815154
815372
815602
815862
816148
816440
816732
817020
817312
817604
817892
818180
818460
818736
819016
819276
819522
819760
819990
820222
820456
820710
820976
821246
821508
821758
822012
822272
822536
822806
823080
823354
823638
823930
824226
824526
824820
825110
825402
825692
825976
826264
826552
826838
827114
827388
827662
827926
828188
828462
828738
829014
829294
829570
829850
830130
830398
830660
830922
831190
831460
831736
832018
832302
832588
832876
833164
833448
833732
834020
834308
834592
834882
835166
835448
835720
836000
836278
836560
836840
837114
837396
837674
837944
838204
838466
838728
838982
839234
839490
839748
840010
840274
840542
840820
841102
841384
841654
841930
842208
842484
842754
843018
843284
843546
843806
844072
844342
844608
844882
845158
845430
845700
845962
846226
846500
846782
847064
847340
847614
847884
848160
848442
848724
849008
849284
849556
849832
850108
850390
850670
850948
851224
851500
851770
852036
852304
852572
852844
853126
853408
853686
853958
854236
854514
854776
855028
855274
855508
855740
855974
856214
856452
856680
856904
857120
857334
857538
857750
857972
858214
858474
858744
859016
859296
859580
859862
860140
860412
860694
860984
861270
861550
861832
862118
862402
862694
862982
863266
863548
863832
864118
864396
864674
864958
865250
865540
865826
866106
866378
866642
866898
867158
867438
867722
867998
868278
868562
868846
869132
869414
869692
869972
870252
870522
870792
871068
871344
871614
871896
872170
872440
872714
872992
873260
873528
873798
874066
874336
874606
874864
875118
875382
875658
875932
876210
876498
876782
877068
877344
877620
877890
878168
878438
878714
878996
879278
879560
879842
880130
880418
880696
880962
881218
881470
881728
882002
882274
882548
882824
883102
883380
883662
883938
884212
884484
884758
885016
885272
885388
885532
885786
886054
886332
886610
886888
887170
887450
887736
888016
888276
888552
888842
889132
889430
889728
890012
890308
890592
890876
891164
891456
891746
892034
892284
892552
892826
893102
893392
893690
893988
894274
894562
894824
895082
895350
895604
895862
896126
896392
896664
896930
897192
897452
897714
897984
898248
898494
898752
899028
899316
899602
899882
900168
900450
900732
901012
901284
901560
901838
902110
902386
902664
902950
903240
903526
903810
904108
904402
904688
904974
905256
905538
905814
906090
906372
906650
906926
907196
907470
907742
908014
908294
908576
908858
909134
909412
909686
909960
910240
910524
910802
911086
911372
911660
911948
912228
912512
912794
913072
913356
913642
913930
914222
914512
914804
915092
915380
915672
915966
916256
916556
916852
917142
917434
917724
918008
918296
918586
918876
919162
919458
919754
920038
920302
920574
920860
921148
921436
921722
922006
922296
922588
922884
923180
923478
923772
924056
924340
924630
924914
925194
925478
925766
926040
926322
926602
926880
927156
927440
927724
928004
928294
928580
928868
929152
929434
929722
930006
930292
930590
930886
931178
931464
931750
932040
932328
932614
932900
933172
933432
933704
933986
934272
934560
934846
935134
935420
935706
936000
936288
936572
936860
937150
937440
937722
938008
938294
938576
938860
939146
939432
939706
939982
940256
940528
940794
941056
941314
941572
941844
942124
942394
942670
942950
943230
943514
943802
944086
944370
944650
944930
945208
945496
945788
946078
946362
946648
946936
947216
947502
947786
948066
948352
948636
948918
949204
949490
949772
950046
950324
950606
950888
951166
951450
951734
952014
952292
952574
952850
953108
953366
953630
953896
954168
954448
954722
954992
955256
955524
955790
956046
956296
956546
956800
957056
957299
957574
957830
958086
958336
958588
958832
959080
959334
959598
959862
960128
960396
960664
960930
961198
961468
961734
961994
962258
962528
962808
963084
963362
963640
963914
964186
964456
964730
965012
965306
965596
965888
966192
966492
966768
967038
967318
967600
967884
968164
968446
968728
969014
969300
969582
969868
970160
970444
970730
971026
971320
971608
971900
972188
972470
972756
973044
973328
973606
973888
974170
974448
974732
975020
975310
975596
975888
976178
976462
976752
977046
977334
977624
977924
978214
978510
978816
979116
979412
979706
979988
980274
980562
980848
981144
981448
981740
982034
982320
982594
982860
983118
983376
983646
983920
984190
984450
984696
984938
985180
985446
985702
985962
986234
986500
986756
986998
987230
987458
987686
987926
988182
988446
988720
988996
989268
989536
989800
990062
990332
990602
990876
991152
991434
991718
992004
992296
992586
992874
993154
993436
993722
994004
994276
994528
994794
995064
995342
995624
995898
996172
996446
996720
996994
997270
997548
997824
998102
998382
998658
998928
999206
999488
999770
1000048
1000322
1000598
1000878
1001166
1001448
1001732
1002012
1002288
1002562
1002840
1003116
1003390
1003662
1003934
1004216
1004486
1004756
1005038
1005324
1005606
1005882
1006158
1006436
1006714
1006998
1007280
1007560
1007834
1008112
1008388
1008670
1008952
1009232
1009512
1009796
1010088
1010378
1010668
1010962
1011254
1011548
1011826
1012094
1012370
1012658
1012952
1013244
1013534
1013810
1014092
1014370
1014646
1014918
1015188
1015458
1015722
1015986
1016254
1016528
1016808
1017084
1017352
1017622
1017888
1018152
1018416
1018682
1018948
1019214
1019488
1019768
1020050
1020326
1020598
1020866
1021128
1021384
1021636
1021888
1022154
1022424
1022690
1022950
1023208
1023472
1023742
1024022
1024292
1024564
1024834
1025112
1025388
1025668
1025942
1026218
1026492
1026762
1027030
1027300
1027576
1027852
1028126
1028392
1028666
1028942
1029222
1029498
1029780
1030060
1030334
1030600
1030862
1031126
1031394
1031676
1031958
1032236
1032512
1032790
1033066
1033346
1033626
1033902
1034164
1034432
1034712
1034992
1035282
1035566
1035808
1036060
1036324
1036594
1036870
1037154
1037438
1037716
1037996
1038276
1038552
1038826
1039102
1039384
1039670
1039960
1040240
1040520
1040794
1041064
1041328
1041592
1041856
1042116
1042372
1042634
1042896
1043154
1043416
1043672
1043932
1044196
1044456
1044726
1045002
1045266
1045534
1045802
1046074
1046342
1046606
1046870
1047134
1047402
1047674
1047940
1048206
1048478
1048742
1049006
1049272
1049538
1049800
1050058
1050312
1050566
1050824
1051082
1051346
1051624
1051904
1052190
1052478
1052760
1053030
1053302
1053576
1053850
1054124
1054388
1054646
1054894
1055132
1055376
1055630
1055888
1056152
1056426
1056700
1056974
1057250
1057532
1057812
1058080
1058344
1058612
1058888
1059160
1059430
1059700
1059972
1060244
1060522
1060804
1061086
1061370
1061648
1061922
1062196
1062472
1062754
1063034
1063312
1063602
1063892
1064178
1064456
1064742
1065028
1065306
1065580
1065856
1066120
1066392
1066668
1066944
1067222
1067496
1067764
1068040
1068318
1068598
1068876
1069158
1069436
1069710
1069986
1070258
1070534
1070804
1071072
1071346
1071618
1071890
1072150
1072416
1072690
1072968
1073236
1073508
1073780
1074050
1074328
1074606
1074886
1075164
1075446
1075726
1075998
1076268
1076542
1076818
1077090
1077358
1077618
1077880
1078140
1078402
1078666
1078930
1079196
1079466
1079736
1080012
1080290
1080564
1080838
1081114
1081388
1081652
1081916
1082174
1082434
1082690
1082946
1083206
1083458
1083712
1083974
1084238
1084502
1084772
1085048
1085322
1085596
1085870
1086150
1086434
1086718
1087000
1087280
1087558
1087836
1088114
1088396
1088674
1088956
1089222
1089482
1089746
1090014
1090282
1090536
1090786
1091034
1091280
1091520
1091770
1092024
1092284
1092544
1092798
1093060
1093326
1093592
1093852
1094116
1094378
1094636
1094892
1095144
1095396
1095658
1095916
1096176
1096440
1096712
1096982
1097256
1097534
1097814
1098096
1098374
1098646
1098898
1099168
1099448
1099732
1100016
1100296
1100576
1100862
1101140
1101418
1101702
1101990
1102274
1102556
1102848
1103132
1103408
1103692
1103978
1104256
1104534
1104818
1105108
1105390
1105684
1105982
1106278
1106564
1106858
1107154
1107450
1107738
1108028
1108316
1108604
1108890
1109176
1109462
1109758
1110052
1110342
1110632
1110924
1111214
1111494
1111784
1112070
1112352
1112638
1112922
1113198
1113482
1113764
1114044
1114308
1114582
1114854
1115102
1115366
1115638
1115904
1116184
1116470
1116754
1117050
1117354
1117646
1117942
1118234
1118520
1118802
1119094
1119382
1119658
1119917
1120158
1120430
1120676
1120932
1121196
1121464
1121738
1122022
1122306
1122582
1122856
1123138
1123424
1123708
1123988
1124276
1124556
1124830
1125106
1125394
1125686
1125980
1126272
1126572
1126872
1127164
1127456
1127752
1128048
1128332
1128612
1128892
1129174
1129452
1129738
1130028
1130312
1130600
1130894
1131184
1131466
1131754
1132044
1132322
1132602
1132886
1133168
1133446
1133732
1134018
1134298
1134588
1134880
1135164
1135446
1135732
1136006
1136282
1136566
1136848
1137126
1137414
1137706
1137994
1138286
1138580
1138872
1139162
1139452
1139738
1140020
1140308
1140598
1140888
1141184
1141480
1141766
1142052
1142338
1142616
1142898
1143178
1143452
1143710
1143980
1144254
1144530
1144810
1145090
1145374
1145662
1145948
1146236
1146528
1146820
1147106
1147394
1147680
1147964
1148246
1148528
1148810
1149096
1149372
1149650
1149932
1150212
1150490
1150774
1151050
1151312
1151590
1151870
1152148
1152438
1152730
1153014
1153304
1153596
1153876
1154156
1154438
1154718
1154992
1155274
1155554
1155830
1156112
1156398
1156682
1156964
1157258
1157558
1157850
1158144
1158440
1158730
1159016
1159310
1159596
1159876
1160158
1160442
1160720
1161004
1161290
1161572
1161858
1162150
1162438
1162722
1163006
1163290
1163570
1163858
1164144
1164428
1164714
1165014
1165308
1165596
1165894
1166186
1166472
1166752
1167036
1167318
1167596
1167886
1168178
1168462
1168748
1169046
1169340
1169626
1169918
1170204
1170478
1170756
1171034
1171310
1171584
1171850
1172108
1172368
1172636
1172910
1173182
1173466
1173758
1174048
1174340
1174630
1174912
1175198
1175478
1175756
1176046
1176334
1176626
1176928
1177228
1177524
1177810
1178102
1178392
1178686
1178980
1179266
1179538
1179812
1180082
1180348
1180610
1180880
1181152
1181418
1181694
1181982
1182268
1182552
1182844
1183134
1183426
1183722
1184018
1184310
1184604
1184892
1185170
1185448
1185730
1186016
1186310
1186604
1186890
1187176
1187456
1187736
1188022
1188302
1188578
1188848
1189104
1189360
1189624
1189882
1190148
1190422
1190690
1190962
1191232
1191500
1191772
1192052
1192332
1192610
1192894
1193182
1193470
1193756
1194042
1194326
1194608
1194892
1195172
1195446
1195728
1196012
1196290
1196570
1196844
1197114
1197398
1197690
1197980
1198272
1198554
1198840
1199126
1199404
1199682
1199970
1200260
1200548
1200836
1201118
1201396
1201680
1201960
1202234
1202516
1202800
1203086
1203374
1203672
1203978
1204272
1204564
1204862
1205160
1205448
1205740
1206032
1206310
1206574
1206830
1207100
1207388
1207678
1207938
1208212
1208494
1208784
1209076
1209380
1209684
1209980
1210272
1210564
1210854
1211140
1211432
1211730
1212024
1212314
1212604
1212890
1213168
1213452
1213736
1214024
1214304
1214576
1214860
1215144
1215420
1215690
1215966
1216246
1216524
1216806
1217092
1217378
1217658
1217936
1218198
1218460
1218722
1218972
1219214
1219478
1219752
1220028
1220314
1220602
1220890
1221168
1221450
1221738
1222020
1222288
1222548
1222804
1223054
1223310
1223576
1223832
1224096
1224362
1224624
1224878
1225126
1225366
1225608
1225848
1226090
1226338
1226578
1226824
1227068
1227322
1227570
1227822
1228078
1228344
1228618
1228894
1229166
1229440
1229704
1229960
1230216
1230476
1230734
1230996
1231256
1231502
1231764
1232036
1232322
1232600
1232886
1233164
1233438
1233718
1233996
1234280
1234568
1234854
1235148
1235438
1235732
1236038
1236344
1236646
1236958
1237264
1237568
1237870
1238162
1238464
1238762
1239064
1239374
1239678
1239976
1240286
1240590
1240886
1241190
1241486
1241784
1242086
1242384
1242676
1242970
1243258
1243550
1243840
1244118
1244400
1244676
1244952
1245232
1245514
1245800
1246086
1246360
1246636
1246918
1247206
1247492
1247770
1248042
1248306
1248566
1248822
1249080
1249338
1249594
1249840
1250096
1250356
1250626
1250902
1251180
1251462
1251748
1252026
1252306
1252586
1252862
1253136
1253404
1253672
1253940
1254210
1254478
1254748
1255020
1255288
1255552
1255818
1256080
1256342
1256598
1256854
1257114
1257376
1257634
1257882
1258148
1258390
1258632
1258884
1259140
1259398
1259660
1259926
1260188
1260452
1260720
1260986
1261248
1261506
1261768
1262034
1262300
1262572
1262850
1263124
1263396
1263664
1263936
1264204
1264468
1264728
1264986
1265238
1265492
1265750
1266016
1266284
1266550
1266812
1267068
1267324
1267580
1267834
1268084
1268330
1268572
1268816
1269070
1269330
1269600
1269868
1270148
1270428
1270702
1270974
1271234
1271496
1271758
1272018
1272280
1272548
1272812
1273074
1273334
1273590
1273846
1274104
1274362
1274624
1274886
1275148
1275412
1275682
1275956
1276224
1276496
1276768
1277036
1277298
1277564
1277836
1278090
1278340
1278596
1278857
1279123
1279396
1279666
1279934
1280198
1280462
1280726
1280982
1281246
1281510
1281780
1282050
1282316
1282576
1282834
1283082
1283326
1283570
1283822
1284084
1284346
1284606
1284872
1285144
1285416
1285692
1285974
1286252
1286524
1286798
1287076
1287352
1287624
1287904
1288180
1288440
1288706
1288978
1289236
1289494
1289740
1289986
1290240
1290504
1290774
1291056
1291332
1291616
1291894
1292168
1292434
1292702
1292976
1293238
1293504
1293772
1294034
1294298
1294556
1294812
1295062
1295308
1295554
1295804
1296058
1296310
1296562
1296806
1297052
1297300
1297548
1297792
1298038
1298288
1298544
1298798
1299054
1299306
1299552
1299798
1300040
1300278
1300528
1300784
1301048
1301316
1301582
1301848
1302112
1302376
1302640
1302910
1303176
1303446
1303714
1303976
1304234
1304502
1304774
1305054
1305332
1305608
1305892
1306166
1306430
1306690
1306958
1307234
1307510
1307780
1308046
1308308
1308566
1308836
1309112
1309380
1309658
1309942
1310226
1310506
1310790
1311074
1311352
1311624
1311894
1312172
1312426
1312690
1312966
1313242
1313524
1313816
1314108
1314384
1314644
1314906
1315182
1315468
1315756
1316046
1316332
1316622
1316920
1317218
1317512
1317802
1318086
1318370
1318650
1318930
1319198
1319464
1319736
1320000
1320274
1320550
1320822
1321096
1321366
1321630
1321894
1322152
1322412
1322668
1322920
1323168
1323418
1323670
1323928
1324192
1324456
1324726
1324998
1325272
1325540
1325816
1326094
1326370
1326642
1326918
1327196
1327474
1327758
1328044
1328324
1328598
1328878
1329152
1329418
1329686
1329956
1330228
1330494
1330754
1331020
1331284
1331544
1331802
1332062
1332320
1332584
1332846
1333110
1333374
1333638
1333904
1334166
1334424
1334686
1334950
1335208
1335458
1335722
1335990
1336262
1336528
1336796
1337060
1337320
1337578
1337844
1338116
1338384
1338650
1338916
1339174
1339436
1339698
1339956
1340204
1340450
1340698
1340948
1341196
1341444
1341694
1341940
1342184
1342440
1342694
1342954
1343222
1343492
1343758
1344020
1344272
1344524
1344778
1345028
1345286
1345544
1345806
1346078
1346354
1346632
1346912
1347186
1347458
1347722
1347986
1348244
1348502
1348758
1349016
1349274
1349536
1349796
1350060
1350310
1350574
1350854
1351140
1351432
1351724
1352012
1352298
1352578
1352848
1353116
1353380
1353642
1353908
1354176
1354450
1354722
1354994
1355268
1355534
1355790
1356046
1356296
1356554
1356814
1357074
1357336
1357594
1357852
1358108
1358366
1358624
1358882
1359152
1359420
1359688
1359954
1360224
1360498
1360764
1361028
1361288
1361542
1361792
1362040
1362294
1362546
1362800
1363056
1363324
1363594
1363862
1364132
1364404
1364680
1364952
1365224
1365494
1365764
1366034
1366302
1366562
1366816
1367076
1367344
1367612
1367880
1368158
1368442
1368724
1369004
1369278
1369552
1369816
1370082
1370346
1370608
1370880
1371148
1371414
1371678
1371944
1372202
1372454
1372704
1372960
1373212
1373460
1373700
1373930
1374154
1374384
1374626
1374878
1375136
1375402
1375674
1375956
1376238
1376514
1376790
1377060
1377326
1377586
1377842
1378098
1378354
1378600
1378842
1379090
1379342
1379600
1379852
1380106
1380364
1380628
1380892
1381146
1381392
1381640
1381884
1382128
1382374
1382632
1382890
1383154
1383416
1383668
1383920
1384172
1384426
1384684
1384936
1385190
1385444
1385694
1385938
1386182
1386416
1386644
1386880
1387108
1387346
1387590
1387832
1388080
1388324
1388568
1388826
1389080
1389344
1389610
1389878
1390138
1390394
1390648
1390902
1391158
1391418
1391682
1391950
1392222
1392494
1392770
1393050
1393332
1393602
1393860
1394122
1394384
1394654
1394926
1395188
1395442
1395690
1395934
1396172
1396410
1396654
1396904
1397160
1397420
1397682
1397940
1398198
1398452
1398710
1398974
1399234
1399498
1399758
1399992
1400234
1400484
1400748
1401026
1401300
1401576
1401852
1402128
1402402
1402664
1402928
1403170
1403426
1403686
1403946
1404208
1404460
1404718
1404986
1405252
1405524
1405792
1406060
1406324
1406590
1406854
1407118
1407392
1407666
1407934
1408212
1408496
1408780
1409054
1409330
1409600
1409864
1410118
1410374
1410634
1410898
1411160
1411424
1411686
1411948
1412212
1412470
1412732
1412990
1413234
1413478
1413734
1413998
1414270
1414546
1414820
1415078
1415330
1415578
1415824
1416076
1416330
1416590
1416854
1417118
1417376
1417634
1417894
1418154
1418404
1418650
1418896
1419146
1419388
1419620
1419850
1420074
1420300
1420524
1420750
1420980
1421218
1421458
1421700
1421944
1422182
1422418
1422650
1422880
1423110
1423340
1423560
1423770
1423984
1424200
1424426
1424658
1424898
1425142
1425390
1425636
1425868
1426092
1426320
1426548
1426786
1427026
1427266
1427502
1427734
1427968
1428186
1428414
1428628
1428850
1429076
1429296
1429520
1429746
1429980
1430202
1430432
1430670
1430916
1431168
1431416
1431660
1431898
1432120
1432354
1432592
1432838
1433088
1433334
1433578
1433826
1434058
1434300
1434546
1434796
1435054
1435316
1435574
1435828
1436082
1436336
1436582
1436810
1437046
1437282
1437526
1437784
1438048
1438310
1438574
1438820
1439066
1439310
1439554
1439808
1440058
1440302
1440540
1440766
1440978
1441186
1441402
1441616
1441820
1442036
1442258
1442480
1442710
1442930
1443156
1443392
1443622
1443862
1444102
1444342
1444580
1444814
1445050
1445292
1445538
1445782
1446024
1446256
1446488
1446716
1446934
1447164
1447398
1447644
1447896
1448154
1448410
1448664
1448916
1449160
1449390
1449638
1449890
1450138
1450392
1450652
1450910
1451164
1451420
1451676
1451928
1452170
1452410
1452660
1452912
1453146
1453392
1453648
1453908
1454178
1454450
1454718
1454982
1455246
1455512
1455770
1456008
1456260
1456514
1456774
1457040
1457310
1457576
1457844
1458116
1458386
1458656
1458932
1459202
1459472
1459742
1460004
1460258
1460516
1460756
1461006
1461268
1461534
1461798
1462056
1462324
1462598
1462874
1463148
1463430
1463708
1463978
1464250
1464524
1464798
1465074
1465348
1465618
1465878
1466132
1466388
1466648
1466912
1467178
1467440
1467702
1467962
1468220
1468458
1468706
1468964
1469226
1469496
1469774
1470048
1470310
1470564
1470808
1471058
1471312
1471552
1471788
1472038
1472298
1472560
1472830
1473106
1473388
1473672
1473954
1474232
1474506
1474784
1475062
1475328
1475590
1475838
1476082
1476340
1476606
1476868
1477144
1477428
1477708
1477982
1478262
1478534
1478798
1479066
1479332
1479594
1479860
1480130
1480398
1480672
1480950
1481230
1481508
1481776
1482026
1482259
1482482
1482710
1482940
1483178
1483418
1483648
1483876
1484112
1484354
1484594
1484832
1485064
1485286
1485508
1485736
1485976
1486216
1486470
1486732
1486998
1487266
1487526
1487782
1488026
1488266
1488488
1488710
1488950
1489182
1489434
1489692
1489946
1490194
1490452
1490714
1490974
1491232
1491484
1491744
1492012
1492280
1492552
1492826
1493094
1493358
1493618
1493876
1494140
1494406
1494662
1494904
1495132
1495342
1495554
1495770
1496002
1496248
1496504
1496764
1497028
1497298
1497574
1497846
1498114
1498388
1498660
1498920
1499174
1499428
1499680
1499932
1500196
1500466
1500728
1500982
1501240
1501496
1501740
1501970
1502204
1502446
1502690
1502938
1503196
1503450
1503704
1503964
1504228
1504490
1504736
1504986
1505230
1505468
1505712
1505960
1506208
1506454
1506706
1506962
1507216
1507472
1507734
1507998
1508260
1508526
1508794
1509062
1509324
1509590
1509854
1510116
1510374
1510636
1510898
1511158
1511418
1511680
1511948
1512224
1512498
1512770
1513034
1513300
1513562
1513816
1514066
1514318
1514570
1514818
1515068
1515328
1515586
1515848
1516110
1516368
1516620
1516876
1517138
1517394
1517652
1517914
1518158
1518404
1518654
1518910
1519162
1519416
1519674
1519934
1520190
1520442
1520690
1520922
1521164
1521398
1521634
1521884
1522140
1522396
1522652
1522914
1523180
1523440
1523710
1523980
1524240
1524496
1524752
1525010
1525266
1525530
1525798
1526062
1526324
1526592
1526856
1527114
1527380
1527642
1527898
1528142
1528390
1528640
1528894
1529148
1529402
1529656
1529908
1530162
1530422
1530684
1530938
1531194
1531454
1531710
1531964
1532224
1532484
1532736
1532994
1533254
1533510
1533764
1534022
1534280
1534532
1534786
1535048
1535310
1535572
1535828
1536084
1536346
1536606
1536862
1537118
1537374
1537618
1537866
1538118
1538368
1538618
1538876
1539138
1539396
1539656
1539916
1540172
1540426
1540678
1540930
1541174
1541408
1541636
1541854
1542072
1542296
1542536
1542786
1543040
1543296
1543548
1543790
1544036
1544286
1544538
1544792
1545046
1545294
1545538
1545784
1546036
1546290
1546542
1546790
1547040
1547292
1547526
1547764
1548006
1548252
1548506
1548764
1549018
1549276
1549538
1549800
1550062
1550328
1550596
1550860
1551124
1551390
1551656
1551914
1552174
1552436
1552690
1552940
1553194
1553452
1553700
1553956
1554208
1554468
1554730
1554992
1555260
1555514
1555768
1556020
1556282
1556538
1556782
1557036
1557306
1557560
1557810
1558036
1558264
1558518
1558766
1558998
1559240
1559482
1559724
1559972
1560218
1560464
1560716
1560972
1561224
1561478
1561730
1561976
1562226
1562478
1562730
1562982
1563230
1563480
1563716
1563942
1564164
1564396
1564628
1564850
1565080
1565318
1565562
1565804
1566052
1566302
1566552
1566804
1567056
1567310
1567564
1567810
1568056
1568294
1568528
1568766
1569008
1569242
1569454
1569678
1569902
1570114
1570332
1570552
1570778
1571008
1571238
1571468
1571694
1571916
1572140
1572366
1572596
1572826
1573052
1573268
1573490
1573720
1573962
1574206
1574450
1574698
1574944
1575186
1575420
1575654
1575878
1576100
1576324
1576550
1576776
1577006
1577242
1577484
1577728
1577974
1578222
1578470
1578720
1578960
1579200
1579440
1579682
1579924
1580164
1580410
1580654
1580898
1581134
1581376
1581612
1581850
1582088
1582324
1582564
1582798
1583030
1583256
1583484
1583712
1583942
1584174
1584408
1584646
1584892
1585138
1585384
1585628
1585870
1586114
1586358
1586602
1586846
1587092
1587334
1587574
1587814
1588050
1588288
1588528
1588768
1589010
1589252
1589496
1589742
1589986
1590236
1590486
1590734
1590982
1591232
1591476
1591722
1591970
1592212
1592454
1592702
1592944
1593186
1593430
1593672
1593908
1594150
1594392
1594632
1594872
1595116
1595358
1595600
1595848
1596096
1596342
1596586
1596832
1597076
1597322
1597572
1597824
1598070
1598320
1598572
1598820
1599062
1599308
1599552
1599794
1600032
1600278
1600522
1600766
1601012
1601260
1601508
1601762
1602014
1602264
1602516
1602762
1603006
1603256
1603508
1603756
1604004
1604250
1604496
1604742
1604988
1605238
1605484
1605730
1605980
1606228
1606474
1606722
1606970
1607214
1607460
1607710
1607958
1608204
1608456
1608706
1608950
1609196
1609446
1609696
1609942
1610194
1610444
1610692
1610942
1611188
1611434
1611684
1611932
1612180
1612424
1612668
1612906
1613132
1613368
1613616
1613870
1614124
1614374
1614622
1614870
1615116
1615358
1615598
1615842
1616086
1616332
1616586
1616840
1617102
1617370
1617640
1617904
1618166
1618424
1618672
1618914
1619156
1619402
1619648
1619894
1620138
1620386
1620636
1620888
1621140
1621404
1621668
1621928
1622186
1622444
1622698
1622946
1623196
1623448
1623698
1623942
1624188
1624438
1624692
1624946
1625204
1625462
1625714
1625970
1626224
1626474
1626724
1626976
1627226
1627474
1627728
1627980
1628228
1628480
1628732
1628982
1629234
1629490
1629744
1629996
1630250
1630504
1630752
1631002
1631252
1631500
1631752
1632006
1632256
1632508
1632760
1633002
1633250
1633502
1633752
1634002
1634254
1634506
1634760
1635016
1635272
1635522
1635780
1636030
1636278
1636514
1636742
1636962
1637178
1637392
1637612
1637838
1638066
1638298
1638526
1638752
1638986
1639228
1639472
1639718
1639968
1640218
1640470
1640720
1640972
1641232
1641490
1641750
1642008
1642268
1642528
1642788
1643050
1643310
1643568
1643826
1644088
1644350
1644608
1644870
1645132
1645388
1645650
1645908
1646156
1646408
1646652
1646892
1647126
1647348
1647564
1647776
1647978
1648182
1648392
1648612
1648838
1649078
1649322
1649570
1649820
1650068
1650318
1650568
1650814
1651064
1651314
1651564
1651812
1652060
1652308
1652560
1652816
1653068
1653322
1653580
1653842
1654098
1654360
1654622
1654886
1655146
1655408
1655672
1655934
1656194
1656452
1656710
1656964
1657218
1657470
1657722
1657976
1658232
1658480
1658730
1658978
1659226
1659480
1659732
1659986
1660234
1660468
1660708
1660958
1661218
1661480
1661742
1662010
1662278
1662536
1662790
1663046
1663300
1663550
1663804
1664062
1664318
1664570
1664830
1665090
1665344
1665598
1665858
1666114
1666362
1666614
1666864
1667112
1667360
1667614
1667872
1668128
1668386
1668646
1668904
1669160
1669412
1669676
1669930
1670184
1670440
1670694
1670948
1671206
1671454
1671708
1671954
1672200
1672446
1672698
1672948
1673196
1673448
1673698
1673950
1674196
1674450
1674704
1674954
1675198
1675446
1675696
1675950
1676204
1676456
1676708
1676960
1677206
1677450
1677700
1677950
1678198
1678448
1678688
1678924
1679168
1679416
1679668
1679920
1680174
1680430
1680684
1680940
1681202
1681466
1681726
1681990
1682236
1682472
1682712
1682950
1683188
1683432
1683662
1683892
1684132
1684376
1684628
1684882
1685136
1685382
1685630
1685878
1686126
1686376
1686628
1686888
1687144
1687398
1687662
1687924
1688182
1688446
1688694
1688922
1689164
1689406
1689650
1689906
1690160
1690412
1690662
1690918
1691170
1691418
1691672
1691926
1692180
1692432
1692684
1692930
1693166
1693404
1693642
1693870
1694100
1694328
1694558
1694782
1695004
1695228
1695454
1695686
1695910
1696130
1696348
1696566
1696790
1697016
1697248
1697482
1697714
1697946
1698184
1698424
1698670
1698920
1699174
1699434
1699692
1699942
1700186
1700430
1700666
1700900
1701136
1701374
1701618
1701866
1702112
1702366
1702622
1702878
1703128
1703384
1703642
1703896
1704146
1704394
1704640
1704886
1705128
1705364
1705600
1705844
1706077
1706332
1706564
1706790
1707016
1707246
1707474
1707728
1707970
1708210
1708454
1708694
1708932
1709166
1709400
1709636
1709874
1710112
1710354
1710604
1710854
1711104
1711350
1711594
1711842
1712086
1712332
1712582
1712832
1713082
1713330
1713576
1713822
1714072
1714326
1714584
1714840
1715098
1715358
1715614
1715870
1716126
1716376
1716618
1716858
1717096
1717342
1717590
1717840
1718094
1718350
1718610
1718864
1719122
1719380
1719632
1719884
1720138
1720392
1720640
1720890
1721136
1721374
1721614
1721852
1722084
1722316
1722558
1722800
1723048
1723302
1723554
1723804
1724056
1724312
1724560
1724810
1725062
1725316
1725566
1725818
1726074
1726328
1726578
1726834
1727092
1727346
1727600
1727846
1728094
1728344
1728596
1728844
1729092
1729344
1729596
1729842
1730094
1730348
1730600
1730850
1731100
1731342
1731578
1731808
1732034
1732254
1732478
1732712
1732948
1733182
1733410
1733638
1733856
1734084
1734324
1734566
1734816
1735074
1735330
1735580
1735830
1736078
1736328
1736570
1736812
1737058
1737302
1737546
1737794
1738044
1738292
1738536
1738788
1739036
1739280
1739524
1739778
1740034
1740286
1740540
1740794
1741044
1741292
1741538
1741788
1742038
1742288
1742542
1742796
1743050
1743296
1743548
1743800
1744050
1744294
1744540
1744788
1745032
1745270
1745516
1745764
1746010
1746246
1746478
1746716
1746964
1747214
1747470
1747720
1747964
1748208
1748454
1748702
1748946
1749188
1749432
1749682
1749934
1750184
1750438
1750696
1750950
1751198
1751438
1751672
1751908
1752148
1752392
1752636
1752874
1753116
1753362
1753616
1753872
1754126
1754378
1754618
1754856
1755094
1755334
1755568
1755802
1756042
1756284
1756524
1756764
1757002
1757240
1757476
1757708
1757940
1758174
1758408
1758642
1758878
1759116
1759352
1759590
1759832
1760070
1760304
1760544
1760786
1761032
1761278
1761526
1761776
1762026
1762272
1762518
1762770
1763018
1763268
1763524
1763780
1764032
1764288
1764538
1764788
1765040
1765292
1765542
1765796
1766050
1766300
1766554
1766808
1767060
1767312
1767568
1767820
1768068
1768320
1768568
1768814
1769066
1769312
1769564
1769824
1770082
1770336
1770592
1770848
1771098
1771346
1771594
1771842
1772084
1772330
1772574
1772818
1773064
1773312
1773562
1773808
1774052
1774296
1774532
1774764
1774984
1775204
1775422
1775648
1775864
1776094
1776330
1776568
1776814
1777068
1777326
1777584
1777840
1778098
1778356
1778612
1778862
1779116
1779368
1779620
1779874
1780124
1780380
1780638
1780896
1781150
1781400
1781654
1781912
1782168
1782420
1782674
1782926
1783178
1783426
1783678
1783932
1784184
1784438
1784698
1784956
1785212
1785474
1785734
1785994
1786252
1786512
1786774
1787030
1787282
1787540
1787798
1788052
1788306
1788562
1788818
1789070
1789324
1789578
1789828
1790078
1790324
1790566
1790800
1791030
1791256
1791474
1791686
1791892
1792098
1792320
1792558
1792808
1793066
1793324
1793584
1793848
1794112
1794380
1794640
1794902
1795158
1795414
1795666
1795914
1796162
1796414
1796676
1796944
1797210
1797478
1797746
1798012
1798274
1798534
1798790
1799032
1799260
1799500
1799746
