peaks
43
263
496
748
998
1252
1494
1754
2012
2260
2498
2738
2980
3218
3464
3716
3952
4190
4434
4674
4920
5178
5438
5698
5950
6208
6470
6726
6986
7256
7518
7776
8028
8294
8566
8834
9088
9352
9622
9884
10134
10392
10642
10896
11150
11406
11666
11932
12182
12448
12718
12984
13248
13518
13782
14040
14286
14544
14810
15078
15344
15596
15836
16094
16354
16622
16880
17140
17394
17656
17908
18158
18412
18666
18916
19162
19408
19654
19910
20162
20404
20654
20908
21158
21408
21662
21918
22170
22428
22688
22942
23186
23424
23670
23930
24186
24446
24694
24944
25198
25448
25684
25904
26120
26348
26578
26800
27028
27258
27496
27740
27982
28224
28468
28710
28958
29204
29454
29696
29946
30202
30452
30696
30930
31174
31418
31662
31908
32162
32408
32664
32924
33182
33436
33688
33936
34184
34430
34670
34906
35156
35404
35652
35896
36140
36388
36630
36864
37094
37308
37522
37762
37994
38238
38488
38738
38976
39202
39432
39662
39896
40128
40358
40584
40814
41046
41282
41522
41756
41986
42228
42472
42714
42946
43178
43412
43644
43878
44108
44340
44578
44816
45058
45302
45542
45780
46018
46254
46496
46742
46988
47226
47468
47712
47950
48204
48456
48704
48946
49210
49464
49714
49964
50214
50464
50718
50964
51212
51466
51712
51958
52212
52464
52710
52960
53212
53460
53706
53946
54192
54440
54694
54942
55190
55442
55690
55938
56180
56434
56690
56946
57192
57430
57652
57886
58130
58366
58600
58830
59070
59318
59564
59810
60050
60292
60528
60772
61006
61240
61488
61746
62012
62252
62490
62734
62978
63222
63454
63694
63932
64174
64420
64672
64930
65172
65416
65658
65904
66156
66398
66638
66888
67132
67354
67582
67840
68096
68342
68588
68836
69076
69330
69580
69822
70078
70326
70576
70824
71080
71332
71588
71846
72106
72368
72618
72862
73106
73354
73600
73846
74088
74334
74576
74830
75080
75328
75578
75838
76102
76372
76656
76930
77202
77484
77754
78034
78302
78558
78806
79070
79334
79602
79864
80116
80366
80634
80902
81172
81442
81702
81952
82222
82496
82768
83052
83344
83612
83878
84134
84380
84630
84886
85152
85412
85680
85942
86202
86464
86734
87002
87270
87528
87760
88006
88254
88510
88760
89010
89248
89496
89746
89994
90240
90486
90738
90992
91248
91492
91740
91980
92236
92484
92738
93000
93246
93504
93774
94050
94304
94580
94852
95126
95390
95650
95918
96180
96444
96710
96970
97224
97486
97744
97994
98236
98490
98758
99010
99268
99520
99772
100012
100236
100480
100732
100990
101278
101586
101872
102142
102400
102674
102926
103186
103432
103686
103938
104190
104444
104710
104974
105240
105514
105788
106060
106338
106600
106860
107122
107394
107668
107940
108214
108476
108740
109010
109278
109544
109812
110066
110330
110596
110858
111118
111384
111642
111900
112164
112426
112684
112934
113194
113446
113702
113956
114204
114452
114712
114968
115220
115482
115736
115964
116212
116462
116720
116972
117230
117488
117756
118020
118276
118532
118782
119032
119276
119522
119774
120030
120280
120530
120776
121024
121274
121524
121766
122006
122254
122500
122748
122988
123242
123502
123756
124020
124300
124582
124840
125102
125356
125614
125870
126122
126378
126630
126880
127122
127372
127628
127878
128120
128370
128618
128860
129106
129354
129600
129838
130086
130336
130580
130830
131078
131316
131562
131802
132052
132306
132552
132796
133042
133284
133520
133756
134004
134252
134496
134746
134992
135230
135458
135678
135900
136138
136386
136622
136866
137106
137356
137606
137864
138120
138378
138632
138886
139134
139386
139638
139886
140124
140378
140632
140880
141118
141362
141608
141856
142102
142342
142586
142830
143080
143316
143546
143780
144010
144242
144470
144698
144942
145184
145436
145680
145926
146178
146428
146676
146934
147190
147438
147682
147934
148182
148424
148668
148914
149164
149416
149672
149930
150182
150434
150692
150944
151198
151444
151688
151932
152174
152418
152662
152904
153146
153380
153624
153878
154140
154396
154640
154872
155112
155340
155562
155786
156012
156242
156474
156712
156938
157174
157412
157644
157870
158100
158334
158568
158806
159052
159304
159548
159792
160032
160284
160534
160786
161026
161264
161506
161752
161994
162244
162500
162758
163016
163272
163534
163788
164044
164300
164552
164804
165058
165310
165558
165812
166066
166316
166570
166824
167076
167326
167572
167808
168042
168266
168484
168716
168954
169192
169442
169692
169938
170172
170422
170672
170912
171144
171384
171632
171882
172134
172386
172644
172914
173180
173422
173682
173940
174188
174444
174706
174968
175230
175484
175744
175998
176260
176516
176778
177036
177294
177546
177800
178048
178300
178556
178808
179054
179298
179556
179824
180086
180336
180598
180852
181108
181364
181620
181880
182134
182398
182652
182900
183150
183398
183648
183900
184154
184402
184650
184912
185174
185422
185684
185946
186200
186460
186726
186990
187248
187514
187766
188016
188260
188514
188766
189026
189296
189560
189810
190068
190324
190574
190820
191082
191332
191574
191818
192070
192314
192572
192826
193078
193330
193578
193840
194092
194348
194590
194846
195092
195338
195590
195830
196062
196290
196512
196750
196992
197238
197484
197730
197974
198226
198488
198738
198984
199240
199488
199736
199990
200246
200496
200746
200996
201248
201494
201738
201968
202206
202446
202672
202906
203150
203404
203648
203884
204120
204360
204614
204854
205100
205338
205578
205814
206064
206310
206562
206800
207032
207260
207492
207726
207964
208204
208436
208678
208914
209146
209386
209626
209862
210090
210314
210530
210752
210978
211210
211438
211674
211908
212150
212392
212628
212884
213132
213372
213612
213864
214116
214358
214596
214842
215086
215322
215568
215818
216074
216330
216584
216830
217082
217334
217586
217836
218104
218364
218624
218882
219148
219408
219666
219912
220166
220422
220676
220920
221166
221420
221658
221898
222132
222362
222600
222848
223086
223328
223570
223818
224062
224296
224532
224772
225008
225236
225456
225702
225944
226190
226444
226700
226956
227208
227460
227708
227954
228196
228440
228682
228930
229182
229442
229694
229940
230192
230440
230698
230940
231188
231436
231680
231920
232158
232396
232644
232890
233146
233386
233634
233872
234120
234380
234632
234886
235126
235370
235616
235868
236094
236334
236576
236826
237068
237308
237558
237804
238048
238294
238552
238800
239048
239298
239548
239798
240062
240314
240578
240844
241102
241354
241620
241890
242144
242406
242664
242926
243190
243440
243694
243954
244222
244486
244744
245008
245276
245540
245810
246080
246344
246604
246860
247112
247358
247582
247834
248088
248342
248602
248866
249134
249396
249662
249926
250190
250460
250736
250996
251248
251518
251788
252058
252328
252584
252844
253108
253370
253626
253888
254152
254408
254660
254928
255190
255472
255742
256016
256290
256562
256834
257114
257392
257664
257932
258202
258478
258754
259034
259288
259554
259822
260084
260344
260600
260868
261130
261380
261636
261906
262160
262404
262668
262944
263202
263464
263730
263994
264262
264530
264792
265064
265338
265602
265866
266126
266390
266652
266908
267168
267422
267688
267952
268208
268474
268738
268998
269244
269506
269766
270016
270254
270518
270782
271034
271298
271568
271826
272090
272352
272618
272884
273156
273426
273686
273938
274194
274458
274718
274974
275234
275488
275734
275994
276254
276510
276772
277034
277286
277530
277774
278028
278272
278520
278760
279000
279236
279482
279730
279966
280210
280458
280704
280954
281198
281448
281710
281966
282218
282464
282706
282952
283204
283448
283696
283942
284184
284420
284674
284918
285160
285400
285636
285872
286112
286344
286582
286826
287076
287326
287582
287838
288090
288340
288584
288822
289058
289290
289536
289778
290022
290268
290524
290768
291018
291258
291504
291748
291984
292226
292462
292708
292956
293198
293442
293692
293938
294184
294426
294672
294916
295162
295408
295652
295898
296136
296376
296608
296848
297088
297328
297570
297808
298046
298292
298534
298772
299012
299250
299492
299728
299958
300188
300426
300658
300892
301124
301360
301600
301836
302060
302280
302494
302718
302940
303172
303402
303638
303880
304114
304346
304584
304820
305060
305304
305544
305786
306020
306264
306500
306738
306982
307226
307466
307714
307954
308194
308434
308674
308920
309156
309402
309650
309898
310138
310384
310618
310852
311090
311326
311554
311796
312040
312280
312516
312744
312972
313204
313438
313684
313932
314172
314412
314660
314906
315150
315392
315658
315922
316184
316448
316702
316960
317232
317486
317740
318002
318274
318538
318802
319052
319314
319562
319808
320056
320300
320556
320808
321054
321322
321584
321838
322088
322344
322596
322846
323090
323330
323570
323812
324062
324310
324542
324798
325056
325320
325570
325830
326098
326358
326626
326886
327144
327400
327658
327918
328176
328434
328698
328958
329210
329436
329664
329898
330144
330396
330640
330874
331126
331380
331622
331850
332094
332338
332584
332830
333072
333312
333548
333790
334030
334260
334508
334756
335016
335268
335530
335788
336030
336292
336556
336826
337124
337416
337688
337936
338186
338430
338670
338942
339212
339472
339740
340002
340260
340520
340778
341022
341274
341528
341776
342018
342264
342506
342744
342992
343238
343472
343716
343966
344216
344472
344714
344968
345232
345498
345756
345998
346258
346520
346782
347044
347296
347546
347814
348064
348320
348570
348824
349064
349310
349562
349810
350050
350290
350524
350764
351004
351226
351444
351678
351924
352170
352402
352650
352890
353130
353362
353600
353838
354072
354304
354548
354798
355038
355284
355546
355800
356050
356308
356564
356820
357078
357342
357606
357858
358112
358370
358622
358876
359134
359378
359648
359916
360176
360436
360704
360972
361234
361496
361758
362018
362278
362532
362784
363028
363274
363546
363800
364048
364300
364550
364800
365052
365308
365564
365818
366068
366324
366568
366820
367078
367344
367604
367854
368092
368338
368582
368834
369076
369312
369548
369800
370064
370316
370554
370796
371054
371294
371550
371796
372034
372264
372504
372744
372982
373208
373458
373708
373950
374200
374442
374680
374936
375200
375450
375718
375972
376236
376498
376770
377030
377284
377550
377820
378070
378314
378576
378838
379120
379388
379636
379884
380118
380378
380624
380856
381090
381316
381542
381766
381998
382216
382434
382668
382908
383138
383382
383624
383872
384122
384376
384624
384876
385132
385370
385600
385878
386176
386434
386714
386966
387216
387456
387690
387932
388184
388438
388686
388942
389196
389446
389708
389964
390226
390480
390738
390998
391260
391512
391756
392006
392266
392526
392780
393032
393292
393544
393800
394044
394286
394544
394798
395044
395280
395516
395766
396010
396256
396500
396740
396980
397216
397450
397682
397906
398126
398358
398594
398836
399078
399322
399564
399800
400034
400272
400506
400738
400968
401190
401424
401664
401908
402148
402392
402630
402872
403112
403354
403608
403852
404102
404342
404582
404824
405078
405332
405578
405822
406062
406302
406538
406768
407004
407244
407484
407734
407978
408222
408462
408708
408946
409190
409446
409692
409942
410186
410424
410672
410910
411150
411380
411622
411864
412106
412346
412592
412844
413096
413344
413590
413830
414050
414274
414502
414746
414982
415224
415474
415712
415946
416182
416414
416660
416912
417170
417430
417680
417932
418186
418442
418698
418948
419188
419428
419678
419926
420178
420446
420708
420968
421222
421472
421716
421962
422220
422486
422744
422998
423264
423540
423820
424090
424352
424612
424874
425130
425382
425638
425892
426152
426404
426656
426898
427154
427408
427664
427922
428188
428444
428714
428976
429238
429494
429744
429992
430240
430490
430744
430982
431208
431442
431700
431950
432212
432466
432716
432966
433214
433474
433732
433992
434236
434480
434734
434996
435246
435492
435732
435978
436214
436450
436686
436934
437182
437434
437692
437944
438204
438464
438714
438966
439218
439468
439716
439954
440176
440408
440654
440904
441158
441414
441664
441906
442152
442402
442660
442910
443156
443408
443658
443896
444154
444402
444648
444910
445168
445428
445678
445932
446186
446450
446712
446972
447228
447486
447766
448016
448284
448544
448810
449068
449340
449602
449866
450122
450374
450630
450892
451170
451428
451688
451954
452216
452478
452732
452996
453246
453504
453770
454020
454272
454516
454740
454982
455240
455494
455730
455990
456258
456522
456796
457066
457330
457592
457850
458102
458366
458626
458884
459142
459406
459664
459914
460184
460452
460718
460982
461252
461532
461810
462078
462344
462614
462900
463176
463444
463726
464006
464286
464560
464828
465090
465364
465628
465888
466148
466418
466686
466952
467214
467476
467742
468008
468276
468536
468806
469100
469390
469666
469944
470224
470488
470764
471042
471316
471588
471850
472120
472392
472652
472862
472968
473070
473240
473331
473439
473532
473908
474067
474440
474535
474850
474943
475334
475596
475864
476138
476404
476672
476958
477244
477522
477800
477972
478040
478452
478582
478938
479072
479414
479670
479928
480194
480460
480732
481014
481172
481536
481810
482078
482350
482622
482892
483166
483318
483676
483948
484214
484492
484760
485022
485278
485548
485806
486070
486336
486608
486864
487138
487406
487530
487646
488022
488284
488544
488798
489054
489296
489546
489806
490062
490314
490572
490814
491070
491318
491558
491810
492062
492318
492568
492828
493096
493350
493604
493862
494106
494356
494598
494856
495108
495350
495572
495796
496034
496274
496524
496770
497008
497129
497452
497690
497936
498168
498412
498684
498958
499222
499490
499764
500038
500300
500546
500810
501074
501340
501604
501870
502128
502242
502604
502756
503094
503340
503602
503862
504124
504392
504504
504862
504982
505328
505584
505842
506096
506350
506466
506822
506950
507282
507546
507796
508062
508308
508560
508828
509094
509366
509632
509894
510150
510410
510670
510924
511192
511452
511704
511962
512224
512470
512718
512972
513234
513496
513748
514002
514258
514510
514754
515002
515252
515486
515722
515964
516190
516430
516549
516894
517144
517392
517636
517878
518142
518406
518664
518930
519198
519458
519748
520024
520276
520538
520800
521056
521310
521580
521840
522092
522358
522622
522886
523150
523416
523672
523928
524198
524456
524704
524950
525204
525470
525736
525982
526244
526502
526748
526996
527252
527512
527766
528022
528268
528520
528774
529028
529282
529526
529750
529976
530222
530472
530726
530982
531220
531468
531714
531962
532214
532450
532698
532950
533178
533416
533662
533902
534142
534364
534457
534804
535044
535286
535530
535772
536018
536270
536532
536782
537030
537278
537524
537754
537992
538240
538486
538730
538982
539222
539458
539680
539902
540134
540378
540626
540864
541112
541362
541610
541850
542090
542344
542596
542850
543096
543348
543602
543858
544086
544342
544598
544844
545092
545338
545580
545828
546086
546340
546596
546842
547084
547336
547586
547838
548086
548342
548606
548862
549104
549340
549582
549832
550078
550326
550570
550830
551094
551342
551596
551842
552086
552334
552604
552866
553130
553386
553612
553856
554096
554352
554618
554874
555126
555384
555638
555896
556140
556392
556652
556914
557174
557430
557686
557938
558196
558456
558710
558958
559212
559460
559704
559946
560196
560454
560706
560956
561204
561446
561682
561922
562156
562390
562618
562850
563082
563324
563546
563762
563990
564224
564462
564702
564944
565184
565414
565642
565878
566124
566362
566592
566826
567048
567268
567500
567740
567976
568208
568442
568676
568912
569148
569388
569610
569836
570064
570298
570544
570792
571032
571274
571524
571778
572030
572276
572504
572750
572992
573226
573462
573692
573918
574142
574376
574600
574814
575024
575248
575472
575702
575938
576178
576414
576642
576870
577110
577348
577588
577824
578062
578288
578520
578760
579000
579232
579456
579684
579926
580178
580418
580654
580892
581128
581366
581598
581826
582054
582290
582524
582760
582992
583218
583460
583698
583940
584176
584412
584646
584888
585126
585370
585610
585842
586080
586318
586554
586794
587042
587298
587550
587798
588040
588280
588520
588644
588978
589196
589408
589622
589840
590070
590300
590526
590754
590978
591202
591424
591642
591866
592098
592328
592554
592780
593016
593250
593478
593710
593932
594156
594366
594582
594814
595038
595270
595514
595756
595996
596246
596488
596728
596970
597214
597456
597690
597926
598158
598398
598626
598864
599112
599362
599598
599816
600058
600330
600580
600820
600942
601290
601528
601774
602022
602156
602506
602638
602960
603094
603414
603544
603872
604004
604334
604466
604784
604918
605246
605376
605706
605836
606154
606282
606570
606700
607004
607130
607430
607556
607858
607984
608280
608412
608718
608846
609162
609290
609598
609728
610042
610172
610486
610616
610920
611052
611368
611498
611824
611952
612258
612480
612738
612982
613208
613438
613674
613918
614160
614396
614642
614874
615110
615342
615552
615760
615972
616176
616398
616628
616872
617106
617348
617582
617818
618064
618314
618550
618792
619042
619292
619526
619778
620032
620286
620528
620766
621006
621250
621496
621734
621964
622220
622464
622698
622938
623182
623328
623632
623860
624084
624292
624500
624736
624980
625230
625478
625738
626000
626246
626500
626764
627014
627276
627538
627800
628050
628298
628550
628792
629040
629286
629522
629766
630020
630262
630492
630728
630972
631220
631462
631702
631944
632192
632438
632678
632922
633166
633404
633650
633890
634124
634370
634624
634872
635102
635318
635542
635798
636040
636282
636536
636794
637060
637310
637554
637822
638076
638326
638578
638838
639090
639348
639602
639850
640092
640334
640582
640832
641078
641330
641582
641814
642038
642280
642520
642784
643050
643312
643574
643834
644092
644354
644614
644866
645126
645384
645640
645896
646140
646390
646644
646884
647116
647352
647608
647866
648120
648376
648628
648870
649118
649350
649594
649850
650106
650364
650624
650894
651158
651416
651674
651932
652188
652436
652670
652886
653120
653386
653620
653860
654106
654358
654620
654880
655120
655352
655602
655852
656102
656350
656610
656870
657116
657376
657636
657890
658134
658392
658650
658898
659152
659402
659640
659888
660136
660386
660640
660892
661140
661390
661648
661894
662142
662394
662640
662896
663138
663390
663630
663858
664092
664328
664564
664806
665052
665302
665550
665802
666060
666310
666560
666814
667058
667320
667570
667822
668072
668316
668538
668766
669004
669252
669480
669714
669950
670196
670434
670664
670890
671146
671392
671628
671854
672072
672294
672526
672756
672992
673228
673458
673696
673928
674154
674382
674618
674844
675076
675316
675540
675760
675994
676232
676458
676696
676786
677128
677281
677582
677804
678024
678236
678444
678564
678866
679092
679332
679576
679701
680000
680220
680458
680692
680962
681226
681478
681726
681964
682198
682430
682676
682916
683154
683402
683652
683892
684134
684402
684652
684880
685102
685314
685528
685758
685970
686069
686398
686634
686882
687122
687352
687582
687834
688082
688316
688552
688790
689012
689250
689490
689710
689936
690166
690396
690626
690852
691078
691312
691540
691764
691980
692200
692434
692666
692896
693146
693418
693664
693894
694110
694352
694606
694864
695102
695344
695590
695834
696078
696320
696574
696818
697072
697332
697584
697830
698080
698324
698570
698816
699070
699318
699562
699800
700024
700256
700486
700716
700934
701156
701376
701612
701842
702078
702310
702524
702730
702956
703188
703436
703676
703906
704136
704372
704614
704854
705090
705340
705594
705850
706084
706332
706592
706860
707100
707352
707604
707858
708102
708350
708588
708820
709052
709276
709506
709746
709978
710206
710428
710652
710864
711082
711316
711560
711798
712036
712274
712502
712742
712970
713194
713416
713642
713864
714088
714306
714524
714746
714978
715196
715426
715674
715908
716140
716362
716594
716826
717046
717266
717488
717710
717932
718158
718398
718624
718846
719074
719306
719536
719772
719998
720222
720448
720670
720890
721100
721312
721530
721744
721964
722180
722406
722640
722864
723092
723312
723524
723732
723938
724140
724350
724564
724776
724986
725202
725420
725634
725840
726058
726274
726488
726686
726910
727124
727340
727568
727800
728022
728242
728462
728690
728918
729144
729366
729588
729804
730022
730250
730474
730692
730912
731146
731390
731620
731848
732080
732324
732556
732788
733020
733252
733474
733698
733922
734142
734368
734598
734822
735044
735290
735536
735774
736004
736242
736468
736700
736936
737164
737396
737626
737854
738084
738312
738540
738766
738974
739196
739432
739688
739932
740168
740396
740632
740760
741088
741306
741524
741756
741982
742206
742428
742672
742918
743168
743428
743684
743942
744184
744418
744634
744864
745100
745322
745554
745798
746040
746270
746514
746776
747026
747274
747512
747748
747988
748228
748466
748704
748956
749202
749444
749680
749922
750158
750384
750602
750834
751070
751310
751556
751800
752050
752296
752408
752774
753016
753104
753456
753682
753910
754140
754376
754610
754834
755058
755278
755510
755736
755974
756192
756396
756486
756828
756952
757266
757484
757702
757928
758166
758392
758628
758874
759104
759346
759584
759806
760012
760220
760432
760646
760860
761090
761328
761564
761796
762026
762262
762492
762712
762938
763150
763260
763564
763682
764002
764228
764462
764702
764938
765172
765396
765606
765848
766094
766342
766590
766832
767066
767294
767522
767750
767982
768212
768452
768700
768942
769176
769418
769656
769910
770226
770516
770784
771034
771282
771520
771756
771992
772228
772454
772690
772926
773160
773416
773672
773930
774204
774470
774718
774972
775208
775444
775684
775924
776162
776394
776620
776844
777070
777300
777542
777788
778034
778274
778522
778766
778998
779238
779464
779692
779912
780138
780360
780580
780804
781030
781258
781482
781706
781924
782132
782356
782602
782844
783088
783330
783572
783812
783916
784248
784470
784706
784940
785172
785398
785630
785866
786096
786320
786544
786774
787014
787252
787508
787736
787976
788204
788430
788648
788858
789066
789274
789474
789676
789878
790086
790290
790498
790700
790896
791094
791294
791498
791700
791908
792130
792362
792588
792808
793058
793308
793550
793802
794066
794326
794574
794820
795082
795346
795596
795840
796076
796318
796576
796814
797060
797298
797548
797808
798056
798296
798532
798770
799016
799254
799496
799736
799974
800198
800440
800686
800926
801166
801404
801648
801890
802142
802380
802622
802858
803092
803320
803536
803744
803964
804186
804426
804678
804926
805198
805476
805736
805988
806246
806500
806752
806986
807228
807480
807740
807996
808254
808500
808756
809016
809274
809534
809790
810038
810300
810554
810808
811066
811322
811564
811804
812058
812314
812570
812736
813048
813302
813562
813726
814042
814294
814552
814792
815050
815306
815558
815814
816076
816302
816522
816766
817020
817280
817536
817790
818048
818310
818568
818818
819072
819330
819578
819822
820068
820318
820570
820826
821084
821334
821592
821848
822096
822348
822604
822862
823126
823382
823636
823886
824142
824400
824660
824906
825158
825418
825676
825928
826176
826436
826684
826936
827186
827436
827688
827934
828176
828418
828658
828892
829124
829350
829562
829792
830022
830260
830510
830754
830998
831238
831484
831732
831982
832224
832464
832712
832962
833210
833452
833696
833948
834196
834450
834702
834946
835194
835448
835704
835948
836196
836444
836690
836934
837192
837446
837688
837928
838188
838454
838718
838972
839230
839486
839742
839998
840258
840516
840770
841016
841252
841474
841690
841920
842148
842390
842650
842896
843130
843378
843622
843864
844094
844332
844586
844834
845068
845310
845566
845826
846074
846330
846586
846838
847088
847338
847586
847834
848076
848336
848592
848844
849090
849332
849582
849818
850060
850310
850558
850806
851046
851294
851548
851786
852020
852266
852512
852762
853000
853244
853486
853734
853974
854218
854468
854704
854940
855172
855406
855618
855830
856058
856292
856534
856776
857024
857264
857498
857740
857982
858212
858454
858710
858954
859198
859450
859708
859952
860198
860446
860692
860944
861190
861444
861696
861946
862190
862446
862706
862950
863196
863444
863694
863940
864194
864444
864692
864942
865196
865442
865688
865932
866176
866410
866658
866910
867150
867384
867624
867868
868108
868344
868594
868842
869082
869324
869574
869816
870062
870300
870542
870786
871030
871270
871504
871752
871994
872244
872488
872738
872982
873218
873462
873710
873952
874186
874416
874654
874894
875142
875384
875632
875884
876140
876392
876642
876892
877140
877400
877654
877900
878152
878406
878654
878898
879148
879398
879642
879882
880132
880378
880626
880864
881116
881368
881622
881870
882116
882372
882622
882876
883120
883366
883602
883846
884080
884328
884586
884834
885082
885348
885620
885870
886124
886370
886610
886856
887104
887348
887588
887830
888056
888272
888480
888700
888932
889192
889434
889680
889930
890180
890434
890688
890920
891168
891414
891662
891900
892150
892408
892668
892918
893154
893398
893648
893900
894148
894398
894656
894914
895158
895418
895670
895914
896152
896404
896660
896916
897156
897406
897678
897948
898208
898460
898706
898958
899212
899472
899732
899984
900230
900482
900732
900988
901238
901480
901730
901986
902236
902474
902714
902958
903210
903460
903696
903944
904194
904444
904702
904960
905222
905476
905720
905966
906200
906452
906700
906952
907198
907438
907674
907916
908158
908398
908642
908886
909120
909352
909600
909846
910088
910334
910578
910812
911042
911252
911468
911702
911930
912174
912410
912648
912882
913110
913350
913592
913828
914060
914284
914516
914752
914990
915222
915458
915702
915950
916190
916420
916660
916904
917140
917368
917602
917842
918084
918332
918586
918836
919086
919324
919570
919822
920064
920304
920554
920802
921040
921276
921520
921756
921988
922224
922454
922682
922914
923146
923378
923612
923852
924086
924316
924548
924786
925014
925246
925478
925708
925938
926166
926390
926612
926844
927070
927296
927536
927770
927992
928232
928466
928694
928910
929124
929322
929530
929748
929964
930194
930434
930670
930894
931124
931358
931604
931836
932066
932306
932548
932792
933042
933286
933532
933768
934016
934270
934510
934752
935002
935254
935488
935726
935966
936202
936434
936674
936916
937146
937386
937624
937856
938086
938320
938568
938814
939048
939296
939540
939774
940032
940288
940538
940788
941036
941276
941522
941776
942026
942270
942516
942754
943010
943260
943510
943748
943992
944238
944478
944716
944962
945208
945452
945692
945924
946180
946430
946672
946916
947168
947420
947670
947918
948172
948414
948654
948904
949156
949406
949656
949916
950168
950418
950664
950914
951166
951414
951672
951924
952184
952446
952700
952952
953204
953454
953704
953964
954216
954470
954726
954978
955228
955464
955712
955942
956158
956382
956610
956854
957104
957342
957588
957842
958080
958324
958566
958796
959024
959258
959504
959752
960002
960266
960530
960782
961044
961304
961558
961820
962082
962340
962592
962854
963120
963376
963632
963890
964148
964398
964652
964910
965158
965406
965658
965932
966192
966464
966740
967004
967258
967518
967780
968046
968312
968582
968840
969100
969360
969606
969876
970148
970400
970644
970902
971158
971412
971662
971934
972200
972454
972708
972954
973176
973414
973666
973930
974192
974448
974704
974964
975228
975480
975732
975984
976236
976488
976742
976990
977238
977488
977732
977984
978236
978488
978730
978958
979232
979504
979762
979998
980256
980520
980778
981036
981302
981564
981812
982072
982356
982626
982880
983134
983400
983660
983920
984184
984460
984722
984976
985236
985494
985762
986030
986288
986534
986790
987046
987306
987566
987828
988078
988332
988596
988854
989108
989348
989594
989850
990090
990338
990566
990780
991014
991266
991514
991774
992034
992284
992542
992784
993040
993282
993520
993762
994016
994270
994518
994778
995034
995290
995556
995812
996066
996314
996574
996836
997102
997370
997618
997880
998146
998398
998644
998894
999142
999384
999622
999874
1000124
1000368
1000614
1000868
1001118
1001372
1001618
1001868
1002128
1002384
1002640
1002882
1003138
1003384
1003636
1003872
1004126
1004374
1004618
1004858
1005102
1005350
1005590
1005832
1006074
1006322
1006578
1006838
1007098
1007358
1007616
1007868
1008120
1008380
1008628
1008870
1009128
1009386
1009638
1009886
1010142
1010392
1010628
1010868
1011104
1011340
1011556
1011778
1012022
1012274
1012510
1012754
1013016
1013272
1013516
1013768
1014010
1014248
1014492
1014740
1014984
1015232
1015488
1015740
1015982
1016232
1016484
1016724
1016980
1017236
1017488
1017750
1018004
1018254
1018504
1018760
1019012
1019260
1019506
1019756
1020000
1020256
1020508
1020752
1021002
1021254
1021500
1021744
1021996
1022248
1022498
1022740
1022984
1023212
1023430
1023640
1023868
1024110
1024362
1024606
1024838
1025090
1025342
1025590
1025832
1026080
1026328
1026580
1026832
1027086
1027334
1027588
1027842
1028096
1028346
1028582
1028828
1029074
1029314
1029538
1029786
1030038
1030282
1030528
1030778
1031028
1031278
1031526
1031778
1032028
1032276
1032526
1032778
1033030
1033278
1033526
1033772
1034010
1034228
1034442
1034702
1034938
1035182
1035420
1035660
1035916
1036166
1036410
1036656
1036930
1037200
1037458
1037710
1037988
1038252
1038504
1038768
1039026
1039280
1039532
1039796
1040066
1040324
1040578
1040834
1041092
1041342
1041586
1041830
1042088
1042352
1042614
1042862
1043118
1043382
1043642
1043908
1044186
1044462
1044724
1044980
1045238
1045496
1045744
1046002
1046256
1046504
1046740
1046980
1047224
1047450
1047696
1047952
1048204
1048456
1048714
1048956
1049194
1049432
1049662
1049882
1050132
1050374
1050632
1050894
1051152
1051412
1051668
1051926
1052184
1052436
1052686
1052946
1053196
1053446
1053706
1053968
1054222
1054472
1054726
1054974
1055224
1055468
1055704
1055958
1056214
1056474
1056726
1056974
1057234
1057494
1057760
1058020
1058286
1058540
1058794
1059056
1059314
1059574
1059828
1060084
1060328
1060574
1060814
1061038
1061256
1061502
1061736
1061978
1062224
1062468
1062710
1062954
1063202
1063452
1063698
1063940
1064200
1064450
1064696
1064942
1065190
1065440
1065692
1065950
1066204
1066456
1066716
1066976
1067238
1067482
1067722
1067946
1068168
1068380
1068612
1068850
1069142
1069402
1069646
1069878
1070128
1070384
1070630
1070880
1071136
1071398
1071648
1071900
1072174
1072446
1072716
1072990
1073250
1073510
1073770
1074014
1074254
1074504
1074758
1075010
1075262
1075504
1075768
1076024
1076274
1076518
1076762
1077002
1077248
1077504
1077760
1078004
1078256
1078502
1078734
1078996
1079250
1079492
1079750
1080002
1080258
1080510
1080766
1081018
1081272
1081516
1081776
1082036
1082296
1082542
1082796
1083054
1083314
1083566
1083816
1084072
1084326
1084574
1084822
1085072
1085320
1085426
1085772
1086022
1086272
1086516
1086758
1086990
1087232
1087474
1087720
1087968
1088218
1088458
1088718
1088990
1089262
1089540
1089812
1090078
1090344
1090614
1090874
1091120
1091376
1091640
1091896
1092148
1092390
1092640
1092896
1093148
1093390
1093638
1093890
1094140
1094388
1094628
1094874
1095124
1095370
1095620
1095864
1096096
1096344
1096590
1096828
1097070
1097306
1097546
1097780
1098016
1098244
1098462
1098682
1098894
1099116
1099336
1099562
1099802
1100048
1100276
1100516
1100764
1101004
1101234
1101458
1101680
1101908
1102122
1102346
1102566
1102788
1103006
1103216
1103430
1103654
1103878
1104110
1104354
1104598
1104842
1105080
1105322
1105564
1105804
1106052
1106296
1106538
1106778
1107020
1107260
1107500
1107730
1107966
1108192
1108414
1108642
1108862
1109078
1109298
1109532
1109762
1109986
1110208
1110438
1110660
1110882
1111106
1111326
1111550
1111774
1111998
1112220
1112438
1112668
1112902
1113130
1113354
1113574
1113794
1114012
1114216
1114432
1114666
1114888
1115100
1115330
1115568
1115816
1116056
1116284
1116520
1116758
1116998
1117236
1117484
1117730
1117976
1118232
1118486
1118736
1118974
1119218
1119456
1119698
1119948
1120196
1120444
1120694
1120944
1121186
1121442
1121720
1121984
1122240
1122480
1122722
1122976
1123232
1123484
1123722
1123972
1124226
1124478
1124718
1124956
1125172
1125402
1125642
1125882
1126126
1126372
1126618
1126864
1127122
1127374
1127628
1127876
1128124
1128380
1128624
1128864
1129118
1129374
1129624
1129866
1130120
1130382
1130654
1130912
1131168
1131420
1131666
1131920
1132172
1132418
1132660
1132914
1133166
1133416
1133660
1133912
1134170
1134432
1134678
1134934
1135184
1135438
1135690
1135946
1136180
1136432
1136688
1136948
1137202
1137442
1137696
1137946
1138188
1138446
1138702
1138948
1139198
1139452
1139704
1139954
1140208
1140464
1140718
1140988
1141250
1141508
1141788
1142052
1142298
1142550
1142784
1143004
1143226
1143466
1143712
1143958
1144228
1144492
1144748
1145018
1145288
1145554
1145812
1146064
1146326
1146588
1146860
1147136
1147408
1147674
1147922
1148194
1148454
1148704
1148950
1149206
1149464
1149716
1149972
1150226
1150466
1150712
1150966
1151220
1151478
1151738
1152000
1152252
1152510
1152772
1153028
1153278
1153530
1153768
1154018
1154274
1154528
1154780
1155024
1155268
1155508
1155756
1156000
1156230
1156446
1156668
1156912
1157166
1157412
1157648
1157902
1158156
1158400
1158636
1158886
1159146
1159396
1159648
1159906
1160158
1160404
1160662
1160920
1161182
1161438
1161712
1161982
1162242
1162488
1162748
1163006
1163258
1163500
1163754
1164012
1164256
1164500
1164754
1164986
1165230
1165478
1165728
1165974
1166226
1166464
1166706
1166952
1167200
1167440
1167680
1167918
1168162
1168404
1168642
1168892
1169142
1169396
1169648
1169900
1170158
1170408
1170658
1170908
1171156
1171408
1171654
1171898
1172140
1172380
1172628
1172872
1173124
1173370
1173626
1173886
1174136
1174368
1174618
1174864
1175096
1175316
1175548
1175800
1176062
1176320
1176564
1176828
1177104
1177376
1177650
1177912
1178164
1178420
1178684
1178944
1179200
1179462
1179720
1179974
1180230
1180482
1180730
1180972
1181222
1181468
1181714
1181954
1182198
1182446
1182692
1182936
1183198
1183456
1183706
1183962
1184218
1184484
1184738
1184998
1185252
1185494
1185760
1186032
1186296
1186562
1186834
1187098
1187356
1187616
1187870
1188124
1188382
1188636
1188886
1189136
1189380
1189616
1189870
1190120
1190368
1190600
1190850
1191096
1191338
1191574
1191820
1192076
1192328
1192572
1192826
1193084
1193340
1193592
1193848
1194102
1194354
1194592
1194844
1195096
1195342
1195588
1195836
1196076
1196308
1196536
1196750
1196966
1197192
1197410
1197656
1197916
1198170
1198410
1198660
1198914
1199186
1199444
1199706
1199966
1200216
1200476
1200722
1200972
1201226
1201482
1201734
1201986
1202240
1202496
1202746
1203000
1203250
1203498
1203748
1203990
1204238
1204486
1204734
1204978
1205228
1205474
1205710
1205962
1206206
1206442
1206692
1206942
1207184
1207436
1207690
1207942
1208198
1208462
1208720
1208970
1209236
1209496
1209760
1210018
1210274
1210530
1210772
1211036
1211298
1211550
1211790
1212042
1212294
1212542
1212786
1213044
1213292
1213532
1213780
1214024
1214264
1214516
1214764
1215012
1215248
1215500
1215752
1216000
1216250
1216506
1216758
1217006
1217250
1217490
1217722
1217950
1218194
1218422
1218638
1218856
1219084
1219316
1219548
1219782
1220024
1220272
1220516
1220752
1220986
1221222
1221450
1221684
1221918
1222152
1222390
1222624
1222848
1223086
1223338
1223580
1223818
1224060
1224294
1224526
1224770
1225018
1225258
1225502
1225756
1226002
1226250
1226496
1226742
1226974
1227214
1227456
1227700
1227958
1228214
1228464
1228726
1228980
1229228
1229480
1229734
1229978
1230228
1230482
1230730
1230980
1231238
1231486
1231732
1231984
1232230
1232478
1232734
1232990
1233242
1233516
1233780
1234052
1234318
1234608
1234870
1235108
1235358
1235612
1235858
1236084
1236328
1236578
1236832
1237084
1237340
1237586
1237826
1238082
1238340
1238596
1238842
1239102
1239372
1239642
1239900
1240166
1240440
1240720
1240996
1241256
1241512
1241768
1242020
1242280
1242532
1242780
1243036
1243282
1243524
1243792
1244044
1244272
1244508
1244730
1244974
1245194
1245416
1245658
1245890
1246142
1246392
1246632
1246880
1247130
1247376
1247620
1247876
1248124
1248370
1248626
1248886
1249134
1249378
1249632
1249880
1250126
1250364
1250628
1250882
1251132
1251386
1251636
1251888
1252134
1252384
1252634
1252872
1253124
1253370
1253616
1253862
1254116
1254366
1254606
1254856
1255120
1255384
1255650
1255896
1256142
1256390
1256646
1256896
1257146
1257426
1257682
1257942
1258190
1258432
1258684
1258936
1259180
1259428
1259676
1259918
1260170
1260420
1260666
1260916
1261166
1261416
1261670
1261922
1262166
1262416
1262658
1262888
1263122
1263348
1263590
1263824
1264056
1264292
1264528
1264752
1264980
1265220
1265446
1265670
1265898
1266110
1266326
1266552
1266792
1267056
1267308
1267552
1267798
1268044
1268292
1268520
1268784
1269050
1269316
1269576
1269840
1270110
1270374
1270634
1270896
1271152
1271404
1271658
1271906
1272008
1272358
1272610
1272862
1273110
1273354
1273596
1273848
1274104
1274354
1274604
1274866
1275122
1275374
1275618
1275866
1276112
1276352
1276600
1276852
1277106
1277354
1277608
1277864
1278110
1278338
1278592
1278846
1279098
1279350
1279598
1279848
1280102
1280356
1280604
1280856
1281112
1281366
1281618
1281880
1282144
1282404
1282650
1282892
1283120
1283366
1283606
1283848
1284084
1284354
1284608
1284846
1285098
1285358
1285600
1285842
1286082
1286340
1286600
1286848
1287108
1287362
1287600
1287820
1288044
1288284
1288516
1288766
1289026
1289276
1289522
1289778
1290030
1290264
1290510
1290766
1291018
1291262
1291516
1291774
1292038
1292290
1292550
1292810
1293058
1293316
1293564
1293810
1294062
1294322
1294580
1294854
1295130
1295386
1295656
1295926
1296202
1296472
1296742
1297016
1297302
1297570
1297834
1298092
1298338
1298590
1298852
1299114
1299380
1299656
1299930
1300196
1300464
1300726
1300970
1301228
1301488
1301744
1301998
1302248
1302500
1302752
1303000
1303240
1303482
1303740
1303996
1304234
1304498
1304778
1305030
1305286
1305546
1305794
1306024
1306274
1306524
1306768
1307008
1307262
1307520
1307766
1308022
1308278
1308530
1308782
1309038
1309282
1309506
1309734
1309968
1310204
1310458
1310710
1310962
1311208
1311446
1311688
1311936
1312174
1312422
1312674
1312914
1313164
1313416
1313658
1313900
1314142
1314376
1314614
1314852
1315092
1315340
1315572
1315822
1316072
1316308
1316546
1316796
1317052
1317306
1317558
1317810
1318058
1318314
1318578
1318830
1319090
1319354
1319612
1319858
1320110
1320364
1320612
1320862
1321102
1321352
1321606
1321862
1322114
1322376
1322636
1322882
1323138
1323396
1323644
1323900
1324156
1324416
1324664
1324922
1325178
1325434
1325684
1325946
1326198
1326444
1326700
1326960
1327212
1327456
1327710
1327962
1328208
1328468
1328720
1328970
1329218
1329468
1329714
1329954
1330204
1330452
1330698
1330938
1331176
1331420
1331658
1331890
1332140
1332394
1332644
1332882
1333146
1333404
1333652
1333896
1334156
1334430
1334698
1334944
1335174
1335390
1335622
1335858
1336110
1336364
1336604
1336850
1337102
1337348
1337590
1337848
1338100
1338352
1338596
1338854
1339114
1339372
1339622
1339868
1340122
1340372
1340618
1340866
1341124
1341376
1341630
1341896
1342150
1342402
1342640
1342890
1343142
1343396
1343642
1343894
1344154
1344416
1344668
1344912
1345160
1345406
1345654
1345900
1346146
1346400
1346654
1346906
1347150
1347398
1347648
1347900
1348154
1348402
1348666
1348930
1349194
1349442
1349702
1349966
1350216
1350458
1350710
1350960
1351206
1351452
1351694
1351938
1352176
1352422
1352664
1352906
1353158
1353408
1353656
1353896
1354142
1354392
1354630
1354868
1355120
1355364
1355604
1355840
1356086
1356316
1356536
1356756
1356988
1357220
1357434
1357654
1357892
1358144
1358396
1358646
1358908
1359166
1359422
1359682
1359942
1360198
1360452
1360714
1360968
1361224
1361476
1361736
1361990
1362244
1362500
1362750
1363018
1363286
1363544
1363804
1364064
1364312
1364576
1364848
1365112
1365374
1365636
1365894
1366146
1366410
1366666
1366922
1367178
1367430
1367678
1367932
1368186
1368438
1368696
1368952
1369202
1369452
1369698
1369946
1370190
1370434
1370682
1370932
1371186
1371438
1371692
1371944
1372196
1372438
1372686
1372932
1373182
1373424
1373674
1373924
1374166
1374410
1374664
1374910
1375158
1375408
1375654
1375900
1376156
1376400
1376644
1376892
1377148
1377396
1377644
1377896
1378144
1378388
1378636
1378880
1379120
1379370
1379616
1379860
1380096
1380346
1380594
1380840
1381084
1381336
1381588
1381840
1382090
1382334
1382582
1382826
1383072
1383314
1383558
1383804
1384044
1384288
1384532
1384772
1385012
1385256
1385506
1385744
1385984
1386230
1386470
1386714
1386952
1387188
1387434
1387680
1387918
1388160
1388404
1388640
1388872
1389112
1389352
1389586
1389816
1390054
1390300
1390546
1390788
1391030
1391276
1391522
1391758
1391998
1392242
1392478
1392714
1392954
1393198
1393432
1393668
1393908
1394148
1394380
1394616
1394856
1395098
1395328
1395586
1395856
1396102
1396342
1396584
1396828
1397066
1397306
1397550
1397800
1398046
1398288
1398538
1398784
1399030
1399296
1399564
1399824
1400074
1400336
1400598
1400852
1401094
1401348
1401604
1401856
1402108
1402370
1402632
1402886
1403138
1403384
1403636
1403882
1404136
1404376
1404626
1404872
1405124
1405380
1405626
1405866
1406116
1406362
1406600
1406844
1407090
1407328
1407566
1407808
1408046
1408274
1408502
1408736
1408970
1409200
1409448
1409700
1409960
1410216
1410474
1410732
1410978
1411226
1411478
1411722
1411964
1412204
1412450
1412714
1412972
1413222
1413462
1413706
1413954
1414194
1414434
1414676
1414918
1415160
1415402
1415644
1415884
1416122
1416362
1416608
1416848
1417084
1417328
1417572
1417808
1418046
1418278
1418492
1418718
1418958
1419188
1419436
1419684
1419938
1420180
1420430
1420676
1420924
1421168
1421410
1421654
1421888
1422122
1422368
1422616
1422852
1423098
1423350
1423602
1423842
1424090
1424336
1424576
1424822
1425074
1425332
1425582
1425834
1426076
1426312
1426546
1426784
1427026
1427254
1427476
1427708
1427938
1428168
1428398
1428622
1428850
1429080
1429312
1429544
1429790
1430026
1430262
1430492
1430722
1430968
1431208
1431442
1431676
1431916
1432148
1432382
1432612
1432850
1433090
1433322
1433548
1433774
1433988
1434206
1434440
1434684
1434914
1435158
1435406
1435650
1435894
1436132
1436384
1436634
1436882
1437120
1437362
1437600
1437836
1438076
1438320
1438560
1438808
1439068
1439324
1439576
1439832
1440076
1440318
1440554
1440800
1441048
1441292
1441532
1441788
1442058
1442310
1442556
1442808
1443066
1443316
1443566
1443814
1444064
1444314
1444562
1444812
1445074
1445336
1445584
1445828
1446076
1446322
1446562
1446808
1447046
1447296
1447550
1447798
1448046
1448300
1448524
1448744
1448980
1449216
1449464
1449714
1449968
1450206
1450458
1450706
1450954
1451194
1451444
1451694
1451940
1452184
1452434
1452684
1452930
1453178
1453432
1453690
1453932
1454180
1454424
1454666
1454918
1455064
1455382
1455622
1455856
1456084
1456310
1456550
1456800
1457042
1457298
1457540
1457780
1458034
1458294
1458544
1458796
1459048
1459292
1459544
1459798
1460062
1460306
1460554
1460802
1461042
1461284
1461530
1461770
1462008
1462246
1462488
1462736
1462972
1463214
1463462
1463702
1463942
1464192
1464442
1464698
1464954
1465204
1465458
1465710
1465956
1466208
1466454
1466700
1466942
1467178
1467420
1467668
1467912
1468150
1468396
1468636
1468870
1469104
1469332
1469552
1469790
1470052
1470298
1470540
1470778
1471010
1471250
1471480
1471714
1471956
1472196
1472438
1472674
1472896
1473114
1473342
1473592
1473860
1474134
1474404
1474656
1474924
1475176
1475422
1475672
1475916
1476144
1476380
1476644
1476898
1477152
1477406
1477658
1477896
1478132
1478364
1478594
1478830
1479070
1479296
1479538
1479782
1480020
1480266
1480516
1480764
1481004
1481242
1481478
1481724
1481970
1482220
1482472
1482732
1482990
1483240
1483494
1483740
1483992
1484240
1484476
1484742
1484992
1485236
1485486
1485734
1485982
1486228
1486472
1486704
1486946
1487190
1487440
1487680
1487922
1488158
1488388
1488622
1488868
1489110
1489362
1489602
1489836
1490072
1490306
1490544
1490786
1491022
1491256
1491496
1491728
1491976
1492216
1492464
1492710
1492960
1493188
1493428
1493676
1493922
1494160
1494396
1494624
1494836
1495056
1495296
1495540
1495790
1496030
1496272
1496520
1496762
1497010
1497250
1497504
1497770
1498030
1498284
1498536
1498796
1499056
1499306
1499544
1499800
1500058
1500308
1500554
1500792
1501040
1501294
1501546
1501794
1502040
1502280
1502524
1502768
1503016
1503256
1503520
1503778
1504026
1504298
1504564
1504826
1505086
1505332
1505570
1505816
1506060
1506302
1506528
1506748
1506990
1507232
1507484
1507732
1507978
1508216
1508458
1508712
1508970
1509222
1509486
1509742
1510002
1510264
1510530
1510780
1511044
1511300
1511564
1511824
1512076
1512336
1512604
1512880
1513148
1513404
1513646
1513882
1514104
1514340
1514584
1514828
1515082
1515336
1515580
1515824
1516088
1516338
1516592
1516832
1517088
1517338
1517586
1517832
1518086
1518344
1518594
1518844
1519088
1519328
1519580
1519830
1520086
1520326
1520578
1520838
1521094
1521338
1521588
1521838
1522094
1522334
1522576
1522820
1523058
1523298
1523546
1523782
1524012
1524254
1524486
1524716
1524942
1525176
1525406
1525646
1525892
1526132
1526378
1526626
1526880
1527132
1527376
1527620
1527860
1528104
1528340
1528576
1528802
1529018
1529240
1529476
1529720
1529962
1530192
1530436
1530690
1530940
1531192
1531444
1531682
1531936
1532186
1532438
1532684
1532932
1533182
1533430
1533670
1533906
1534150
1534394
1534640
1534886
1535130
1535386
1535646
1535920
1536206
1536474
1536736
1537000
1537260
1537518
1537792
1538044
1538302
1538574
1538832
1539100
1539372
1539636
1539892
1540148
1540404
1540642
1540886
1541124
1541370
1541600
1541846
1542094
1542342
1542586
1542828
1543092
1543354
1543616
1543870
1544132
1544392
1544644
1544886
1545120
1545342
1545570
1545832
1546096
1546362
1546624
1546878
1547140
1547390
1547674
1547958
1548234
1548492
1548750
1549014
1549266
1549524
1549780
1550042
1550304
1550564
1550816
1551060
1551320
1551582
1551844
1552100
1552346
1552614
1552878
1553136
1553378
1553632
1553884
1554140
1554388
1554628
1554878
1555136
1555390
1555642
1555896
1556162
1556420
1556686
1556940
1557190
1557438
1557692
1557946
1558206
1558470
1558716
1558972
1559230
1559488
1559736
1559988
1560246
1560500
1560754
1561010
1561260
1561502
1561768
1562038
1562318
1562586
1562858
1563114
1563364
1563610
1563848
1564094
1564344
1564594
1564836
1565082
1565316
1565554
1565808
1566060
1566312
1566558
1566792
1567032
1567270
1567492
1567708
1567942
1568164
1568408
1568636
1568872
1569142
1569410
1569670
1569916
1570162
1570408
1570662
1570908
1571144
1571398
1571684
1571956
1572202
1572446
1572692
1572936
1573180
1573420
1573642
1573882
1574122
1574368
1574598
1574844
1575088
1575330
1575576
1575816
1576076
1576342
1576600
1576846
1577124
1577402
1577672
1577944
1578218
1578500
1578764
1579016
1579276
1579554
1579818
1580090
1580358
1580618
1580874
1581130
1581370
1581612
1581840
1582068
1582338
1582584
1582828
1583068
1583300
1583540
1583776
1584014
1584254
1584502
1584748
1584998
1585250
1585500
1585760
1586028
1586284
1586548
1586814
1587074
1587328
1587584
1587828
1588072
1588312
1588558
1588800
1589044
1589292
1589544
1589770
1589996
1590250
1590510
1590758
1591010
1591274
1591546
1591806
1592050
1592314
1592568
1592818
1593072
1593326
1593580
1593822
1594082
1594340
1594598
1594868
1595136
1595398
1595666
1595928
1596194
1596452
1596708
1596990
1597270
1597532
1597800
1598064
1598320
1598566
1598826
1599096
1599352
1599604
1599862
1600116
1600362
1600612
1600856
1601100
1601348
1601598
1601844
1602088
1602328
1602564
1602792
1603006
1603240
1603474
1603700
1603938
1604180
1604422
1604670
1604920
1605168
1605414
1605670
1605924
1606172
1606434
1606694
1606950
1607206
1607460
1607706
1607958
1608214
1608470
1608728
1608976
1609244
1609500
1609754
1610000
1610256
1610522
1610772
1611022
1611276
1611534
1611788
1612034
1612290
1612560
1612818
1613080
1613340
1613600
1613866
1614142
1614410
1614684
1614952
1615212
1615480
1615748
1615998
1616260
1616530
1616788
1617054
1617328
1617588
1617862
1618122
1618384
1618634
1618884
1619126
1619348
1619590
1619826
1620080
1620336
1620580
1620838
1621094
1621342
1621588
1621834
1622084
1622336
1622578
1622826
1623078
1623336
1623604
1623860
1624116
1624384
1624652
1624932
1625216
1625488
1625770
1625866
1625986
1626366
1626470
1626842
1627112
1627368
1627628
1627880
1628136
1628398
1628666
1628934
1629206
1629476
1629730
1629996
1630146
1630492
1630756
1631014
1631252
1631482
1631730
1631980
1632258
1632532
1632790
1633048
1633312
1633574
1633822
1634078
1634332
1634584
1634838
1635100
1635350
1635598
1635864
1636146
1636408
1636674
1636936
1637192
1637436
1637692
1637946
1638198
1638458
1638740
1639012
1639284
1639390
1639756
1639888
1640236
1640494
1640750
1641016
1641290
1641550
1641800
1642058
1642332
1642598
1642858
1642952
1643310
1643562
1643818
1644070
1644162
1644516
1644774
1645038
1645284
1645510
1645734
1645960
1646184
1646442
1646704
1646946
1647192
1647448
1647722
1647992
1648236
1648484
1648712
1648938
1649188
1649426
1649670
1649922
1650166
1650410
1650656
1650896
1651138
1651392
1651646
1651890
1652126
1652380
1652636
1652884
1653142
1653396
1653654
1653898
1654150
1654400
1654654
1654908
1655174
1655430
1655678
1655922
1656174
1656424
1656672
1656920
1657170
1657410
1657670
1657922
1658172
1658410
1658662
1658918
1659172
1659424
1659670
1659924
1660176
1660422
1660672
1660924
1661162
1661408
1661676
1661940
1662192
1662446
1662680
1662916
1663160
1663398
1663630
1663872
1664114
1664366
1664616
1664866
1665114
1665354
1665580
1665800
1666046
1666280
1666520
1666768
1667010
1667240
1667480
1667718
1667958
1668186
1668420
1668660
1668890
1669134
1669376
1669620
1669858
1670108
1670356
1670594
1670836
1671084
1671340
1671596
1671834
1672076
1672320
1672570
1672826
1673068
1673312
1673556
1673796
1674026
1674280
1674524
1674768
1675020
1675266
1675506
1675740
1675992
1676244
1676492
1676744
1676990
1677232
1677476
1677718
1677960
1678198
1678438
1678676
1678912
1679154
1679398
1679642
1679882
1680126
1680364
1680598
1680840
1681078
1681316
1681556
1681788
1682006
1682224
1682462
1682712
1682960
1683202
1683446
1683684
1683930
1684178
1684424
1684682
1684944
1685206
1685454
1685700
1685952
1686208
1686474
1686724
1686966
1687222
1687464
1687702
1687940
1688190
1688444
1688684
1688920
1689170
1689406
1689630
1689862
1690096
1690328
1690556
1690782
1691004
1691220
1691458
1691702
1691934
1692164
1692404
1692628
1692854
1693082
1693320
1693558
1693800
1694036
1694274
1694512
1694742
1694976
1695212
1695448
1695686
1695922
1696154
1696384
1696600
1696818
1697032
1697246
1697452
1697652
1697860
1698072
1698284
1698506
1698728
1698954
1699178
1699404
1699630
1699856
1700086
1700304
1700526
1700754
1700988
1701218
1701444
1701678
1701922
1702158
1702388
1702628
1702860
1703092
1703332
1703560
1703788
1704012
1704244
1704478
1704712
1704946
1705176
1705414
1705654
1705892
1706122
1706354
1706578
1706796
1707018
1707250
1707486
1707718
1707946
1708182
1708422
1708650
1708882
1709120
1709360
1709590
1709824
1710062
1710302
1710536
1710776
1711010
1711236
1711466
1711712
1711952
1712182
1712418
1712654
1712890
1713114
1713348
1713590
1713828
1714060
1714286
1714520
1714762
1715000
1715234
1715470
1715714
1715950
1716184
1716418
1716644
1716874
1717114
1717346
1717586
1717834
1718078
1718320
1718560
1718798
1719026
1719260
1719502
1719738
1719972
1720212
1720458
1720692
1720934
1721188
1721428
1721668
1721904
1722122
1722330
1722552
1722760
1722980
1723222
1723468
1723708
1723938
1724176
1724428
1724680
1724928
1725178
1725436
1725682
1725928
1726174
1726414
1726652
1726910
1727158
1727400
1727646
1727900
1728156
1728400
1728658
1728906
1729154
1729400
1729658
1729902
1730140
1730386
1730632
1730878
1731122
1731380
1731626
1731878
1732140
1732402
1732660
1732904
1733138
1733376
1733616
1733868
1734122
1734366
1734614
1734878
1735142
1735394
1735652
1735896
1736130
1736370
1736614
1736856
1737094
1737336
1737584
1737822
1738052
1738294
1738538
1738770
1739002
1739240
1739476
1739714
1739944
1740180
1740280
1740644
1740890
1741128
1741354
1741572
1741776
1741988
1742216
1742448
1742702
1742960
1743204
1743456
1743714
1743968
1744210
1744456
1744702
1744934
1745156
1745406
1745650
1745902
1746142
1746384
1746644
1746898
1747148
1747410
1747680
1747944
1748194
1748448
1748710
1748960
1749204
1749456
1749710
1749954
1750190
1750442
1750694
1750936
1751182
1751436
1751692
1751948
1752206
1752450
1752700
1752952
1753194
1753444
1753696
1753958
1754204
1754464
1754718
1754976
1755248
1755522
1755778
1756032
1756308
1756576
1756842
1757094
1757358
1757614
1757872
1758112
1758346
1758568
1758786
1759034
1759286
1759554
1759820
1760072
1760324
1760580
1760830
1761068
1761320
1761580
1761840
1762086
1762340
1762588
1762836
1763084
1763342
1763588
1763834
1764088
1764346
1764620
1764878
1765148
1765420
1765684
1765960
1766234
1766492
1766750
1767002
1767252
1767518
1767788
1768044
1768290
1768548
1768800
1769050
1769294
1769558
1769816
1770076
1770328
1770586
1770848
1771102
1771370
1771634
1771892
1772150
1772400
1772646
1772898
1773156
1773410
1773666
1773916
1774170
1774434
1774688
1774932
1775196
1775458
1775724
1775986
1776248
1776502
1776754
1777010
1777266
1777516
1777764
1778024
1778282
1778530
1778776
1779020
1779274
1779506
1779764
1780024
1780278
1780520
1780778
1781040
1781304
1781566
1781822
1782074
1782336
1782594
1782856
1783114
1783364
1783616
1783846
1784084
1784324
1784560
1784822
1785068
1785322
1785584
1785822
1786048
1786290
1786550
1786804
1787050
1787296
1787534
1787778
1788000
1788250
1788512
1788768
1789022
1789282
1789544
1789806
1790068
1790332
1790598
1790844
1791100
1791362
1791620
1791876
1792138
1792404
1792668
1792926
1793178
1793438
1793698
1793954
1794224
1794486
1794754
1795014
1795280
1795536
1795798
1796058
1796318
1796578
1796836
1797096
1797362
1797630
1797888
1798148
1798400
1798648
1798906
1799160
1799410
1799650
1799902
