peaks
103
346
592
834
1078
1328
1574
1822
2068
2308
2556
2786
3024
3260
3494
3730
3966
4206
4450
4692
4938
5182
5420
5660
5896
6132
6376
6606
6842
7082
7314
7556
7796
8038
8278
8524
8762
9004
9242
9478
9724
9960
10200
10440
10680
10918
11158
11392
11636
11870
12110
12356
12598
12838
13084
13336
13576
13830
14080
14332
14582
14826
15078
15320
15570
15822
16070
16326
16574
16828
17070
17316
17564
17810
18050
18288
18522
18758
19004
19246
19492
19736
19976
20226
20464
20706
20950
21180
21408
21634
21870
22108
22354
22596
22848
23098
23346
23590
23828
24076
24312
24554
24794
25028
25264
25502
25736
25982
26214
26454
26694
26934
27170
27412
27662
27904
28156
28412
28666
28918
29176
29418
29674
29922
30174
30416
30658
30910
31154
31408
31664
31914
32162
32410
32654
32900
33150
33392
33640
33886
34130
34386
34626
34872
35124
35368
35614
35856
36098
36352
36598
36844
37096
37342
37586
37840
38078
38326
38574
38814
39056
39298
39538
39790
40036
40286
40536
40778
41018
41260
41500
41744
41984
42232
42484
42740
42990
43244
43502
43738
43986
44226
44466
44706
44950
45200
45442
45688
45938
46188
46432
46682
46938
47180
47434
47684
47932
48184
48432
48688
48932
49178
49424
49666
49902
50140
50380
50626
50868
51118
51368
51620
51874
52124
52382
52624
52874
53124
53364
53602
53832
54058
54284
54514
54740
54970
55200
55430
55660
55894
56138
56374
56612
56858
57100
57342
57594
57836
58082
58336
58582
58826
59074
59324
59566
59818
60068
60318
60564
60808
61062
61300
61542
61784
62022
62258
62498
62742
62978
63222
63468
63712
63958
64204
64446
64702
64946
65198
65458
65712
65968
66232
66482
66742
67004
67254
67508
67758
68012
68258
68510
68760
69008
69252
69498
69752
69986
70234
70476
70718
70962
71206
71456
71702
71948
72200
72446
72688
72932
73172
73410
73654
73896
74146
74394
74630
74880
75120
75366
75616
75862
76104
76346
76592
76830
77070
77306
77546
77782
78026
78272
78516
78766
79014
79256
79498
79734
79976
80210
80444
80676
80910
81138
81374
81606
81840
82074
82310
82542
82776
83008
83242
83484
83716
83958
84200
84318
84660
84898
85130
85370
85600
85838
86078
86318
86558
86804
87054
87298
87548
87788
88024
88262
88498
88744
88982
89228
89480
89732
89990
90234
90490
90748
91008
91260
91512
91766
92010
92262
92512
92758
93008
93256
93500
93750
93996
94242
94488
94730
94976
95222
95468
95718
95968
96212
96466
96706
96946
97188
97432
97668
97912
98158
98396
98642
98888
99126
99368
99606
99848
100086
100328
100572
100816
101056
101306
101548
101800
102054
102302
102554
102806
103046
103298
103544
103788
104030
104278
104516
104764
105010
105264
105520
105778
106026
106286
106536
106792
107046
107300
107552
107806
108062
108318
108570
108826
109072
109320
109572
109822
110064
110308
110544
110780
111018
111260
111496
111732
111966
112206
112440
112680
112924
113168
113408
113656
113912
114162
114420
114666
114910
115146
115380
115620
115848
116078
116312
116544
116782
117020
117266
117506
117750
117990
118232
118472
118706
118952
119188
119432
119674
119918
120162
120404
120654
120894
121138
121386
121628
121872
122114
122358
122594
122836
123072
123314
123546
123782
124030
124262
124502
124742
124984
125226
125462
125694
125924
126162
126402
126636
126874
127114
127362
127602
127854
128102
128362
128620
128886
129144
129406
129666
129920
130168
130426
130670
130916
131166
131414
131662
131910
132162
132412
132666
132918
133168
133416
133662
133918
134160
134412
134664
134910
135156
135396
135642
135880
136124
136368
136618
136860
137118
137366
137620
137876
138124
138372
138622
138874
139112
139356
139594
139834
140074
140318
140574
140824
141072
141324
141570
141816
142060
142306
142550
142794
143040
143286
143534
143780
144040
144280
144530
144780
145026
145274
145520
145772
146020
146276
146524
146776
147020
147264
147516
147754
148004
148256
148506
148760
149014
149270
149524
149782
150030
150280
150526
150768
151020
151260
151502
151746
151988
152232
152478
152720
152962
153208
153450
153688
153926
154160
154386
154614
154834
155054
155272
155492
155714
155942
156172
156418
156654
156898
157146
157398
157646
157910
158158
158416
158676
158926
159178
159428
159674
159932
160186
160436
160690
160944
161204
161454
161704
161946
162186
162422
162658
162900
163132
163374
163620
163866
164114
164372
164614
164864
165114
165352
165596
165842
166076
166316
166556
166794
167036
167274
167508
167750
167992
168236
168478
168718
168968
169208
169454
169706
169956
170206
170466
170714
170972
171232
171484
171740
171990
172236
172492
172744
172996
173246
173492
173746
173988
174234
174482
174726
174966
175218
175458
175710
175964
176214
176466
176716
176964
177210
177456
177702
177948
178190
178434
178686
178922
179172
179420
179666
179914
180164
180406
180650
180892
181132
181370
181608
181850
182084
182326
182564
182806
183046
183286
183536
183778
184024
184276
184520
184764
185010
185252
185492
185728
185960
186190
186424
186658
186888
187124
187360
187598
187838
188074
188324
188564
188806
189052
189172
189510
189752
189986
190222
190454
190692
190930
191172
191410
191644
191892
192126
192368
192608
192848
193086
193330
193580
193818
194062
194306
194546
194784
195020
195260
195494
195730
195962
196174
196422
196650
196868
197084
197296
197504
197696
197884
198068
198250
198432
198612
198798
198988
199188
199394
199610
199844
200090
200334
200590
200870
201120
201386
201652
201896
202156
202416
202676
202942
203216
203476
203748
204014
204276
204536
204798
205048
205304
205552
205804
206048
206302
206548
206796
207050
207300
207546
207798
208058
208302
208562
208818
209070
209322
209564
209810
210048
210286
210532
210776
211026
211278
211540
211792
212046
212300
212548
212796
213042
213288
213530
213776
214016
214262
214510
214766
215020
215274
215530
215776
216024
216270
216504
216746
216988
217226
217470
217708
217950
218190
218432
218678
218924
219170
219426
219676
219932
220194
220448
220702
220952
221202
221450
221700
221950
222198
222440
222686
222928
223170
223416
223654
223896
224134
224368
224606
224852
225088
225336
225578
225820
226062
226308
226564
226806
227060
227312
227560
227810
228058
228308
228554
228804
229056
229306
229556
229806
230058
230302
230554
230802
231052
231302
231548
231804
232050
232304
232560
232808
233058
233304
233554
233796
234042
234288
234532
234774
235018
235268
235504
235752
235990
236238
236480
236720
236964
237200
237438
237684
237926
238174
238418
238668
238906
239148
239386
239624
239860
240096
240342
240576
240828
241080
241334
241580
241830
242072
242320
242560
242802
243044
243288
243538
243778
244030
244282
244528
244776
245030
245270
245522
245770
246026
246274
246524
246780
247028
247280
247534
247780
248032
248278
248510
248752
248990
249230
249474
249718
249962
250204
250448
250686
250926
251160
251396
251638
251870
252108
252348
252582
252818
253052
253298
253534
253776
254020
254262
254506
254754
255000
255246
255496
255748
255998
256242
256486
256734
256972
257212
257456
257696
257938
258180
258426
258666
258912
259152
259392
259628
259862
260104
260334
260566
260806
261040
261278
261518
261764
262006
262256
262498
262738
262978
263214
263466
263704
263952
264204
264450
264698
264948
265198
265446
265700
265946
266188
266424
266656
266882
267108
267326
267542
267756
267964
268168
268352
268541
268724
268900
269078
269254
269430
269602
269774
269948
270118
270290
270462
270636
270810
270986
271172
271358
271544
271732
271922
272116
272312
272510
272714
272932
273150
273376
273608
273844
274082
274320
274562
274808
275038
275276
275510
275734
275956
276172
276388
276596
276802
276998
277180
277362
277538
277716
277894
278070
278252
278430
278616
278804
278990
279174
279354
279534
279710
279886
280064
280238
280410
280584
280752
280922
281090
281260
281438
281618
281802
281990
282184
282384
282598
282822
283044
283260
283476
283692
283902
284114
284338
284558
284776
284996
285224
285452
285686
285932
286172
286412
286644
286872
287100
287324
287550
287766
287988
288208
288426
288646
288868
289088
289320
289536
289762
290000
290220
290442
290676
290894
291116
291346
291574
291808
292030
292256
292478
292706
292926
293140
293358
293580
293796
294016
294236
294358
294668
294888
295100
295314
295522
295744
295956
296170
296388
296608
296838
297060
297298
297524
297758
298004
298230
298468
298712
298952
299182
299430
299658
299896
300140
300374
300612
300868
301110
301352
301600
301830
302054
302278
302492
302704
302902
303098
303298
303498
303696
303904
304116
304328
304558
304794
305020
305252
305494
305722
305954
306188
306424
306656
306886
307126
307350
307580
307818
308046
308286
308538
308776
309020
309258
309494
309726
309948
310168
310390
310608
310818
311028
311234
311428
311606
311784
311966
312152
312346
312536
312726
312926
313136
313356
313572
313794
314012
314230
314450
314670
314884
315102
315320
315536
315750
315970
316188
316406
316628
316860
317082
317308
317534
317760
317986
318210
318446
318666
318890
319118
319346
319568
319798
320018
320242
320478
320716
320942
321180
321416
321648
321890
322116
322344
322586
322810
323034
323260
323484
323710
323944
324174
324418
324648
324886
325126
325362
325606
325838
326078
326312
326552
326800
327034
327276
327522
327760
328004
328258
328500
328742
328976
329214
329442
329666
329892
330112
330324
330524
330710
330894
331080
331272
331478
331684
331882
332080
332290
332506
332716
332932
333154
333370
333590
333812
334026
334242
334456
334662
334870
335082
335292
335504
335724
335950
336170
336398
336630
336856
337082
337308
337540
337762
337990
338218
338450
338682
338910
339150
339370
339594
339822
340050
340270
340494
340718
340942
341178
341406
341638
341876
342110
342348
342570
342802
343036
343266
343488
343714
343940
344176
344412
344642
344880
345122
345354
345594
345826
346062
346292
346530
346764
347002
347234
347470
347714
347942
348172
348408
348632
348862
349088
349312
349548
349772
350002
350238
350466
350704
350938
351172
351390
351612
351828
352032
352232
352442
352642
352852
353070
353286
353500
353720
353944
354158
354380
354602
354822
355046
355272
355496
355726
355956
356184
356414
356640
356866
357090
357310
357532
357760
357978
358202
358430
358658
358890
359128
359374
359608
359854
360092
360332
360570
360810
361040
361276
361506
361742
361972
362200
362438
362668
362892
363120
363346
363568
363794
364020
364252
364486
364718
364958
365198
365434
365680
365916
366148
366386
366614
366850
367082
367320
367554
367792
368036
368278
368512
368756
368992
369228
369470
369704
369934
370172
370400
370632
370874
371110
371346
371586
371812
372038
372266
372488
372708
372930
373146
373368
373586
373806
374024
374244
374460
374678
374898
375122
375340
375566
375788
376006
376224
376446
376646
376844
377046
377252
377452
377666
377888
378102
378326
378558
378784
379016
379250
379482
379722
379958
380200
380444
380682
380924
381162
381398
381634
381874
382110
382350
382590
382830
383068
383308
383542
383778
384008
384242
384468
384692
384928
385148
385380
385612
385842
386074
386310
386548
386776
387010
387242
387468
387700
387930
388162
388400
388626
388862
389098
389328
389564
389794
390032
390266
390502
390744
390986
391232
391466
391708
391954
392198
392440
392682
392920
393162
393396
393634
393886
394124
394362
394602
394850
395082
395320
395558
395786
396024
396262
396490
396724
396950
397174
397398
397614
397824
398014
398198
398380
398558
398740
398922
399108
399296
399486
399680
399884
400094
400300
400516
400744
400964
401180
401416
401636
401860
402086
402316
402548
402776
403008
403260
403500
403746
403998
404248
404488
404734
404968
405202
405442
405686
405922
406168
406420
406650
406888
407120
407340
407550
407764
407984
408200
408408
408614
408824
409034
409252
409486
409722
409964
410198
410438
410682
410922
411164
411404
411650
411886
412130
412370
412616
412858
413104
413338
413578
413814
414046
414278
414506
414744
414978
415210
415450
415686
415924
416162
416392
416636
416866
417104
417342
417580
417820
418064
418308
418550
418796
419038
419278
419512
419750
419992
420218
420458
420694
420930
421172
421406
421650
421894
422138
422372
422610
422838
423066
423292
423514
423740
423962
424190
424420
424648
424884
425112
425346
425576
425804
426046
426276
426512
426752
426992
427230
427470
427716
427950
428192
428430
428672
428916
429160
429402
429644
429890
430142
430390
430634
430882
431132
431370
431614
431854
432094
432338
432580
432834
433068
433310
433552
433792
434030
434266
434498
434736
434970
435204
435440
435654
435908
436148
436386
436620
436856
437088
437324
437556
437794
438042
438274
438526
438772
439020
439256
439486
439718
439944
440180
440410
440644
440880
441116
441362
441600
441842
442090
442328
442570
442810
443056
443292
443532
443772
444012
444246
444484
444732
444968
445218
445464
445706
445948
446184
446432
446664
446894
447130
447358
447578
447796
448016
448228
448440
448642
448844
449052
449262
449468
449678
449888
450092
450306
450510
450712
450904
451088
451266
451442
451614
451784
451950
452116
452278
452442
452606
452770
452934
453100
453264
453430
453602
453772
453948
454138
454332
454534
454732
454938
455144
455356
455556
455766
455984
456194
456408
456634
456874
457098
457332
457570
457804
458036
458264
458500
458728
458962
459212
459448
459694
459948
460194
460452
460714
460964
461220
461462
461714
461968
462210
462468
462714
462952
463204
463446
463674
463910
464144
464372
464616
464854
465096
465342
465604
465842
466098
466358
466592
466830
467066
467292
467510
467722
467910
468094
468276
468454
468632
468810
468984
469158
469338
469512
469692
469882
470074
470262
470444
470622
470800
470984
471186
471374
471560
471744
471926
472106
472288
472472
472656
472844
473030
473220
473406
473592
473778
473964
474148
474330
474510
474698
474876
475056
475242
475430
475608
475794
475976
476166
476344
476522
476702
476882
477056
477234
477412
477594
477776
477950
478126
478302
478478
478656
478834
479014
479202
479402
479606
479806
480028
480252
480476
480692
480914
481126
481348
481564
481774
481984
482196
482410
482618
482834
483050
483266
483476
483696
483820
484122
484330
484544
484754
484970
485180
485392
485600
485798
486006
486210
486412
486602
486790
486974
487166
487362
487556
487748
487948
488150
488346
488554
488766
488978
489188
489400
489612
489818
490032
490242
490454
490668
490902
491124
491352
491588
491828
492066
492314
492558
492796
493040
493282
493518
493760
493998
494226
494458
494686
494904
495130
495352
495568
495786
496002
496214
496426
496626
496826
497026
497220
497422
497636
497836
498042
498254
498454
498666
498874
499074
499290
499492
499688
499896
500110
500316
500526
500746
500972
501186
501404
501626
501840
502046
502254
502464
502672
502868
503066
503276
503486
503688
503892
504102
504312
504522
504716
504924
505130
505334
505526
505712
505914
506112
506312
506494
506674
506862
507048
507242
507456
507676
507902
508126
508342
508566
508792
509018
509246
509476
509702
509934
510166
510398
510630
510864
511098
511330
511566
511802
512034
512272
512510
512742
512978
513222
513454
513692
513930
514160
514392
514626
514848
515080
515312
515538
515768
515998
516218
516440
516664
516884
517104
517330
517552
517774
518000
518224
518452
518684
518920
519164
519406
519644
519882
520118
520350
520586
520822
521054
521288
521526
521760
522000
522232
522466
522702
522930
523168
523410
523644
523886
524124
524362
524602
524838
525078
525318
525552
525792
526032
526268
526504
526742
526972
527208
527446
527676
527910
528144
528364
528590
528814
529032
529256
529478
529698
529926
530150
530386
530628
530868
531114
531362
531602
531844
532082
532318
532562
532804
533046
533292
533538
533776
534018
534254
534494
534734
534968
535208
535446
535676
535914
536152
536386
536630
536870
537100
537336
537568
537794
538026
538260
538490
538734
538974
539214
539458
539704
539940
540182
540416
540648
540886
541124
541358
541600
541834
542078
542328
542572
542820
543072
543314
543560
543806
544046
544292
544538
544780
545022
545258
545496
545734
545962
546194
546420
546638
546862
547086
547304
547528
547750
547974
548200
548422
548646
548866
549078
549288
549502
549704
549898
550086
550274
550458
550646
550838
551028
551226
551430
551636
551840
552054
552260
552468
552680
552892
553102
553320
553528
553740
553954
554158
554370
554576
554772
554962
555146
555334
555522
555730
555958
556176
556394
556616
556830
557046
557270
557494
557716
557942
558170
558392
558622
558856
559088
559328
559560
559786
560016
560232
560452
560664
560866
561044
561220
561392
561568
561748
561930
562128
562330
562520
562730
562934
563138
563356
563570
563776
564000
564216
564422
564640
564846
565058
565270
565474
565680
565896
566106
566310
566530
566744
566954
567170
567386
567596
567804
568016
568222
568436
568648
568860
569072
569290
569506
569718
569932
570146
570354
570566
570780
570984
571196
571400
571598
571808
572014
572218
572430
572646
572840
573018
573192
573366
573534
573708
573878
574048
574216
574384
574550
574716
574882
575044
575204
575366
575524
575684
575844
576000
576156
576312
576466
576624
576788
576958
577132
577308
577486
577662
577838
578022
578220
578410
578600
578782
578980
579186
579410
579622
579836
580042
580238
580438
580642
580856
581064
581274
581488
581702
581922
582150
582378
582600
582818
583022
583220
583424
583630
583824
584008
584190
584368
584540
584710
584878
585050
585226
585402
585596
585786
585976
586164
586348
586568
586794
587008
587216
587418
587606
587790
587976
588172
588372
588572
588770
588974
589176
589380
589582
589776
589966
590152
590334
590518
590702
590882
591062
591238
591412
591586
591752
591918
592082
592244
592404
592566
592728
592898
593078
593262
593476
593680
593886
594092
594306
594540
594758
594976
595198
595414
595632
595848
596064
596280
596490
596704
596918
597134
597352
597570
597786
598008
598236
598456
598678
598900
599116
599332
599544
599758
599970
600184
600396
600612
600828
601040
601256
601470
601682
601896
602110
602320
602532
602734
602930
603118
603306
603490
603670
603848
604024
604196
604370
604544
604718
604898
605078
605262
605442
605622
605806
606000
606202
606410
606624
606838
607056
607280
607502
607720
607938
608156
608370
608584
608796
609012
609226
609440
609652
609860
610074
610290
610508
610724
610942
611158
611364
611576
611794
612004
612218
612438
612654
612868
613084
613292
613506
613718
613926
614140
614350
614564
614776
614978
615186
615394
615598
615812
616024
616234
616454
616664
616878
617084
617284
617486
617688
617892
618102
618304
618516
618726
618926
619138
619342
619546
619754
619950
620156
620356
620556
620764
620970
621180
621396
621604
621820
622036
622248
622470
622682
622896
623110
623318
623528
623742
623944
624148
624354
624552
624764
624986
625204
625418
625630
625830
626042
626240
626436
626640
626832
627022
627210
627392
627568
627746
627922
628096
628230
628446
628624
628802
628978
629152
629326
629498
629670
629838
630006
630176
630344
630508
630676
630844
631024
631214
631414
631622
631828
632038
632248
632450
632654
632868
633090
633310
633532
633746
633956
634160
634370
634578
634784
634988
635188
635388
635588
635788
635984
636184
636380
636564
636752
636948
637158
637390
637622
637846
638066
638278
638486
638688
638884
639076
639272
639468
639664
639866
640066
640264
640462
640658
640856
641056
641262
641468
641682
641900
642114
642324
642540
642756
642964
643174
643380
643580
643774
643982
644188
644390
644600
644818
645036
645262
645486
645704
645932
646158
646380
646602
646822
647040
647262
647492
647712
647944
648174
648408
648644
648874
649104
649338
649560
649784
650008
650222
650440
650652
650868
651080
651294
651512
651726
651946
652160
652372
652582
652788
652976
653158
653344
653540
653742
653944
654156
654382
654600
654822
655044
655270
655488
655712
655930
656152
656376
656598
656826
657056
657280
657510
657744
657976
658212
658446
658678
658920
659152
659390
659634
659872
660104
660342
660578
660810
661046
661278
661504
661734
661956
662178
662400
662616
662834
663052
663268
663490
663710
663930
664152
664374
664594
664814
665028
665242
665454
665664
665878
666090
666304
666522
666738
666954
667172
667384
667604
667822
668038
668254
668468
668676
668892
669110
669318
669536
669748
669958
670174
670392
670598
670812
671026
671232
671446
671662
671870
672094
672318
672540
672770
672990
673212
673432
673644
673860
674080
674294
674522
674748
674968
675198
675428
675658
675894
676122
676354
676584
676808
677036
677266
677486
677716
677944
678164
678388
678608
678822
679040
679252
679468
679680
679890
680102
680292
680474
680654
680836
681030
681236
681434
681642
681856
682060
682274
682496
682710
682932
683150
683354
683562
683772
683964
684154
684334
684506
684686
684864
685040
685214
685386
685556
685722
685890
686056
686220
686382
686542
686702
686862
687024
687186
687350
687516
687688
687862
688048
688246
688472
688686
688904
689126
689348
689570
689806
690026
690256
690472
690684
690872
691050
691224
691402
691576
691748
691922
692096
692268
692438
692606
692776
692962
693140
693320
693504
693686
693878
694062
694240
694416
694582
694768
694938
695110
695286
695462
695640
695824
696004
696178
696404
696618
696838
697042
697254
697452
697648
697842
698056
698270
698474
698680
698880
699080
699294
699500
699688
699874
700058
700236
700410
700594
700768
700956
701128
701296
701474
701642
701814
701980
702156
702328
702508
702678
702846
703014
703180
703350
703522
703702
703872
704044
704212
704378
704546
704710
704872
705030
705202
705358
705518
705678
705834
705992
706154
706314
706474
706648
706812
706980
707158
707336
707508
707688
707860
708044
708226
708412
708594
708762
708932
709106
709282
709450
709620
709794
709968
710146
710326
710508
710680
710860
711026
711194
711356
711518
711682
711842
712004
712168
712332
712502
712682
712866
713052
713240
713424
713602
713778
713958
714134
714306
714474
714652
714818
714984
715150
715314
715482
715648
715830
716010
716184
716364
716546
716722
716898
717088
717278
717466
717654
717842
718026
718210
718384
718556
718730
718904
719082
719252
719422
719596
719780
719952
720134
720324
720512
720696
720892
721082
721270
721470
721672
721870
722066
722248
722426
722612
722792
722982
723170
723356
723544
723730
723910
724094
724278
724456
724640
724830
725016
725210
725404
725588
725790
725982
726192
726400
726600
726802
727000
727192
727390
727586
727766
727932
728100
728272
728460
728736
728968
729194
729420
729638
729848
730056
730260
730458
730652
730836
731034
731244
731450
731662
731884
732092
732310
732518
732738
732950
733164
733394
733612
733822
734052
734266
734484
734708
734914
735120
735314
735496
735676
735866
736048
736236
736432
736628
736826
737026
737224
737426
737618
737812
738016
738216
738414
738618
738822
739022
739236
739440
739644
739846
740044
740242
740442
740638
740836
741034
741222
741420
741614
741804
742006
742214
742422
742626
742832
743038
743236
743444
743646
743840
744026
744222
744414
744598
744796
744984
745168
745360
745546
745740
745934
746120
746312
746502
746688
746876
747054
747242
747426
747602
747792
747976
748154
748342
748534
748726
748918
749114
749314
749512
749708
749906
750112
750306
750510
750712
750914
751106
751304
751508
751704
751912
752116
752320
752522
752722
752934
753150
753368
753588
753810
754028
754242
754448
754654
754846
755032
755222
755412
755606
755804
755986
756172
756352
756534
756710
756894
757070
757256
757450
757648
757852
758064
758272
758480
758686
758886
759090
759294
759496
759690
759890
760094
760314
760538
760760
760982
761206
761420
761636
761846
762052
762256
762454
762656
762842
763026
763206
763388
763564
763748
763928
764114
764298
764490
764674
764860
765056
765262
765456
765656
765864
766066
766264
766462
766654
766834
767020
767204
767386
767568
767748
767956
768170
768380
768596
768810
769020
769228
769432
769632
769816
769992
770174
770360
770544
770720
770904
771088
771258
771446
771634
771818
772010
772204
772400
772598
772798
772992
773184
773372
773550
773734
773904
774086
774264
774444
774620
774794
774994
775180
775360
775528
775694
775862
776034
776208
776378
776546
776724
776902
777070
777248
777414
777578
777756
777920
778086
778254
778436
778606
778784
778966
779134
779302
779476
779640
779808
779974
780140
780302
780462
780628
780796
780968
781138
781304
781470
781640
781818
782002
782188
782378
782574
782772
782964
783156
783338
783524
783698
783876
784048
784224
784406
784578
784754
784938
785138
785344
785546
785746
785944
786132
786326
786514
786698
786880
787062
787252
787462
787660
787850
788032
788212
788388
788564
788742
788924
789096
789270
789440
789608
789776
789954
790138
790336
790548
790754
790960
791164
791366
791554
791732
791910
792092
792294
792482
792656
792824
792988
793152
793322
793496
793688
793878
794056
794242
794422
794594
794768
794940
795108
795270
795430
795594
795758
795924
796092
796260
796436
796618
796818
796976
797202
797398
797588
797778
797970
798162
798352
798542
798734
798926
799114
799310
799506
799704
799902
800096
800284
800470
800660
800852
801050
801250
801452
801650
801838
802024
802216
802406
802594
802786
802976
803166
803352
803526
803696
803864
804030
804198
804374
804556
804742
804926
805110
805300
805494
805686
805886
806084
806278
806470
806664
806866
807072
807284
807492
807700
807906
808106
808226
808502
808722
808928
809130
809334
809538
809742
809944
810148
810348
810548
810742
810932
811118
811312
811504
811698
811906
812114
812312
812518
812720
812926
813130
813336
813540
813744
813944
814134
814332
814520
814696
814868
815040
815210
815378
815544
815714
815886
816068
816250
816428
816616
816798
816982
817156
817338
817504
817672
817836
817996
818156
818314
818470
818628
818784
818944
819104
819268
819434
819600
819772
819940
820104
820278
820446
820610
820786
820948
821112
821276
821436
821594
821756
821914
822072
822228
822384
822546
822708
822870
823034
823204
823370
823538
823704
823872
824042
824218
824394
824566
824736
824908
825076
825242
825418
825592
825768
825938
826114
826292
826468
826634
826806
826964
827124
827294
827452
827612
827776
827932
828088
828250
828410
828566
828726
828894
829050
829210
829366
829520
829674
829826
829980
830132
830280
830428
830578
830726
830874
831026
831174
831326
831480
831638
831794
831952
832112
832270
832426
832592
832746
832902
833052
833204
833358
833508
833658
833832
833996
834164
834336
834512
834682
834864
835050
835238
835426
835614
835794
835976
836166
836358
836544
836732
836920
837106
837296
837488
837676
837868
838056
838254
838446
838632
838830
839028
839238
839458
839656
839860
840062
840262
840458
840654
840848
841040
841238
841428
841618
841814
842004
842196
842394
842588
842778
842992
843204
843408
843628
843846
844046
844252
844454
844650
844858
845046
845256
845456
845660
845862
846072
846280
846482
846700
846916
847114
847328
847526
847740
847956
848172
848398
848622
848846
849058
849254
849460
849672
849870
850066
850256
850452
850648
850844
851038
851238
851436
851630
851824
852020
852212
852416
852628
852826
853032
853236
853438
853650
853856
854060
854282
854504
854724
854934
855140
855348
855546
855744
855938
856136
856324
856506
856700
856894
857088
857284
857480
857678
857884
858094
858296
858510
858728
858932
859134
859338
859534
859734
859934
860128
860324
860522
860718
860916
861116
861316
861520
861732
861930
862132
862332
862530
862728
862928
863124
863322
863524
863722
863924
864130
864330
864530
864730
864924
865118
865318
865512
865706
865908
866102
866302
866502
866700
866900
867102
867300
867500
867700
867896
868094
868292
868486
868678
868872
869066
869258
869448
869636
869806
869990
870182
870366
870554
870744
870936
871122
871310
871504
871688
871876
872072
872262
872470
872664
872864
873064
873262
873462
873662
873856
874040
874222
874408
874594
874800
875008
875214
875418
875626
875828
876028
876222
876420
876604
876782
876962
877136
877318
877496
877696
877892
878086
878284
878476
878668
878852
879030
879208
879384
879558
879732
879898
880070
880242
880414
880586
880758
880928
881100
881270
881446
881614
881790
881966
882152
882344
882524
882704
882892
883076
883252
883430
883606
883788
883984
884170
884368
884564
884760
884956
885160
885366
885566
885774
885980
886182
886392
886600
886808
887014
887226
887430
887636
887848
888058
888264
888476
888686
888888
889096
889302
889508
889718
889928
890130
890336
890546
890754
890960
891172
891382
891586
891796
892004
892206
892414
892622
892826
893036
893250
893456
893670
893886
894098
894314
894528
894738
894954
895170
895382
895602
895820
896034
896254
896474
896688
896910
897134
897352
897576
897802
898022
898240
898464
898684
898904
899128
899346
899566
899790
900012
900232
900454
900672
900892
901118
901334
901556
901780
902000
902224
902450
902672
902898
903122
903340
903562
903776
903990
904208
904422
904638
904858
905072
905294
905514
905734
905958
906180
906400
906626
906840
907062
907284
907500
907726
907946
908166
908388
908606
908826
909050
909268
909492
909712
909932
910156
910376
910600
910824
911044
911270
911490
911712
911938
912156
912382
912600
912818
913040
913256
913478
913702
913918
914144
914366
914590
914814
915034
915258
915478
915694
915918
916134
916360
916582
916804
917032
917256
917484
917708
917934
918158
918376
918596
918814
919028
919246
919460
919672
919886
920096
920308
920520
920730
920942
921156
921364
921576
921786
921982
922168
922358
922548
922732
922930
923120
923308
923498
923698
923890
924078
924282
924478
924662
924846
925046
925244
925442
925632
925824
926024
926216
926402
926590
926786
926970
927156
927354
927550
927736
927938
928130
928308
928486
928664
928842
929016
929192
929374
929566
929752
929952
930150
930338
930530
930716
930914
931096
931296
931492
931690
931872
932066
932264
932472
932684
932892
933096
933302
933510
933710
933902
934112
934320
934462
934720
934932
935136
935332
935518
935730
935942
936156
936366
936576
936794
936998
937206
937424
937638
937846
938052
938274
938500
938718
938930
939136
939316
939514
939708
939906
940124
940344
940562
940774
940992
941208
941424
941642
941858
942070
942286
942502
942716
942930
943148
943358
943580
943804
944028
944248
944474
944700
944922
945150
945376
945602
945834
946064
946294
946526
946750
946980
947206
947430
947658
947882
948104
948330
948550
948776
949004
949224
949452
949680
949904
950132
950358
950578
950804
951024
951244
951468
951688
951912
952138
952356
952584
952812
953040
953276
953510
953738
953970
954196
954422
954650
954880
955106
955338
955564
955794
956024
956248
956478
956704
956922
957144
957366
957580
957800
958018
958230
958450
958668
958884
959108
959324
959544
959764
959982
960202
960428
960648
960872
961094
961312
961536
961760
961978
962200
962422
962638
962860
963078
963296
963518
963736
963958
964182
964404
964630
964856
965082
965310
965538
965762
965990
966212
966436
966662
966886
967112
967342
967568
967802
968032
968266
968502
968732
968964
969194
969414
969642
969866
970090
970318
970540
970760
970982
971200
971410
971628
971836
972044
972256
972464
972672
972884
973080
973278
973494
973696
973906
974132
974344
974550
974762
974966
975170
975388
975592
975808
976030
976246
976466
976694
976910
977132
977350
977566
977782
977996
978210
978428
978640
978856
979076
979294
979516
979738
979966
980190
980414
980642
980866
981094
981322
981540
981764
981982
982194
982410
982630
982846
983064
983282
983496
983716
983938
984152
984372
984594
984812
985034
985256
985474
985698
985916
986136
986356
986570
986792
987012
987228
987450
987672
987890
988112
988332
988552
988774
988990
989208
989426
989640
989856
990070
990284
990500
990712
990924
991142
991358
991574
991794
992012
992228
992450
992668
992886
993106
993322
993536
993754
993964
994180
994396
994608
994826
995036
995246
995460
995672
995884
996102
996316
996530
996748
996964
997178
997396
997612
997824
998042
998256
998472
998688
998904
999128
999352
999574
999800
1000026
1000252
1000478
1000712
1000936
1001164
1001384
1001604
1001826
1002044
1002264
1002486
1002710
1002932
1003158
1003386
1003620
1003854
1004080
1004306
1004534
1004752
1004976
1005202
1005422
1005650
1005880
1006104
1006336
1006564
1006794
1007028
1007256
1007486
1007720
1007952
1008182
1008414
1008640
1008870
1009098
1009318
1009542
1009764
1009980
1010194
1010412
1010626
1010846
1011066
1011280
1011500
1011720
1011940
1012160
1012382
1012596
1012816
1013028
1013240
1013452
1013660
1013870
1014082
1014292
1014504
1014718
1014928
1015142
1015352
1015548
1015732
1015906
1016078
1016246
1016424
1016614
1016800
1017008
1017216
1017424
1017632
1017844
1018046
1018236
1018436
1018644
1018852
1019048
1019258
1019464
1019666
1019864
1020070
1020276
1020468
1020656
1020860
1021062
1021266
1021466
1021660
1021864
1022066
1022256
1022456
1022648
1022848
1023040
1023242
1023444
1023646
1023852
1024058
1024264
1024388
1024652
1024840
1025038
1025216
1025398
1025594
1025794
1025996
1026194
1026394
1026602
1026818
1027038
1027246
1027456
1027668
1027874
1028082
1028292
1028502
1028704
1028908
1029108
1029288
1029464
1029598
1029844
1030068
1030284
1030492
1030682
1030864
1031038
1031216
1031400
1031592
1031792
1032000
1032220
1032446
1032670
1032888
1033106
1033324
1033542
1033756
1033972
1034190
1034406
1034626
1034844
1035068
1035286
1035510
1035732
1035956
1036180
1036400
1036622
1036842
1037066
1037286
1037510
1037734
1037952
1038172
1038396
1038630
1038866
1039100
1039324
1039548
1039772
1039990
1040208
1040426
1040642
1040856
1041072
1041286
1041502
1041716
1041934
1042150
1042370
1042588
1042806
1043028
1043252
1043474
1043696
1043920
1044144
1044372
1044594
1044818
1045044
1045266
1045490
1045716
1045938
1046158
1046382
1046604
1046824
1047048
1047268
1047484
1047706
1047924
1048140
1048362
1048576
1048796
1049016
1049230
1049454
1049674
1049900
1050122
1050346
1050568
1050788
1051010
1051230
1051444
1051664
1051880
1052098
1052316
1052530
1052746
1052966
1053180
1053398
1053618
1053832
1054048
1054260
1054472
1054686
1054900
1055110
1055326
1055540
1055750
1055966
1056180
1056390
1056604
1056818
1057026
1057240
1057450
1057660
1057876
1058090
1058304
1058522
1058740
1058956
1059178
1059394
1059614
1059832
1060046
1060258
1060472
1060682
1060896
1061112
1061324
1061542
1061760
1061974
1062098
1062406
1062624
1062840
1063054
1063264
1063474
1063686
1063894
1064108
1064320
1064526
1064738
1064944
1065150
1065358
1065566
1065774
1065988
1066196
1066400
1066620
1066820
1067034
1067244
1067446
1067654
1067862
1068060
1068278
1068490
1068696
1068916
1069120
1069334
1069556
1069766
1069984
1070210
1070422
1070648
1070872
1071086
1071312
1071536
1071748
1071972
1072194
1072406
1072628
1072844
1073060
1073282
1073492
1073710
1073930
1074140
1074360
1074576
1074784
1075006
1075224
1075436
1075660
1075878
1076098
1076322
1076530
1076746
1076956
1077162
1077382
1077598
1077800
1078018
1078226
1078432
1078648
1078764
1079048
1079246
1079438
1079642
1079848
1079972
1080248
1080462
1080654
1080868
1081076
1081284
1081498
1081720
1081940
1082162
1082382
1082602
1082824
1083040
1083262
1083484
1083700
1083920
1084136
1084348
1084568
1084784
1085004
1085226
1085450
1085674
1085904
1086126
1086354
1086578
1086796
1087016
1087236
1087454
1087674
1087892
1088110
1088332
1088550
1088774
1088998
1089218
1089442
1089668
1089888
1090114
1090334
1090554
1090778
1090998
1091220
1091444
1091660
1091880
1092100
1092314
1092536
1092754
1092970
1093190
1093412
1093630
1093854
1094072
1094290
1094510
1094726
1094942
1095162
1095374
1095586
1095798
1096006
1096218
1096428
1096638
1096850
1097064
1097274
1097490
1097706
1097918
1098134
1098350
1098552
1098764
1098974
1099166
1099378
1099584
1099778
1099990
1100200
1100404
1100622
1100838
1101050
1101274
1101486
1101702
1101914
1102112
1102324
1102526
1102724
1102936
1103148
1103350
1103572
1103792
1104012
1104236
1104440
1104636
1104832
1105024
1105222
1105416
1105618
1105828
1106020
1106222
1106432
1106632
1106842
1107044
1107262
1107464
1107678
1107870
1108062
1108262
1108454
1108666
1108872
1109074
1109276
1109470
1109656
1109836
1110014
1110188
1110356
1110524
1110686
1110850
1111010
1111172
1111344
1111530
1111718
1111914
1112100
1112294
1112500
1112708
1112916
1113130
1113338
1113542
1113740
1113926
1114128
1114324
1114508
1114692
1114880
1115084
1115284
1115468
1115668
1115856
1116042
1116222
1116398
1116590
1116778
1116962
1117146
1117328
1117508
1117684
1117860
1118046
1118224
1118416
1118592
1118772
1118944
1119118
1119288
1119452
1119612
1119772
1119930
1120086
1120246
1120406
1120570
1120734
1120896
1121058
1121220
1121382
1121546
1121736
1121938
1122148
1122352
1122550
1122736
1122918
1123088
1123262
1123450
1123634
1123824
1124020
1124216
1124414
1124608
1124788
1124984
1125174
1125356
1125550
1125732
1125924
1126100
1126302
1126502
1126708
1126910
1127102
1127284
1127476
1127678
1127884
1128090
1128292
1128488
1128672
1128846
1129018
1129186
1129350
1129514
1129678
1129840
1129998
1130158
1130324
1130494
1130680
1130868
1131058
1131246
1131432
1131608
1131798
1131984
1132164
1132340
1132514
1132686
1132856
1133024
1133192
1133358
1133526
1133694
1133856
1134024
1134190
1134360
1134526
1134710
1134912
1135134
1135344
1135558
1135776
1135994
1136220
1136434
1136650
1136864
1137072
1137280
1137482
1137682
1137882
1138080
1138276
1138474
1138678
1138884
1139096
1139310
1139538
1139756
1139976
1140198
1140414
1140630
1140844
1141062
1141276
1141484
1141700
1141912
1142110
1142314
1142516
1142704
1142894
1143070
1143260
1143436
1143612
1143788
1143960
1144132
1144306
1144484
1144674
1144856
1145050
1145236
1145424
1145600
1145770
1145938
1146104
1146266
1146428
1146596
1146762
1146930
1147098
1147270
1147464
1147652
1147830
1148008
1148186
1148366
1148546
1148736
1148916
1149094
1149264
1149436
1149610
1149802
1150000
1150200
1150406
1150608
1150804
1150988
1151184
1151382
1151582
1151778
1151984
1152200
1152404
1152614
1152824
1153030
1153234
1153442
1153650
1153856
1154066
1154274
1154478
1154680
1154888
1155096
1155302
1155510
1155718
1155926
1156134
1156340
1156542
1156746
1156942
1157136
1157312
1157488
1157666
1157836
1158010
1158204
1158402
1158604
1158806
1159010
1159210
1159398
1159600
1159804
1160006
1160206
1160420
1160636
1160842
1161052
1161272
1161490
1161702
1161916
1162122
1162326
1162534
1162740
1162944
1163156
1163368
1163578
1163790
1164000
1164210
1164420
1164632
1164836
1165038
1165242
1165444
1165644
1165826
1166002
1166172
1166350
1166538
1166714
1166892
1167080
1167274
1167476
1167682
1167888
1168098
1168314
1168530
1168748
1168964
1169180
1169396
1169612
1169826
1170042
1170256
1170474
1170692
1170906
1171120
1171334
1171550
1171760
1171984
1172208
1172424
1172636
1172840
1173050
1173248
1173456
1173656
1173866
1174068
1174278
1174490
1174700
1174906
1175110
1175312
1175502
1175690
1175890
1176076
1176276
1176460
1176662
1176848
1177050
1177236
1177424
1177602
1177782
1177976
1178168
1178362
1178548
1178742
1178938
1179140
1179340
1179540
1179742
1179950
1180166
1180372
1180584
1180794
1181002
1181214
1181426
1181636
1181846
1182062
1182276
1182488
1182702
1182918
1183134
1183348
1183564
1183774
1183982
1184188
1184398
1184600
1184804
1185008
1185212
1185420
1185626
1185834
1186042
1186246
1186450
1186654
1186858
1187068
1187280
1187494
1187714
1187928
1188140
1188356
1188570
1188780
1188986
1189196
1189410
1189612
1189820
1190030
1190236
1190446
1190656
1190868
1191082
1191294
1191502
1191712
1191916
1192124
1192330
1192534
1192736
1192928
1193114
1193296
1193478
1193656
1193832
1194008
1194182
1194354
1194524
1194692
1194860
1195040
1195218
1195396
1195576
1195768
1195950
1196070
1196338
1196552
1196764
1196978
1197194
1197412
1197624
1197842
1198056
1198272
1198490
1198708
1198924
1199138
1199350
1199566
1199782
1199996
1200212
1200426
1200640
1200852
1201066
1201278
1201486
1201696
1201904
1202110
1202316
1202522
1202728
1202936
1203142
1203350
1203558
1203766
1203970
1204172
1204372
1204564
1204748
1204928
1205102
1205276
1205460
1205650
1205830
1206012
1206190
1206372
1206554
1206730
1206904
1207078
1207252
1207422
1207594
1207762
1207932
1208104
1208268
1208434
1208598
1208758
1208922
1209080
1209236
1209392
1209546
1209702
1209860
1210018
1210178
1210362
1210586
1210788
1210990
1211190
1211388
1211580
1211774
1211948
1212126
1212292
1212472
1212658
1212850
1213046
1213240
1213432
1213620
1213798
1213968
1214134
1214300
1214466
1214630
1214804
1214990
1215182
1215370
1215546
1215728
1215916
1216096
1216312
1216518
1216720
1216918
1217106
1217284
1217464
1217648
1217840
1218038
1218244
1218450
1218650
1218848
1219036
1219258
1219476
1219690
1219912
1220136
1220356
1220572
1220784
1220994
1221202
1221410
1221616
1221816
1222012
1222198
1222392
1222580
1222760
1222948
1223134
1223312
1223502
1223688
1223864
1224042
1224218
1224390
1224580
1224778
1224964
1225162
1225356
1225552
1225750
1225950
1226148
1226340
1226534
1226722
1226914
1227096
1227288
1227474
1227666
1227860
1228052
1228238
1228432
1228622
1228808
1229002
1229192
1229380
1229578
1229772
1229968
1230162
1230362
1230560
1230758
1230952
1231156
1231356
1231548
1231758
1231956
1232156
1232352
1232564
1232760
1232954
1233158
1233354
1233548
1233746
1233940
1234136
1234328
1234502
1234676
1234860
1235046
1235222
1235412
1235594
1235782
1235972
1236158
1236344
1236520
1236704
1236878
1237058
1237228
1237398
1237568
1237732
1237878
1238052
1238214
1238374
1238530
1238688
1238838
1239018
1239206
1239380
1239562
1239732
1239910
1240076
1240242
1240422
1240592
1240764
1240956
1241132
1241318
1241494
1241668
1241840
1242028
1242200
1242392
1242594
1242782
1242974
1243166
1243360
1243554
1243750
1243948
1244142
1244334
1244532
1244726
1244912
1245106
1245296
1245488
1245676
1245870
1246050
1246242
1246426
1246604
1246806
1246996
1247178
1247366
1247552
1247724
1247898
1248080
1248256
1248448
1248622
1248794
1248962
1249132
1249314
1249482
1249662
1249844
1250018
1250194
1250366
1250540
1250728
1250904
1251076
1251250
1251422
1251596
1251764
1251924
1252084
1252192
1252412
1252586
1252752
1252918
1253088
1253252
1253436
1253618
1253810
1254004
1254194
1254380
1254572
1254752
1254928
1255098
1255268
1255440
1255610
1255792
1255964
1256148
1256318
1256494
1256664
1256830
1256998
1257172
1257342
1257522
1257708
1257880
1258048
1258236
1258408
1258578
1258754
1258916
1259080
1259242
1259406
1259566
1259726
1259904
1260082
1260246
1260410
1260604
1260776
1260960
1261136
1261302
1261472
1261642
1261814
1261980
1262148
1262316
1262482
1262652
1262828
1263006
1263188
1263358
1263534
1263754
1263946
1264134
1264320
1264506
1264676
1264846
1265014
1265180
1265344
1265510
1265692
1265874
1266062
1266246
1266432
1266616
1266790
1266972
1267156
1267330
1267514
1267686
1267860
1268046
1268236
1268412
1268600
1268788
1268966
1269156
1269340
1269528
1269704
1269876
1270042
1270210
1270378
1270544
1270710
1270872
1271032
1271192
1271348
1271504
1271660
1271818
1271974
1272136
1272294
1272452
1272616
1272780
1272942
1273106
1273272
1273438
1273614
1273784
1273952
1274124
1274294
1274460
1274640
1274828
1275012
1275194
1275384
1275566
1275750
1275924
1276102
1276282
1276458
1276630
1276794
1276986
1277170
1277354
1277530
1277712
1277894
1278070
1278254
1278432
1278610
1278782
1278950
1279110
1279284
1279450
1279614
1279786
1279954
1280122
1280282
1280462
1280632
1280796
1280960
1281122
1281282
1281448
1281614
1281776
1281942
1282116
1282280
1282446
1282614
1282778
1282942
1283120
1283286
1283454
1283638
1283818
1283988
1284168
1284348
1284518
1284698
1284868
1285034
1285198
1285360
1285520
1285680
1285856
1286024
1286194
1286370
1286550
1286726
1286910
1287110
1287302
1287496
1287688
1287882
1288070
1288262
1288456
1288642
1288814
1288996
1289168
1289336
1289512
1289690
1289864
1290044
1290226
1290408
1290574
1290746
1290918
1291082
1291262
1291446
1291622
1291802
1291980
1292156
1292340
1292526
1292710
1292892
1293064
1293254
1293464
1293662
1293852
1294046
1294230
1294410
1294584
1294760
1294932
1295106
1295276
1295448
1295624
1295804
1295974
1296150
1296334
1296512
1296690
1296874
1297054
1297228
1297404
1297582
1297752
1297920
1298098
1298274
1298448
1298626
1298804
1298982
1299164
1299348
1299532
1299712
1299894
1300072
1300250
1300432
1300610
1300792
1300982
1301166
1301346
1301520
1301686
1301852
1302034
1302210
1302374
1302536
1302706
1302868
1303034
1303212
1303392
1303568
1303748
1303930
1304110
1304290
1304472
1304654
1304836
1305018
1305204
1305380
1305566
1305748
1305936
1306128
1306316
1306510
1306702
1306892
1307086
1307276
1307462
1307656
1307850
1308052
1308258
1308474
1308684
1308886
1309102
1309316
1309514
1309732
1309950
1310176
1310390
1310606
1310842
1311060
1311288
1311512
1311716
1311938
1312180
1312404
1312616
1312850
1313066
1313280
1313506
1313710
1313934
1314154
1314370
1314582
1314802
1315014
1315256
1315478
1315722
1315942
1316172
1316398
1316632
1316874
1317106
1317334
1317550
1317768
1317986
1318202
1318412
1318618
1318820
1319024
1319220
1319402
1319578
1319770
1319954
1320146
1320360
1320556
1320762
1320962
1321156
1321350
1321540
1321726
1321896
1322058
1322222
1322404
1322572
1322748
1322946
1323144
1323338
1323534
1323730
1323928
1324118
1324314
1324504
1324690
1324878
1325070
1325260
1325454
1325654
1325854
1326062
1326252
1326454
1326650
1326846
1327046
1327244
1327448
1327660
1327868
1328086
1328302
1328524
1328752
1328962
1329174
1329380
1329582
1329778
1329974
1330170
1330364
1330562
1330760
1330958
1331164
1331376
1331594
1331810
1332030
1332242
1332452
1332662
1332878
1333096
1333300
1333522
1333724
1333940
1334154
1334362
1334574
1334780
1334978
1335180
1335382
1335580
1335772
1335966
1336162
1336354
1336542
1336720
1336906
1337078
1337254
1337434
1337604
1337780
1337956
1338122
1338296
1338474
1338654
1338832
1339024
1339216
1339404
1339590
1339778
1339970
1340160
1340348
1340536
1340722
1340908
1341096
1341280
1341466
1341646
1341826
1341994
1342172
1342348
1342524
1342706
1342898
1343096
1343288
1343484
1343680
1343880
1344078
1344278
1344472
1344670
1344868
1345060
1345258
1345456
1345658
1345860
1346064
1346266
1346480
1346700
1346914
1347134
1347348
1347566
1347782
1347988
1348198
1348402
1348624
1348842
1349040
1349254
1349470
1349684
1349898
1350108
1350302
1350516
1350708
1350906
1351102
1351290
1351476
1351656
1351834
1352002
1352186
1352382
1352572
1352764
1352952
1353142
1353340
1353526
1353722
1353922
1354116
1354310
1354518
1354710
1354914
1355116
1355302
1355500
1355690
1355876
1356066
1356250
1356430
1356614
1356798
1356988
1357180
1357366
1357554
1357744
1357940
1358136
1358338
1358538
1358740
1358940
1359146
1359358
1359558
1359764
1359966
1360164
1360364
1360558
1360750
1360944
1361136
1361322
1361512
1361700
1361888
1362078
1362266
1362454
1362644
1362832
1363018
1363206
1363392
1363578
1363766
1363952
1364136
1364328
1364520
1364708
1364896
1365082
1365272
1365460
1365646
1365834
1366020
1366196
1366372
1366548
1366720
1366894
1367074
1367254
1367424
1367600
1367780
1367960
1368140
1368322
1368502
1368682
1368866
1369048
1369230
1369416
1369602
1369786
1369968
1370150
1370324
1370494
1370670
1370866
1371062
1371256
1371462
1371670
1371878
1372086
1372296
1372504
1372724
1372928
1373136
1373342
1373550
1373756
1373954
1374162
1374368
1374566
1374768
1374962
1375168
1375380
1375596
1375828
1376036
1376254
1376458
1376666
1376868
1377064
1377262
1377468
1377660
1377854
1378048
1378236
1378430
1378620
1378810
1379000
1379190
1379380
1379570
1379760
1379950
1380136
1380326
1380512
1380696
1380874
1381056
1381240
1381412
1381594
1381786
1381974
1382168
1382362
1382552
1382750
1382946
1383140
1383334
1383530
1383718
1383906
1384094
1384280
1384464
1384650
1384838
1385026
1385220
1385408
1385596
1385786
1385970
1386140
1386320
1386500
1386684
1386872
1387060
1387248
1387428
1387614
1387804
1387992
1388180
1388370
1388556
1388742
1388924
1389108
1389292
1389476
1389658
1389848
1390038
1390218
1390408
1390604
1390790
1390982
1391178
1391372
1391566
1391760
1391954
1392148
1392346
1392538
1392730
1392922
1393112
1393300
1393484
1393672
1393862
1394054
1394248
1394446
1394640
1394832
1395018
1395212
1395400
1395586
1395774
1395954
1396142
1396328
1396514
1396706
1396900
1397094
1397290
1397486
1397676
1397872
1398064
1398254
1398446
1398636
1398826
1399016
1399206
1399396
1399586
1399770
1399956
1400136
1400320
1400504
1400690
1400878
1401052
1401234
1401428
1401648
1401852
1402034
1402232
1402412
1402576
1402746
1402912
1403084
1403244
1403398
1403556
1403712
1403866
1404026
1404202
1404380
1404554
1404726
1404902
1405068
1405232
1405398
1405562
1405720
1405880
1406044
1406212
1406376
1406538
1406694
1406852
1407008
1407180
1407358
1407540
1407712
1407878
1408040
1408204
1408374
1408534
1408696
1408860
1409020
1409186
1409348
1409512
1409674
1409836
1409998
1410166
1410328
1410490
1410650
1410814
1410980
1411140
1411298
1411454
1411606
1411758
1411908
1412058
1412208
1412364
1412530
1412692
1412854
1413012
1413172
1413330
1413488
1413644
1413800
1413954
1414106
1414258
1414388
1414560
1414714
1414866
1415016
1415168
1415316
1415464
1415612
1415758
1415906
1416062
1416228
1416384
1416546
1416708
1416866
1417030
1417190
1417354
1417520
1417682
1417842
1418002
1418158
1418310
1418476
1418644
1418798
1418954
1419112
1419280
1419450
1419618
1419778
1419938
1420106
1420280
1420458
1420636
1420800
1420958
1421114
1421268
1421434
1421600
1421756
1421914
1422070
1422224
1422378
1422544
1422694
1422846
1422994
1423156
1423312
1423462
1423612
1423760
1423906
1424062
1424212
1424366
1424522
1424674
1424826
1424984
1425138
1425290
1425446
1425598
1425752
1425906
1426056
1426208
1426372
1426530
1426686
1426846
1427004
1427164
1427338
1427518
1427690
1427864
1428038
1428212
1428388
1428562
1428738
1428912
1429088
1429256
1429414
1429586
1429758
1429924
1430100
1430276
1430450
1430624
1430804
1430982
1431162
1431340
1431516
1431698
1431874
1432056
1432238
1432420
1432600
1432790
1432972
1433156
1433346
1433532
1433724
1433910
1434092
1434284
1434476
1434664
1434846
1435036
1435226
1435408
1435594
1435778
1435962
1436148
1436332
1436518
1436702
1436890
1437080
1437268
1437458
1437644
1437832
1438012
1438176
1438354
1438550
1438738
1438918
1439094
1439268
1439434
1439596
1439766
1439926
1440100
1440266
1440438
1440600
1440772
1440937
1441118
1441294
1441458
1441632
1441804
1441984
1442168
1442340
1442512
1442690
1442862
1443028
1443202
1443364
1443534
1443696
1443870
1444050
1444228
1444412
1444604
1444788
1444972
1445160
1445342
1445528
1445714
1445902
1446086
1446268
1446458
1446640
1446824
1447012
1447192
1447374
1447556
1447738
1447922
1448114
1448304
1448494
1448686
1448874
1449062
1449256
1449446
1449638
1449824
1450016
1450212
1450406
1450596
1450800
1450988
1451176
1451366
1451556
1451742
1451926
1452116
1452306
1452500
1452684
1452874
1453062
1453246
1453426
1453596
1453752
1453916
1454090
1454260
1454430
1454610
1454792
1454976
1455168
1455358
1455536
1455736
1455930
1456128
1456320
1456522
1456722
1456918
1457122
1457316
1457510
1457708
1457906
1458106
1458306
1458516
1458712
1458922
1459138
1459338
1459558
1459770
1459964
1460182
1460384
1460582
1460798
1460994
1461192
1461392
1461584
1461784
1461978
1462176
1462366
1462562
1462754
1462942
1463134
1463322
1463524
1463728
1463918
1464116
1464310
1464496
1464692
1464894
1465092
1465284
1465466
1465656
1465846
1466036
1466218
1466392
1466578
1466760
1466934
1467116
1467302
1467484
1467664
1467852
1468036
1468206
1468380
1468556
1468740
1468926
1469104
1469268
1469462
1469652
1469830
1470012
1470194
1470380
1470564
1470744
1470918
1471096
1471274
1471440
1471624
1471816
1472012
1472208
1472402
1472588
1472776
1472962
1473144
1473326
1473490
1473668
1473846
1474014
1474198
1474392
1474574
1474764
1474960
1475160
1475370
1475586
1475800
1476014
1476212
1476420
1476624
1476834
1477044
1477254
1477460
1477670
1477874
1478086
1478286
1478492
1478692
1478880
1479068
1479264
1479458
1479654
1479848
1480042
1480238
1480450
1480652
1480864
1481074
1481288
1481510
1481712
1481916
1482134
1482340
1482550
1482764
1482964
1483174
1483392
1483592
1483810
1484022
1484218
1484432
1484630
1484824
1485038
1485244
1485440
1485630
1485836
1486036
1486230
1486426
1486622
1486810
1487004
1487198
1487384
1487570
1487750
1487926
1488104
1488290
1488474
1488648
1488836
1489026
1489224
1489416
1489606
1489792
1489982
1490164
1490340
1490512
1490684
1490856
1491028
1491200
1491374
1491546
1491718
1491902
1492092
1492286
1492476
1492664
1492840
1493018
1493200
1493370
1493544
1493716
1493886
1494054
1494222
1494386
1494550
1494714
1494878
1495044
1495212
1495380
1495546
1495710
1495886
1496046
1496206
1496328
1496528
1496684
1496840
1496992
1497146
1497294
1497392
1497596
1497752
1497908
1498066
1498224
1498382
1498538
1498694
1498848
1499002
1499156
1499310
1499462
1499614
1499768
1499918
1500070
1500218
1500368
1500514
1500662
1500810
1500956
1501100
1501246
1501390
1501532
1501674
1501816
1501956
1502096
1502238
1502378
1502518
1502658
1502798
1502938
1503082
1503224
1503366
1503508
1503650
1503790
1503930
1504072
1504212
1504342
1504492
1504632
1504770
1504910
1505054
1505196
1505348
1505506
1505662
1505816
1505986
1506146
1506312
1506486
1506646
1506806
1506968
1507130
1507290
1507446
1507600
1507750
1507900
1508046
1508194
1508338
1508480
1508622
1508766
1508906
1509048
1509190
1509330
1509468
1509608
1509746
1509884
1510022
1510162
1510304
1510448
1510598
1510742
1510888
1511032
1511174
1511316
1511458
1511600
1511740
1511882
1512024
1512164
1512304
1512446
1512584
1512726
1512868
1513010
1513156
1513306
1513454
1513600
1513748
1513896
1514046
1514196
1514346
1514494
1514644
1514794
1514942
1515086
1515236
1515384
1515536
1515692
1515850
1516008
1516168
1516324
1516484
1516642
1516796
1516948
1517098
1517244
1517388
1517536
1517680
1517826
1517974
1518128
1518288
1518440
1518588
1518736
1518882
1519026
1519170
1519314
1519458
1519600
1519742
1519884
1520024
1520166
1520308
1520448
1520588
1520728
1520866
1521004
1521144
1521282
1521420
1521560
1521700
1521838
1521976
1522114
1522250
1522388
1522524
1522662
1522798
1522934
1523072
1523210
1523346
1523484
1523622
1523758
1523894
1524032
1524168
1524306
1524444
1524580
1524716
1524854
1524990
1525126
1525264
1525400
1525534
1525670
1525806
1525942
1526080
1526218
1526356
1526494
1526632
1526774
1526914
1527056
1527198
1527340
1527484
1527630
1527772
1527914
1528082
1528258
1528420
1528580
1528732
1528880
1529028
1529174
1529318
1529460
1529602
1529744
1529886
1530026
1530166
1530310
1530454
1530600
1530744
1530890
1531034
1531178
1531330
1531476
1531624
1531768
1531912
1532054
1532198
1532340
1532482
1532624
1532766
1532906
1533046
1533188
1533328
1533468
1533610
1533752
1533894
1534038
1534180
1534322
1534462
1534606
1534746
1534884
1535026
1535166
1535306
1535446
1535588
1535734
1535880
1536028
1536172
1536318
1536464
1536610
1536756
1536902
1537048
1537194
1537338
1537480
1537624
1537774
1537926
1538076
1538226
1538390
1538538
1538690
1538840
1538992
1539140
1539284
1539428
1539574
1539742
1539898
1540058
1540214
1540368
1540524
1540678
1540828
1540982
1541136
1541284
1541434
1541582
1541730
1541882
1542050
1542210
1542384
1542552
1542712
1542867
1543032
1543180
1543334
1543486
1543636
1543786
1543934
1544084
1544238
1544390
1544558
1544736
1544908
1545080
1545272
1545446
1545622
1545794
1545962
1546120
1546290
1546450
1546618
1546784
1546942
1547098
1547252
1547406
1547558
1547708
1547858
1548010
1548160
1548308
1548458
1548606
1548758
1548912
1549064
1549218
1549382
1549542
1549704
1549866
1550022
1550176
1550330
1550480
1550632
1550786
1550938
1551088
1551238
1551386
1551534
1551682
1551828
1551974
1552120
1552264
1552410
1552558
1552704
1552848
1552992
1553138
1553280
1553426
1553574
1553722
1553872
1554024
1554178
1554328
1554484
1554638
1554794
1554948
1555106
1555260
1555416
1555570
1555726
1555884
1556054
1556218
1556384
1556552
1556714
1556868
1557034
1557202
1557360
1557516
1557672
1557824
1557974
1558124
1558272
1558420
1558572
1558720
1558870
1559013
1559163
1559307
1559458
1559602
1559746
1559888
1560032
1560176
1560320
1560468
1560618
1560766
1560922
1561072
1561222
1561374
1561524
1561674
1561828
1561980
1562134
1562290
1562444
1562602
1562762
1562924
1563080
1563240
1563396
1563548
1563702
1563858
1564010
1564158
1564306
1564454
1564602
1564752
1564904
1565070
1565226
1565394
1565568
1565734
1565902
1566064
1566226
1566388
1566562
1566734
1566904
1567072
1567228
1567384
1567540
1567700
1567860
1568030
1568188
1568354
1568524
1568694
1568864
1569034
1569196
1569356
1569534
1569748
1569946
1570132
1570314
1570500
1570680
1570854
1571016
1571176
1571338
1571496
1571652
1571808
1571962
1572116
1572270
1572428
1572592
1572764
1572926
1573088
1573254
1573418
1573584
1573758
1573922
1574084
1574254
1574424
1574582
1574754
1574914
1575072
1575234
1575388
1575540
1575702
1575852
1576010
1576160
1576310
1576468
1576620
1576772
1576938
1577100
1577258
1577426
1577582
1577748
1577914
1578074
1578234
1578394
1578554
1578708
1578866
1579028
1579208
1579380
1579558
1579728
1579906
1580074
1580252
1580428
1580606
1580776
1580938
1581098
1581260
1581426
1581590
1581766
1581944
1582112
1582290
1582464
1582628
1582804
1582980
1583150
1583320
1583490
1583652
1583814
1583976
1584140
1584306
1584476
1584650
1584824
1584988
1585168
1585342
1585516
1585692
1585854
1586032
1586200
1586374
1586540
1586712
1586884
1587052
1587224
1587396
1587558
1587726
1587888
1588058
1588228
1588386
1588548
1588708
1588864
1589040
1589214
1589378
1589542
1589708
1589882
1590060
1590240
1590416
1590602
1590784
1590956
1591134
1591302
1591470
1591644
1591814
1591990
1592168
1592340
1592526
1592706
1592882
1593070
1593252
1593436
1593616
1593792
1593974
1594154
1594334
1594520
1594702
1594880
1595074
1595262
1595448
1595638
1595824
1596004
1596190
1596372
1596546
1596730
1596910
1597082
1597262
1597438
1597610
1597788
1597962
1598134
1598312
1598492
1598668
1598838
1599016
1599188
1599354
1599526
1599696
1599862
1600038
1600214
1600388
1600562
1600742
1600920
1601098
1601274
1601450
1601630
1601806
1601988
1602172
1602358
1602542
1602744
1602938
1603124
1603326
1603516
1603694
1603886
1604080
1604264
1604452
1604632
1604812
1604998
1605190
1605378
1605556
1605738
1605918
1606102
1606278
1606450
1606642
1606818
1607002
1607182
1607356
1607538
1607718
1607900
1608084
1608268
1608446
1608630
1608810
1608988
1609172
1609352
1609532
1609716
1609896
1610076
1610264
1610444
1610628
1610814
1611000
1611172
1611354
1611536
1611716
1611888
1612066
1612248
1612424
1612606
1612784
1612962
1613146
1613336
1613524
1613706
1613880
1614058
1614224
1614400
1614582
1614760
1614936
1615120
1615308
1615490
1615672
1615852
1616030
1616206
1616386
1616576
1616762
1616950
1617138
1617326
1617512
1617700
1617882
1618060
1618244
1618424
1618598
1618780
1618960
1619132
1619312
1619490
1619668
1619838
1620016
1620192
1620362
1620540
1620718
1620890
1621062
1621218
1621376
1621534
1621692
1621862
1622036
1622208
1622382
1622552
1622722
1622894
1623054
1623216
1623378
1623536
1623698
1623864
1624036
1624198
1624366
1624534
1624702
1624870
1625042
1625216
1625388
1625550
1625710
1625866
1626024
1626190
1626342
1626496
1626648
1626802
1626964
1627118
1627280
1627440
1627600
1627756
1627918
1628092
1628270
1628452
1628632
1628808
1628986
1629160
1629336
1629506
1629668
1629832
1629998
1630158
1630326
1630492
1630652
1630822
1630982
1631146
1631310
1631470
1631634
1631800
1631966
1632134
1632302
1632470
1632638
1632810
1632980
1633154
1633320
1633484
1633642
1633810
1633972
1634130
1634294
1634452
1634620
1634788
1634956
1635118
1635288
1635454
1635616
1635782
1635952
1636118
1636284
1636446
1636618
1636784
1636956
1637126
1637286
1637444
1637630
1637824
1638004
1638178
1638342
1638504
1638662
1638818
1638986
1639160
1639322
1639496
1639670
1639840
1640014
1640188
1640362
1640538
1640708
1640880
1641052
1641222
1641398
1641574
1641750
1641924
1642096
1642276
1642450
1642616
1642786
1642962
1643152
1643332
1643502
1643664
1643834
1644010
1644184
1644364
1644540
1644718
1644896
1645082
1645266
1645446
1645620
1645802
1645984
1646162
1646352
1646530
1646714
1646898
1647076
1647260
1647448
1647630
1647826
1648006
1648192
1648378
1648570
1648758
1648942
1649132
1649308
1649484
1649654
1649836
1650014
1650192
1650372
1650548
1650734
1650920
1651100
1651292
1651472
1651652
1651828
1651998
1652172
1652354
1652534
1652710
1652882
1653056
1653230
1653402
1653572
1653738
1653914
1654088
1654260
1654434
1654622
1654802
1654980
1655154
1655324
1655498
1655666
1655840
1656018
1656182
1656350
1656516
1656688
1656854
1657030
1657212
1657396
1657578
1657758
1657932
1658120
1658296
1658488
1658668
1658858
1659042
1659226
1659420
1659616
1659804
1659994
1660182
1660366
1660564
1660756
1660938
1661132
1661322
1661516
1661710
1661898
1662078
1662268
1662456
1662640
1662830
1663012
1663190
1663378
1663560
1663742
1663922
1664104
1664282
1664462
1664646
1664828
1665012
1665192
1665364
1665546
1665722
1665896
1666070
1666232
1666414
1666604
1666786
1666966
1667154
1667332
1667510
1667688
1667858
1668034
1668224
1668414
1668600
1668792
1668978
1669164
1669346
1669522
1669696
1669874
1670048
1670220
1670404
1670582
1670758
1670940
1671116
1671292
1671472
1671652
1671838
1672030
1672222
1672406
1672584
1672768
1672948
1673130
1673312
1673496
1673676
1673858
1674042
1674222
1674404
1674590
1674778
1674966
1675150
1675336
1675518
1675700
1675880
1676056
1676236
1676408
1676586
1676756
1676918
1677076
1677246
1677428
1677608
1677792
1677976
1678160
1678340
1678516
1678702
1678888
1679070
1679254
1679432
1679614
1679788
1679972
1680148
1680334
1680518
1680700
1680882
1681070
1681254
1681440
1681622
1681798
1681980
1682162
1682348
1682536
1682722
1682904
1683088
1683272
1683446
1683620
1683798
1683970
1684142
1684308
1684476
1684646
1684810
1684970
1685124
1685280
1685442
1685596
1685754
1685922
1686096
1686266
1686442
1686618
1686792
1686948
1687148
1687338
1687524
1687708
1687888
1688064
1688236
1688408
1688580
1688750
1688922
1689090
1689256
1689428
1689586
1689746
1689904
1690060
1690216
1690372
1690528
1690684
1690840
1690994
1691148
1691300
1691448
1691598
1691746
1691892
1692038
1692186
1692334
1692480
1692628
1692774
1692920
1693068
1693218
1693368
1693518
1693672
1693822
1693974
1694130
1694278
1694430
1694588
1694736
1694884
1695030
1695178
1695326
1695476
1695630
1695786
1695946
1696108
1696272
1696436
1696598
1696756
1696912
1697064
1697214
1697364
1697514
1697660
1697806
1697952
1698098
1698246
1698396
1698546
1698702
1698864
1699018
1699194
1699366
1699542
1699722
1699898
1700074
1700244
1700426
1700604
1700784
1700964
1701144
1701320
1701502
1701684
1701864
1702048
1702234
1702416
1702594
1702768
1702936
1703092
1703246
1703400
1703556
1703714
1703884
1704072
1704268
1704456
1704642
1704828
1705018
1705198
1705376
1705542
1705706
1705866
1706032
1706210
1706394
1706582
1706776
1706970
1707164
1707374
1707568
1707776
1707978
1708180
1708392
1708588
1708788
1708984
1709192
1709392
1709590
1709794
1709994
1710194
1710408
1710604
1710814
1711020
1711234
1711436
1711644
1711856
1712066
1712272
1712476
1712686
1712894
1713106
1713312
1713524
1713738
1713956
1714170
1714382
1714588
1714794
1715016
1715216
1715422
1715638
1715846
1716052
1716260
1716466
1716682
1716896
1717112
1717328
1717544
1717762
1717978
1718202
1718424
1718646
1718862
1719082
1719300
1719512
1719732
1719948
1720164
1720378
1720588
1720800
1721010
1721226
1721444
1721660
1721874
1722086
1722300
1722508
1722724
1722940
1723152
1723364
1723574
1723782
1723992
1724200
1724412
1724618
1724838
1725056
1725274
1725482
1725702
1725918
1726130
1726340
1726548
1726756
1726964
1727178
1727390
1727598
1727810
1728018
1728226
1728432
1728650
1728866
1729076
1729292
1729504
1729716
1729928
1730136
1730344
1730566
1730770
1730988
1731190
1731406
1731620
1731828
1732038
1732242
1732450
1732658
1732864
1733072
1733276
1733494
1733698
1733920
1734134
1734344
1734554
1734766
1734984
1735188
1735394
1735608
1735806
1736016
1736224
1736430
1736640
1736852
1737060
1737266
1737470
1737676
1737876
1738080
1738282
1738484
1738686
1738890
1739088
1739288
1739488
1739686
1739890
1740100
1740308
1740512
1740720
1740928
1741138
1741348
1741554
1741772
1741972
1742180
1742384
1742590
1742792
1742992
1743190
1743392
1743592
1743788
1743986
1744182
1744378
1744576
1744772
1744970
1745170
1745370
1745570
1745774
1745978
1746180
1746396
1746602
1746808
1747014
1747220
1747422
1747626
1747828
1748032
1748236
1748450
1748660
1748864
1749072
1749278
1749486
1749690
1749894
1750094
1750294
1750496
1750692
1750892
1751086
1751278
1751472
1751666
1751860
1752056
1752256
1752454
1752652
1752852
1753060
1753262
1753466
1753670
1753872
1754086
1754284
1754482
1754680
1754874
1755070
1755268
1755466
1755666
1755866
1756074
1756274
1756482
1756686
1756892
1757096
1757300
1757506
1757708
1757912
1758116
1758320
1758518
1758722
1758924
1759122
1759322
1759518
1759718
1759916
1760116
1760314
1760526
1760722
1760928
1761130
1761332
1761534
1761734
1761928
1762122
1762314
1762502
1762688
1762876
1763066
1763258
1763454
1763662
1763870
1764072
1764292
1764510
1764726
1764938
1765152
1765370
1765586
1765802
1766018
1766232
1766448
1766662
1766876
1767094
1767308
1767520
1767730
1767942
1768152
1768362
1768582
1768786
1769004
1769220
1769438
1769652
1769866
1770074
1770284
1770502
1770716
1770926
1771136
1771344
1771552
1771768
1771982
1772198
1772412
1772624
1772838
1773054
1773264
1773480
1773680
1773882
1774078
1774276
1774470
1774666
1774862
1775056
1775246
1775438
1775628
1775822
1776020
1776222
1776424
1776636
1776836
1777042
1777246
1777450
1777654
1777856
1778058
1778270
1778472
1778670
1778874
1779076
1779278
1779478
1779678
1779874
1780074
1780274
1780480
1780684
1780890
1781092
1781296
1781498
1781698
1781898
1782100
1782298
1782502
1782708
1782920
1783126
1783334
1783540
1783748
1783970
1784186
1784398
1784614
1784828
1785046
1785264
1785478
1785688
1785900
1786104
1786310
1786514
1786728
1786940
1787150
1787360
1787570
1787780
1787986
1788206
1788408
1788612
1788824
1789018
1789218
1789416
1789614
1789820
1790018
1790214
1790410
1790606
1790806
1790996
1791188
1791376
1791566
1791758
1791948
1792140
1792338
1792534
1792726
1792920
1793110
1793302
1793494
1793686
1793876
1794066
1794260
1794452
1794646
1794840
1795032
1795226
1795418
1795612
1795806
1796000
1796188
1796364
1796552
1796728
1796912
1797088
1797272
1797444
1797616
1797784
1797952
1798120
1798296
1798478
1798662
1798848
1799038
1799236
1799436
1799640
1799840
