peaks
133
374
620
860
1098
1340
1582
1824
2072
2322
2574
2830
3088
3346
3602
3854
4100
4348
4594
4836
5080
5332
5578
5824
6076
6330
6574
6818
7068
7324
7572
7830
8086
8338
8588
8840
9090
9336
9584
9836
10082
10330
10576
10828
11076
11324
11576
11834
12090
12344
12598
12854
13106
13354
13600
13846
14090
14330
14576
14824
15062
15300
15546
15792
16040
16288
16546
16804
17060
17306
17564
17818
18070
18328
18590
18846
19110
19378
19638
19904
20164
20426
20686
20944
21200
21450
21708
21972
22232
22496
22756
23010
23264
23518
23764
24012
24262
24510
24756
25006
25256
25500
25750
26000
26248
26498
26746
26990
27232
27474
27718
27960
28198
28438
28682
28924
29170
29418
29666
29908
30152
30396
30642
30888
31142
31398
31652
31914
32184
32444
32710
32976
33242
33508
33770
34036
34300
34562
34826
35092
35348
35606
35858
36110
36362
36616
36870
37124
37380
37634
37886
38132
38382
38628
38872
39118
39362
39604
39844
40088
40336
40582
40830
41084
41342
41596
41852
42112
42374
42626
42884
43140
43394
43650
43902
44152
44404
44656
44906
45160
45406
45662
45922
46170
46416
46666
46916
47162
47408
47658
47906
48150
48398
48646
48894
49140
49390
49636
49876
50116
50354
50594
50834
51070
51312
51554
51794
52036
52284
52536
52782
53034
53290
53546
53802
54062
54318
54570
54822
55076
55322
55572
55820
56064
56310
56562
56816
57068
57328
57586
57842
58098
58356
58612
58864
59118
59370
59618
59864
60106
60350
60590
60834
61078
61326
61566
61812
62056
62296
62536
62778
63012
63238
63446
63640
63830
64016
64198
64376
64554
64732
64912
65096
65288
65476
65672
65868
66070
66288
66488
66702
66900
67096
67296
67522
67746
67992
68252
68518
68792
69070
69344
69626
69906
70182
70460
70734
71000
71246
71496
71730
71960
72214
72452
72676
72914
73142
73372
73608
73848
74100
74356
74606
74868
75130
75392
75656
75922
76184
76452
76716
76982
77242
77508
77768
78028
78288
78546
78806
79064
79324
79580
79838
80100
80364
80618
80880
81142
81400
81654
81914
82170
82422
82672
82922
83166
83410
83658
83908
84160
84408
84662
84916
85168
85416
85668
85918
86166
86410
86658
86902
87140
87382
87628
87872
88120
88374
88628
88872
89124
89372
89620
89866
90118
90368
90618
90868
91118
91370
91620
91870
92118
92370
92626
92878
93132
93388
93642
93894
94144
94396
94642
94882
95124
95366
95600
95842
96070
96296
96504
96706
96900
97094
97288
97478
97668
97858
98046
98238
98430
98640
98878
99118
99368
99624
99884
100148
100414
100678
100938
101204
101472
101734
101994
102260
102518
102772
103024
103272
103512
103742
103952
104168
104380
104622
104862
105134
105406
105668
105938
106214
106486
106754
107024
107294
107562
107828
108096
108356
108616
108874
109130
109380
109634
109884
110138
110384
110632
110882
111132
111376
111624
111872
112116
112360
112606
112854
113100
113352
113602
113852
114106
114358
114610
114860
115116
115376
115628
115878
116132
116390
116644
116896
117152
117406
117656
117908
118158
118408
118654
118904
119154
119406
119652
119906
120158
120408
120656
120904
121154
121400
121642
121888
122132
122374
122620
122864
123112
123354
123602
123854
124104
124350
124602
124854
125102
125348
125604
125858
126106
126358
126614
126868
127122
127368
127622
127874
128122
128374
128630
128878
129126
129374
129624
129868
130112
130358
130604
130848
131098
131352
131604
131848
132096
132346
132592
132842
133096
133344
133588
133836
134080
134324
134566
134808
135046
135280
135506
135736
135988
136234
136470
136698
136906
137108
137316
137550
137782
138024
138278
138528
138784
139038
139282
139522
139752
139966
140178
140384
140584
140782
140978
141186
141408
141634
141874
142120
142364
142616
142872
143130
143390
143654
143914
144178
144442
144704
144954
145188
145416
145660
145892
146128
146376
146622
146880
147144
147410
147674
147940
148208
148476
148748
149020
149282
149548
149820
150086
150354
150618
150878
151142
151406
151662
151924
152186
152444
152702
152962
153220
153474
153732
153990
154242
154496
154754
155008
155258
155508
155758
156006
156256
156500
156746
156986
157230
157470
157710
157956
158196
158434
158674
158918
159166
159410
159662
159916
160170
160424
160682
160934
161194
161454
161716
161978
162242
162502
162768
163032
163290
163550
163810
164066
164320
164576
164828
165078
165332
165588
165836
166084
166338
166594
166844
167094
167344
167590
167836
168084
168328
168572
168822
169066
169312
169560
169812
170060
170306
170556
170808
171058
171312
171562
171808
172054
172300
172540
172778
173022
173272
173520
173780
174040
174302
174562
174824
175084
175348
175612
175870
176128
176386
176644
176902
177164
177422
177682
177940
178200
178452
178706
178958
179208
179454
179702
179946
180188
180434
180680
180924
181166
181410
181660
181910
182162
182420
182680
182936
183196
183456
183710
183958
184204
184454
184702
184950
185202
185460
185716
185974
186234
186500
186760
187020
187276
187526
187782
188038
188290
188548
188806
189060
189320
189580
189838
190096
190354
190610
190862
191118
191378
191630
191886
192142
192396
192646
192902
193158
193412
193668
193920
194176
194426
194674
194930
195174
195412
195648
195884
196122
196358
196608
196858
197102
197340
197558
197770
197982
198188
198392
198642
198890
199130
199382
199644
199904
200166
200428
200686
200948
201208
201470
201734
201992
202244
202496
202746
202996
203238
203486
203732
203978
204220
204470
204720
204968
205214
205464
205708
205952
206196
206442
206686
206926
207170
207416
207658
207900
208142
208392
208638
208888
209140
209396
209648
209900
210156
210416
210670
210928
211184
211442
211694
211950
212210
212470
212728
212990
213254
213514
213776
214038
214298
214552
214806
215060
215308
215560
215808
216058
216302
216548
216796
217040
217282
217526
217770
218010
218254
218498
218742
218984
219230
219476
219720
219966
220218
220474
220724
220980
221238
221494
221748
222008
222264
222516
222768
223024
223274
223524
223776
224026
224274
224532
224790
225048
225308
225568
225824
226076
226330
226582
226832
227084
227334
227584
227834
228084
228334
228580
228828
229076
229322
229564
229810
230052
230296
230542
230788
231034
231282
231524
231770
232008
232254
232498
232742
232990
233242
233492
233742
233984
234224
234448
234654
234850
235046
235238
235432
235626
235840
236068
236278
236496
236716
236940
237158
237380
237632
237884
238138
238392
238650
238906
239164
239424
239682
239940
240196
240452
240708
240960
241208
241458
241706
241948
242188
242432
242672
242910
243152
243396
243640
243890
244138
244390
244638
244894
245144
245392
245642
245892
246138
246386
246630
246876
247118
247366
247614
247866
248112
248370
248628
248886
249138
249394
249652
249904
250154
250408
250660
250912
251160
251410
251658
251904
252160
252416
252672
252932
253196
253454
253716
253978
254238
254494
254748
255004
255258
255514
255772
256030
256280
256524
256752
256966
257172
257374
257572
257766
257958
258144
258330
258518
258706
258894
259082
259278
259480
259680
259904
260140
260396
260642
260882
261118
261364
261612
261858
262098
262330
262556
262798
263052
263304
263560
263820
264074
264328
264578
264822
265048
265266
265476
265682
265912
266154
266410
266666
266926
267184
267452
267714
267974
268230
268492
268758
269020
269288
269554
269810
270068
270330
270590
270840
271094
271336
271586
271834
272088
272344
272598
272850
273106
273352
273596
273820
274028
274226
274420
274614
274804
274998
275194
275400
275604
275800
275996
276188
276380
276576
276798
277024
277272
277526
277784
278046
278310
278580
278850
279120
279386
279650
279918
280178
280436
280690
280948
281200
281448
281698
281950
282192
282444
282702
282952
283214
283478
283738
284004
284270
284534
284798
285060
285318
285574
285834
286086
286338
286592
286842
287092
287346
287596
287842
288096
288352
288606
288856
289114
289370
289624
289884
290142
290388
290648
290906
291166
291418
291674
291928
292184
292434
292686
292936
293186
293434
293680
293928
294178
294424
294676
294932
295184
295434
295686
295938
296182
296430
296678
296920
297164
297410
297650
297892
298138
298386
298630
298872
299120
299370
299620
299874
300130
300386
300640
300898
301150
301402
301658
301914
302168
302422
302674
302922
303160
303402
303646
303890
304130
304376
304626
304872
305118
305368
305618
305872
306128
306386
306638
306898
307162
307418
307680
307940
308200
308456
308716
308970
309222
309476
309728
309982
310236
310492
310744
311002
311258
311510
311756
312004
312252
312498
312738
312982
313228
313474
313714
313960
314206
314456
314712
314974
315240
315516
315784
316054
316324
316594
316856
317118
317380
317638
317896
318150
318406
318660
318918
319180
319436
319700
319964
320222
320482
320744
321002
321260
321522
321782
322040
322300
322562
322822
323078
323336
323596
323852
324106
324364
324622
324872
325124
325378
325636
325890
326146
326406
326662
326918
327180
327436
327690
327946
328200
328452
328706
328958
329208
329462
329718
329974
330228
330488
330748
331006
331262
331520
331774
332028
332280
332530
332778
333030
333282
333528
333780
334034
334288
334540
334798
335056
335310
335566
335824
336080
336332
336584
336836
337084
337338
337592
337844
338092
338344
338596
338848
339100
339358
339612
339866
340122
340378
340628
340882
341134
341384
341636
341890
342146
342394
342648
342902
343154
343406
343660
343912
344164
344414
344668
344916
345168
345422
345676
345930
346192
346454
346708
346962
347218
347472
347720
347972
348224
348474
348728
348984
349238
349494
349756
350016
350272
350532
350792
351046
351302
351558
351812
352062
352316
352568
352818
353072
353326
353580
353828
354080
354330
354580
354820
355060
355302
355542
355784
356032
356282
356534
356794
357056
357318
357582
357848
358106
358368
358624
358876
359130
359388
359642
359896
360152
360412
360670
360930
361192
361450
361706
361956
362214
362466
362716
362966
363216
363464
363710
363958
364210
364456
364706
364956
365210
365460
365710
365962
366208
366456
366702
366950
367192
367440
367688
367934
368182
368436
368684
368934
369190
369450
369704
369964
370222
370478
370736
370998
371250
371510
371768
372026
372282
372544
372800
373054
373308
373560
373812
374058
374306
374550
374790
375032
375276
375520
375758
375998
376238
376480
376720
376968
377220
377468
377720
377976
378232
378482
378734
378982
379230
379474
379722
379968
380218
380462
380716
380968
381224
381474
381734
381988
382240
382492
382750
383006
383252
383506
383760
384014
384272
384530
384788
385040
385296
385554
385808
386060
386310
386562
386808
387058
387306
387556
387796
388044
388290
388536
388782
389032
389280
389528
389778
390030
390278
390524
390770
391018
391260
391504
391750
391998
392242
392492
392742
392988
393236
393490
393746
394002
394260
394516
394770
395022
395278
395526
395776
396026
396278
396528
396770
397008
397218
397422
397620
397814
398004
398192
398378
398566
398754
398944
399148
399344
399538
399738
399948
400152
400350
400550
400748
400944
401142
401338
401534
401726
401916
402108
402300
402488
402676
402864
403056
403246
403440
403634
403830
404034
404266
404514
404768
405028
405288
405554
405814
406082
406350
406616
406868
407124
407382
407638
407888
408146
408408
408660
408922
409186
409450
409706
409970
410232
410488
410738
410994
411250
411504
411766
412028
412288
412544
412804
413064
413324
413578
413836
414092
414346
414596
414856
415118
415374
415636
415900
416168
416430
416698
416960
417224
417484
417750
418012
418274
418540
418806
419068
419330
419590
419836
420082
420324
420576
420828
421094
421370
421644
421920
422196
422466
422740
423020
423296
423574
423852
424130
424404
424670
424940
425208
425476
425740
426006
426264
426520
426778
427038
427296
427558
427824
428084
428340
428600
428860
429112
429374
429632
429890
430140
430396
430654
430912
431166
431426
431684
431938
432194
432454
432712
432962
433218
433474
433728
433974
434226
434476
434728
434976
435230
435484
435736
435992
436246
436494
436744
436992
437244
437492
437744
437996
438248
438494
438746
438996
439246
439500
439754
440004
440252
440500
440746
440990
441232
441476
441718
441958
442192
442430
442670
442902
443118
443326
443544
443774
443986
444192
444402
444606
444808
445020
445230
445430
445632
445840
446046
446242
446444
446648
446856
447056
447262
447488
447714
447934
448172
448416
448644
448854
449052
449254
449452
449652
449850
450048
450240
450432
450628
450838
451036
451236
451430
451624
451818
452014
452218
452424
452624
452822
453022
453226
453422
453616
453812
454018
454238
454452
454666
454890
455100
455304
455524
455742
455960
456172
456406
456620
456826
457028
457228
457422
457614
457802
457982
458160
458334
458514
458700
458888
459078
459274
459478
459684
459884
460074
460266
460468
460668
460864
461054
461238
461422
461612
461796
461982
462166
462394
462614
462828
463050
463254
463452
463650
463842
464032
464224
464426
464626
464824
465018
465224
465418
465606
465796
465992
466194
466400
466592
466778
466958
467140
467314
467490
467664
467844
468028
468212
468398
468582
468766
468940
469124
469332
469560
469788
470020
470252
470484
470718
470942
471152
471346
471544
471756
471978
472206
472420
472640
472870
473106
473332
473562
473802
474044
474280
474510
474748
474986
475226
475466
475702
475928
476160
476384
476602
476808
477012
477230
477446
477670
477876
478088
478284
478492
478692
478894
479092
479300
479500
479750
479996
480236
480476
480716
480952
481186
481422
481656
481888
482118
482344
482584
482830
483072
483324
483564
483800
484036
484268
484500
484728
484956
485176
485406
485630
485840
486064
486304
486542
486778
487028
487268
487496
487730
487978
488210
488430
488640
488852
489050
489250
489448
489652
489872
490086
490290
490480
490674
490864
491064
491266
491472
491674
491872
492082
492292
492498
492730
492954
493180
493414
493642
493870
494100
494326
494544
494770
495002
495232
495440
495658
495902
496144
496382
496614
496848
497076
497298
497506
497740
497978
498210
498446
498680
498918
499156
499386
499618
499852
500086
500316
500544
500772
501000
501232
501468
501702
501936
502168
502402
502640
502888
503134
503378
503620
503868
504116
504358
504594
504838
505070
505306
505538
505772
506006
506242
506480
506722
506972
507224
507472
507718
507968
508218
508466
508710
508962
509216
509470
509722
509974
510228
510480
510728
510964
511202
511444
511682
511918
512152
512374
512592
512812
513026
513236
513442
513660
513866
514076
514276
514486
514714
514942
515150
515354
515566
515788
516010
516230
516450
516650
516858
517076
517300
517524
517750
517986
518220
518460
518710
518954
519182
519422
519656
519892
520130
520368
520600
520836
521068
521308
521546
521784
522022
522258
522498
522738
522982
523228
523462
523690
523922
524156
524388
524600
524794
524986
525174
525358
525542
525726
525914
526104
526296
526488
526680
526866
527050
527248
527470
527680
527898
528130
528378
528624
528870
529124
529372
529616
529856
530100
530344
530582
530826
531072
531312
531556
531800
532046
532286
532524
532766
533004
533246
533486
533728
533964
534194
534426
534652
534888
535122
535358
535594
535818
536044
536268
536492
536720
536944
537172
537412
537654
537888
538108
538320
538526
538728
538938
539166
539394
539624
539848
540072
540292
540516
540736
540950
541170
541396
541616
541826
542038
542260
542478
542680
542884
543090
543292
543488
543704
543928
544158
544380
544590
544802
545014
545232
545446
545656
545868
546086
546306
546524
546752
546978
547204
547430
547660
547892
548126
548356
548588
548820
549054
549284
549512
549734
549940
550142
550336
550542
550752
550960
551162
551358
551558
551758
551962
552168
552372
552584
552798
553016
553224
553434
553650
553870
554086
554298
554520
554744
554970
555192
555416
555638
555860
556084
556308
556534
556760
556986
557208
557432
557654
557876
558084
558284
558484
558698
558920
559140
559364
559586
559806
560032
560258
560482
560704
560926
561148
561370
561588
561806
562014
562226
562432
562632
562828
563016
563204
563390
563578
563766
563950
564136
564320
564500
564684
564862
565038
565214
565386
565556
565730
565908
566096
566306
566518
566724
566960
567214
567468
567726
567990
568256
568520
568782
569042
569296
569548
569798
570038
570272
570506
570736
570964
571196
571428
571660
571892
572118
572342
572572
572796
573022
573252
573484
573714
573950
574192
574432
574674
574922
575166
575414
575660
575910
576156
576394
576630
576872
577116
577362
577604
577846
578084
578324
578562
578800
579036
579272
579510
579754
579996
580236
580474
580714
580950
581180
581410
581636
581870
582104
582336
582564
582798
583030
583266
583498
583738
583976
584216
584454
584696
584936
585176
585410
585646
585878
586112
586342
586576
586806
587040
587272
587504
587738
587976
588210
588446
588682
588914
589140
589360
589576
589790
590016
590244
590478
590712
590956
591202
591448
591694
591940
592184
592428
592664
592902
593136
593370
593598
593832
594068
594304
594542
594784
595030
595278
595522
595766
596006
596244
596480
596712
596940
597172
597406
597636
597864
598094
598326
598556
598792
599028
599268
599504
599746
599988
600230
600470
600714
600956
601196
601434
601678
601922
602164
602404
602648
602892
603130
603366
603598
603834
604070
604302
604532
604764
604998
605228
605460
605696
605930
606168
606408
606650
606890
607132
607370
607614
607854
608092
608326
608564
608798
609034
609266
609504
609736
609970
610200
610434
610670
610906
611138
611372
611608
611846
612080
612318
612548
612774
613002
613230
613460
613690
613922
614148
614382
614614
614850
615084
615322
615560
615796
616032
616274
616514
616754
616990
617226
617462
617698
617932
618166
618402
618634
618866
619096
619330
619560
619792
620022
620252
620482
620710
620936
621168
621394
621620
621840
622066
622288
622508
622718
622928
623160
623396
623626
623852
624084
624314
624546
624778
625014
625252
625490
625726
625966
626208
626452
626692
626934
627174
627410
627644
627878
628114
628346
628574
628798
629020
629234
629436
629630
629824
630020
630216
630410
630604
630806
631012
631216
631422
631636
631864
632094
632328
632566
632808
633050
633296
633542
633790
634038
634290
634538
634788
635036
635284
635532
635782
636028
636276
636518
636756
636988
637216
637442
637672
637902
638130
638362
638594
638824
639054
639286
639518
639750
639984
640218
640450
640686
640916
641148
641374
641602
641826
642052
642278
642502
642728
642952
643168
643380
643600
643818
644038
644246
644458
644662
644860
645056
645254
645456
645674
645878
646080
646292
646516
646730
646948
647170
647390
647604
647806
648018
648224
648428
648626
648828
649038
649258
649480
649704
649934
650162
650390
650614
650838
651064
651292
651520
651750
651978
652206
652436
652662
652892
653118
653346
653572
653798
654022
654250
654476
654702
654924
655148
655372
655598
655824
656044
656268
656488
656708
656926
657142
657362
657586
657810
658034
658258
658480
658706
658926
659144
659358
659572
659786
660000
660214
660428
660644
660856
661070
661288
661510
661734
661954
662180
662402
662626
662842
663060
663276
663496
663706
663914
664126
664342
664558
664772
664990
665206
665426
665640
665844
666050
666266
666490
666710
666924
667148
667370
667594
667820
668048
668276
668506
668736
668970
669206
669442
669676
669916
670152
670394
670632
670870
671104
671338
671564
671790
672018
672246
672472
672702
672934
673168
673398
673632
673866
674094
674326
674556
674786
675008
675220
675422
675632
675850
676068
676284
676508
676734
676960
677186
677416
677652
677886
678120
678356
678596
678832
679066
679302
679538
679770
680000
680230
680464
680696
680928
681162
681396
681630
681860
682086
682302
682508
682708
682902
683106
683332
683560
683786
684014
684244
684476
684702
684934
685160
685384
685600
685814
686028
686238
686454
686668
686888
687104
687324
687540
687760
687976
688188
688392
688592
688800
689006
689212
689410
689602
689794
689980
690164
690346
690524
690702
690878
691050
691224
691402
691582
691766
691964
692174
692398
692626
692858
693094
693338
693584
693832
694076
694316
694552
694790
695028
695270
695508
695740
695972
696204
696430
696664
696892
697126
697352
697582
697812
698044
698274
698500
698726
698950
699174
699396
699620
699848
700080
700308
700534
700766
701002
701236
701466
701698
701932
702162
702386
702616
702848
703084
703312
703536
703752
703980
704210
704442
704670
704906
705140
705376
705612
705854
706094
706330
706566
706806
707042
707278
707512
707746
707976
708206
708440
708670
708902
709126
709356
709584
709816
710042
710274
710502
710730
710956
711184
711412
711642
711870
712102
712336
712572
712804
713044
713286
713526
713766
714008
714250
714486
714720
714954
715188
715420
715652
715890
716132
716372
716608
716840
717070
717282
717482
717678
717868
718056
718244
718428
718610
718792
718972
719150
719332
719518
719708
719896
720082
720268
720454
720640
720824
721006
721186
721374
721562
721746
721930
722116
722320
722526
722730
722934
723154
723370
723578
723778
723972
724164
724362
724562
724764
724966
725156
725350
725544
725736
725934
726148
726364
726578
726804
727034
727260
727492
727728
727964
728198
728430
728666
728904
729136
729366
729598
729828
730054
730280
730508
730736
730960
731184
731410
731640
731866
732090
732320
732548
732774
732996
733224
733450
733672
733890
734114
734334
734552
734770
734988
735212
735430
735648
735850
736070
736290
736514
736730
736946
737168
737390
737616
737842
738076
738306
738540
738770
739004
739234
739464
739690
739916
740140
740358
740570
740774
740986
741190
741386
741572
741764
741984
742206
742436
742662
742892
743122
743362
743596
743832
744072
744310
744544
744774
745004
745232
745456
745686
745912
746140
746372
746602
746834
747062
747294
747526
747762
747994
748228
748462
748700
748932
749166
749400
749634
749868
750094
750322
750548
750778
751004
751230
751462
751696
751928
752156
752384
752610
752832
753052
753276
753500
753728
753954
754184
754412
754644
754872
755104
755334
755558
755770
755962
756146
756332
756534
756736
756946
757164
757390
757618
757836
758064
758282
758498
758726
758962
759196
759440
759688
759938
760182
760430
760678
760928
761172
761412
761650
761890
762124
762358
762596
762836
763072
763310
763546
763782
764020
764254
764484
764716
764952
765188
765416
765642
765866
766088
766308
766520
766736
766950
767152
767348
767554
767762
767962
768156
768354
768548
768744
768936
769126
769322
769530
769736
769934
770124
770322
770548
770778
771002
771238
771480
771718
771956
772202
772446
772690
772930
773166
773398
773632
773860
774090
774322
774558
774790
775020
775244
775462
775666
775874
776080
776280
776486
776704
776924
777142
777354
777568
777782
778002
778218
778440
778668
778898
779120
779336
779540
779760
779982
780204
780418
780632
780850
781062
781264
781460
781650
781840
782032
782234
782430
782620
782822
783028
783230
783428
783626
783846
784066
784286
784506
784736
784964
785190
785408
785630
785848
786068
786284
786500
786718
786936
787166
787386
787592
787780
787974
788176
788380
788580
788788
789002
789218
789434
789662
789896
790130
790370
790612
790856
791102
791340
791584
791824
792064
792298
792538
792778
793014
793248
793480
793712
793946
794178
794408
794638
794870
795098
795324
795554
795780
796004
796220
796430
796630
796840
797048
797250
797448
797654
797868
798086
798304
798530
798760
798994
799224
799454
799682
799910
800134
800358
800582
800806
801028
801246
801470
801698
801926
802148
802374
802600
802826
803046
803266
803488
803714
803934
804152
804374
804600
804822
805040
805264
805488
805708
805926
806150
806374
806598
806816
807024
807236
807448
807664
807866
808060
808260
808458
808656
808860
809060
809258
809470
809678
809884
810086
810294
810508
810722
810936
811142
811354
811572
811784
811994
812194
812400
812606
812808
813008
813210
813424
813642
813860
814070
814264
814458
814648
814840
815034
815234
815432
815630
815840
816058
816274
816490
816706
816924
817134
817330
817530
817734
817950
818164
818386
818614
818848
819078
819308
819536
819762
819976
820184
820394
820602
820804
821008
821218
821432
821650
821866
822088
822316
822542
822768
822988
823212
823434
823654
823868
824084
824300
824512
824718
824930
825146
825364
825580
825798
826022
826248
826474
826700
826932
827164
827388
827608
827828
828052
828274
828490
828704
828924
829152
829374
829590
829806
830022
830218
830414
830612
830820
831038
831244
831440
831646
831856
832076
832294
832510
832710
832916
833110
833298
833486
833674
833868
834060
834248
834440
834622
834802
834976
835150
835318
835486
835648
835808
835964
836118
836280
836450
836628
836802
836984
837188
837410
837638
837864
838088
838310
838516
838712
838900
839080
839260
839436
839612
839786
839956
840126
840294
840456
840618
840780
840942
841104
841266
841426
841594
841772
841986
842194
842406
842606
842798
842988
843178
843356
843534
843710
843886
844060
844230
844396
844562
844726
844892
845066
845238
845426
845634
845840
846044
846230
846410
846590
846764
846940
847116
847284
847450
847616
847784
847956
848126
848294
848478
848684
848886
849078
849262
849440
849620
849802
849988
850182
850374
850558
850734
850908
851080
851250
851416
851578
851738
851902
852070
852240
852414
852604
852816
853028
853236
853448
853658
853850
854036
854218
854392
854564
854730
854896
855060
855222
855382
855540
855706
855882
856056
856232
856414
856602
856790
856970
857148
857330
857506
857680
857850
858018
858188
858356
858524
858690
858854
859016
859178
859336
859494
859656
859824
860002
860186
860368
860552
860742
860924
861100
861272
861440
861608
861772
861936
862098
862260
862420
862584
862764
862962
863156
863356
863550
863742
863924
864106
864282
864452
864622
864786
864950
865114
865278
865446
865616
865784
865962
866142
866330
866522
866708
866884
867058
867228
867398
867566
867732
867900
868066
868230
868396
868566
868742
868918
869094
869280
869476
869688
869900
870100
870306
870512
870710
870902
871092
871278
871458
871640
871828
872016
872204
872394
872592
872800
873002
873204
873410
873614
873814
874008
874200
874386
874564
874742
874918
875112
875304
875504
875706
875922
876136
876350
876562
876772
876974
877170
877360
877540
877714
877886
878062
878244
878436
878632
878842
879062
879290
879514
879740
879966
880192
880410
880626
880832
881034
881224
881408
881596
881788
881980
882180
882392
882612
882832
883054
883284
883512
883736
883952
884158
884348
884536
884726
884914
885092
885280
885474
885664
885862
886066
886260
886444
886632
886818
887002
887184
887368
887546
887720
887896
888088
888302
888512
888722
888950
889182
889406
889628
889854
890076
890294
890514
890730
890944
891160
891378
891592
891806
892018
892246
892468
892688
892914
893138
893358
893576
893792
894004
894214
894416
894606
894796
894988
895176
895364
895556
895758
895952
896154
896356
896554
896764
896966
897166
897368
897572
897770
897974
898180
898382
898582
898786
898992
899206
899420
899642
899870
900094
900316
900536
900754
900966
901176
901382
901582
901770
901972
902178
902374
902576
902780
902986
903186
903372
903560
903748
903938
904120
904308
904512
904720
904932
905142
905350
905556
905754
905950
906140
906330
906522
906704
906884
907060
907232
907400
907570
907742
907934
908124
908320
908540
908766
908996
909222
909452
909678
909900
910118
910330
910536
910732
910920
911104
911292
911472
911656
911848
912056
912266
912500
912738
912968
913194
913426
913658
913884
914110
914330
914550
914770
914986
915208
915430
915652
915878
916106
916338
916566
916794
917022
917250
917478
917706
917934
918166
918396
918634
918870
919110
919346
919580
919814
920048
920282
920514
920744
920972
921202
921430
921656
921882
922106
922326
922546
922768
922998
923224
923458
923696
923936
924182
924430
924674
924916
925162
925404
925640
925880
926118
926354
926596
926846
927096
927348
927604
927856
928100
928346
928580
928812
929038
929266
929496
929724
929954
930184
930414
930644
930880
931116
931350
931586
931828
932068
932306
932544
932786
933020
933252
933486
933726
933960
934196
934438
934682
934924
935166
935404
935646
935892
936144
936392
936642
936898
937158
937412
937668
937924
938180
938432
938684
938938
939192
939442
939692
939946
940194
940438
940682
940928
941166
941404
941648
941894
942136
942372
942612
942844
943084
943326
943566
943810
944048
944282
944516
944754
944998
945236
945476
945722
945970
946218
946468
946720
946968
947212
947462
947710
947958
948208
948456
948692
948928
949160
949398
949630
949864
950098
950332
950572
950812
951050
951284
951512
951748
951986
952226
952468
952716
952962
953210
953456
953708
953962
954214
954470
954730
954990
955246
955500
955750
955998
956244
956486
956736
956986
957238
957490
957744
957996
958242
958496
958752
959006
959262
959522
959778
960032
960282
960534
960784
961032
961284
961538
961788
962042
962298
962556
962810
963060
963312
963560
963806
964050
964296
964544
964788
965022
965260
965500
965744
965986
966234
966488
966742
966998
967254
967514
967770
968022
968274
968526
968776
969022
969274
969524
969780
970032
970292
970546
970804
971056
971310
971556
971800
972048
972296
972540
972776
973014
973260
973502
973746
973986
974232
974478
974722
974966
975216
975466
975712
975954
976200
976444
976690
976932
977178
977426
977672
977918
978166
978416
978664
978902
979138
979376
979620
979862
980102
980344
980586
980826
981066
981312
981566
981824
982080
982342
982604
982864
983120
983380
983634
983886
984136
984392
984644
984900
985148
985404
985658
985914
986166
986422
986676
986928
987178
987430
987684
987934
988180
988428
988674
988922
989170
989418
989668
989910
990148
990388
990632
990874
991114
991358
991608
991856
992108
992362
992618
992870
993130
993392
993648
993904
994162
994420
994672
994926
995180
995430
995678
995926
996178
996428
996672
996922
997172
997424
997672
997924
998176
998428
998676
998920
999150
999364
999564
999756
999946
1000130
1000310
1000486
1000660
1000829
1001000
1001159
1001334
1001496
1001658
1001820
1001982
1002156
1002334
1002512
1002708
1002916
1003148
1003392
1003648
1003920
1004204
1004486
1004766
1005040
1005310
1005568
1005816
1006072
1006330
1006588
1006850
1007110
1007372
1007634
1007898
1008164
1008428
1008696
1008962
1009228
1009484
1009746
1010010
1010268
1010524
1010788
1011054
1011314
1011572
1011834
1012094
1012354
1012618
1012886
1013160
1013428
1013698
1013972
1014240
1014504
1014770
1015032
1015294
1015558
1015824
1016088
1016348
1016614
1016882
1017132
1017384
1017636
1017882
1018126
1018366
1018608
1018852
1019090
1019334
1019578
1019826
1020076
1020328
1020574
1020828
1021076
1021328
1021574
1021824
1022068
1022314
1022560
1022802
1023044
1023290
1023530
1023768
1024002
1024248
1024492
1024732
1024964
1025208
1025456
1025708
1025958
1026210
1026462
1026714
1026964
1027216
1027468
1027714
1027954
1028196
1028446
1028706
1028964
1029222
1029486
1029750
1030008
1030258
1030504
1030748
1030990
1031230
1031472
1031716
1031956
1032200
1032438
1032676
1032906
1033132
1033352
1033594
1033840
1034082
1034328
1034574
1034818
1035064
1035314
1035566
1035814
1036056
1036294
1036536
1036782
1037032
1037280
1037540
1037804
1038064
1038318
1038574
1038830
1039080
1039326
1039574
1039824
1040074
1040324
1040576
1040832
1041084
1041336
1041590
1041842
1042088
1042334
1042578
1042826
1043070
1043314
1043560
1043810
1044062
1044306
1044554
1044798
1045040
1045278
1045514
1045756
1045996
1046244
1046486
1046728
1046966
1047204
1047450
1047702
1047958
1048218
1048476
1048736
1048998
1049254
1049504
1049750
1049994
1050230
1050468
1050704
1050942
1051186
1051430
1051676
1051928
1052184
1052436
1052686
1052934
1053184
1053428
1053670
1053904
1054136
1054372
1054606
1054840
1055074
1055308
1055528
1055760
1056004
1056246
1056504
1056756
1057004
1057250
1057496
1057746
1057994
1058238
1058482
1058726
1058972
1059220
1059472
1059728
1059984
1060240
1060492
1060748
1061002
1061248
1061490
1061732
1061972
1062210
1062446
1062680
1062914
1063154
1063394
1063634
1063870
1064096
1064320
1064546
1064776
1064996
1065216
1065430
1065644
1065864
1066096
1066322
1066552
1066784
1067030
1067278
1067530
1067776
1068020
1068258
1068490
1068702
1068928
1069160
1069394
1069620
1069834
1070064
1070304
1070542
1070780
1071030
1071282
1071540
1071794
1072046
1072298
1072550
1072796
1073044
1073292
1073542
1073784
1074030
1074270
1074506
1074738
1074972
1075198
1075436
1075674
1075920
1076168
1076420
1076670
1076914
1077154
1077394
1077626
1077870
1078116
1078366
1078608
1078856
1079104
1079352
1079594
1079838
1080080
1080324
1080566
1080810
1081054
1081298
1081542
1081788
1082036
1082288
1082534
1082780
1083020
1083264
1083506
1083746
1083982
1084222
1084462
1084704
1084944
1085176
1085410
1085632
1085850
1086054
1086250
1086470
1086698
1086934
1087168
1087404
1087640
1087880
1088124
1088372
1088626
1088886
1089144
1089402
1089658
1089916
1090162
1090408
1090650
1090884
1091120
1091362
1091600
1091850
1092098
1092352
1092604
1092856
1093112
1093370
1093624
1093880
1094136
1094396
1094652
1094906
1095156
1095408
1095660
1095906
1096148
1096388
1096626
1096866
1097104
1097348
1097596
1097844
1098080
1098320
1098560
1098810
1099054
1099298
1099542
1099788
1100030
1100268
1100506
1100738
1100958
1101176
1101386
1101604
1101828
1102060
1102290
1102514
1102758
1103006
1103248
1103492
1103746
1104002
1104256
1104516
1104776
1105030
1105280
1105534
1105786
1106036
1106284
1106538
1106788
1107036
1107288
1107546
1107798
1108050
1108300
1108554
1108808
1109058
1109308
1109556
1109802
1110042
1110284
1110532
1110778
1111012
1111254
1111504
1111754
1112002
1112260
1112518
1112772
1113024
1113278
1113528
1113770
1114010
1114256
1114512
1114768
1115026
1115282
1115538
1115796
1116046
1116294
1116540
1116792
1117044
1117294
1117542
1117796
1118048
1118304
1118558
1118810
1119062
1119314
1119564
1119812
1120060
1120308
1120554
1120792
1121028
1121270
1121514
1121762
1122010
1122256
1122504
1122758
1123010
1123258
1123512
1123766
1124020
1124272
1124528
1124782
1125036
1125282
1125534
1125784
1126032
1126276
1126522
1126770
1127024
1127278
1127530
1127788
1128046
1128304
1128558
1128808
1129058
1129304
1129548
1129794
1130044
1130292
1130536
1130790
1131044
1131300
1131546
1131788
1132028
1132264
1132500
1132736
1132974
1133210
1133460
1133718
1133976
1134232
1134488
1134744
1134996
1135244
1135490
1135742
1135990
1136242
1136494
1136748
1137002
1137256
1137512
1137770
1138024
1138278
1138534
1138794
1139048
1139298
1139550
1139802
1140050
1140292
1140536
1140784
1141034
1141280
1141526
1141780
1142036
1142288
1142540
1142794
1143048
1143298
1143552
1143804
1144052
1144300
1144554
1144802
1145054
1145302
1145556
1145808
1146058
1146310
1146566
1146824
1147078
1147334
1147588
1147842
1148092
1148344
1148592
1148840
1149092
1149346
1149602
1149856
1150104
1150362
1150618
1150870
1151116
1151366
1151612
1151858
1152102
1152348
1152586
1152816
1153034
1153282
1153540
1153794
1154048
1154310
1154570
1154826
1155078
1155336
1155596
1155852
1156104
1156362
1156620
1156876
1157134
1157392
1157650
1157904
1158156
1158416
1158668
1158916
1159162
1159404
1159644
1159884
1160126
1160366
1160600
1160840
1161086
1161336
1161582
1161832
1162066
1162308
1162552
1162786
1163028
1163268
1163504
1163740
1163984
1164224
1164464
1164700
1164934
1165164
1165404
1165646
1165894
1166142
1166384
1166622
1166868
1167112
1167356
1167598
1167844
1168082
1168320
1168570
1168818
1169066
1169324
1169582
1169844
1170100
1170366
1170634
1170898
1171162
1171410
1171656
1171906
1172150
1172390
1172632
1172878
1173122
1173372
1173614
1173864
1174126
1174386
1174644
1174900
1175160
1175416
1175670
1175926
1176184
1176438
1176692
1176950
1177210
1177468
1177720
1177978
1178236
1178490
1178740
1178992
1179244
1179492
1179736
1179984
1180238
1180492
1180740
1180992
1181248
1181506
1181760
1182018
1182276
1182534
1182786
1183044
1183300
1183558
1183814
1184072
1184328
1184578
1184820
1185062
1185280
1185490
1185706
1185944
1186186
1186420
1186662
1186912
1187158
1187404
1187650
1187898
1188142
1188384
1188630
1188880
1189128
1189376
1189624
1189878
1190128
1190380
1190630
1190882
1191130
1191374
1191620
1191868
1192116
1192370
1192624
1192882
1193140
1193392
1193646
1193894
1194140
1194388
1194634
1194878
1195124
1195368
1195612
1195850
1196092
1196334
1196582
1196824
1197066
1197312
1197554
1197792
1198032
1198272
1198508
1198740
1198980
1199216
1199458
1199696
1199938
1200180
1200422
1200664
1200908
1201150
1201388
1201628
1201870
1202108
1202352
1202602
1202850
1203096
1203350
1203606
1203860
1204114
1204372
1204626
1204878
1205128
1205380
1205624
1205866
1206108
1206354
1206596
1206844
1207090
1207336
1207580
1207826
1208078
1208332
1208580
1208830
1209084
1209336
1209582
1209828
1210072
1210314
1210548
1210786
1211024
1211268
1211506
1211752
1211998
1212242
1212478
1212710
1212944
1213176
1213382
1213582
1213782
1213988
1214186
1214378
1214570
1214760
1214950
1215148
1215352
1215558
1215756
1215960
1216168
1216380
1216602
1216830
1217082
1217332
1217594
1217856
1218138
1218422
1218700
1218978
1219262
1219536
1219800
1220064
1220336
1220602
1220870
1221136
1221400
1221660
1221918
1222178
1222434
1222686
1222938
1223186
1223438
1223686
1223940
1224198
1224452
1224706
1224958
1225212
1225468
1225724
1225974
1226220
1226470
1226722
1226972
1227220
1227474
1227728
1227980
1228232
1228486
1228742
1228992
1229242
1229494
1229744
1229990
1230240
1230488
1230736
1230984
1231234
1231480
1231722
1231970
1232220
1232464
1232708
1232958
1233210
1233460
1233710
1233962
1234216
1234466
1234718
1234970
1235218
1235474
1235726
1235982
1236238
1236492
1236748
1236998
1237242
1237490
1237736
1237986
1238230
1238484
1238740
1238996
1239256
1239518
1239772
1240028
1240284
1240536
1240782
1241032
1241280
1241528
1241774
1242024
1242276
1242526
1242774
1243024
1243276
1243526
1243776
1244028
1244282
1244530
1244784
1245034
1245282
1245530
1245780
1246030
1246278
1246528
1246780
1247028
1247278
1247532
1247788
1248040
1248294
1248552
1248806
1249054
1249306
1249552
1249796
1250040
1250286
1250536
1250786
1251036
1251288
1251536
1251788
1252036
1252290
1252546
1252798
1253052
1253308
1253560
1253808
1254056
1254302
1254546
1254790
1255040
1255286
1255532
1255780
1256028
1256270
1256514
1256756
1256998
1257240
1257486
1257732
1257978
1258226
1258478
1258726
1258982
1259244
1259506
1259772
1260040
1260308
1260576
1260846
1261112
1261378
1261634
1261896
1262164
1262434
1262704
1262978
1263248
1263514
1263780
1264034
1264292
1264544
1264794
1265040
1265286
1265526
1265764
1266002
1266242
1266478
1266720
1266960
1267204
1267442
1267688
1267936
1268188
1268442
1268700
1268954
1269212
1269472
1269728
1269988
1270250
1270506
1270762
1271018
1271268
1271520
1271768
1272014
1272260
1272510
1272760
1273010
1273262
1273508
1273752
1273998
1274240
1274488
1274748
1275012
1275276
1275552
1275822
1276086
1276356
1276620
1276878
1277134
1277388
1277636
1277884
1278130
1278376
1278616
1278860
1279100
1279346
1279588
1279832
1280080
1280326
1280570
1280814
1281060
1281306
1281550
1281794
1282038
1282286
1282530
1282776
1283026
1283280
1283528
1283776
1284026
1284278
1284526
1284774
1285024
1285278
1285530
1285790
1286052
1286314
1286572
1286826
1287086
1287344
1287596
1287852
1288110
1288366
1288628
1288888
1289146
1289402
1289660
1289918
1290170
1290418
1290668
1290916
1291162
1291408
1291654
1291900
1292144
1292394
1292640
1292888
1293146
1293410
1293676
1293938
1294192
1294440
1294690
1294928
1295146
1295364
1295606
1295860
1296112
1296372
1296628
1296886
1297154
1297422
1297688
1297962
1298232
1298496
1298766
1299032
1299292
1299550
1299810
1300064
1300318
1300566
1300816
1301064
1301314
1301562
1301816
1302068
1302320
1302570
1302822
1303060
1303296
1303520
1303760
1303990
1304226
1304478
1304724
1304974
1305232
1305486
1305742
1306006
1306272
1306536
1306802
1307072
1307334
1307594
1307854
1308114
1308368
1308626
1308882
1309138
1309394
1309658
1309918
1310174
1310432
1310690
1310944
1311194
1311446
1311696
1311944
1312190
1312436
1312678
1312928
1313180
1313434
1313678
1313932
1314184
1314432
1314678
1314926
1315168
1315410
1315648
1315890
1316132
1316372
1316610
1316854
1317098
1317346
1317592
1317846
1318090
1318344
1318598
1318848
1319102
1319358
1319606
1319854
1320102
1320348
1320596
1320840
1321084
1321328
1321570
1321816
1322070
1322328
1322584
1322838
1323094
1323346
1323598
1323850
1324102
1324348
1324602
1324852
1325104
1325350
1325602
1325850
1326094
1326334
1326578
1326822
1327064
1327306
1327554
1327802
1328056
1328308
1328570
1328836
1329098
1329360
1329624
1329882
1330138
1330398
1330654
1330908
1331168
1331426
1331676
1331934
1332190
1332448
1332700
1332960
1333214
1333466
1333714
1333964
1334214
1334460
1334708
1334956
1335198
1335444
1335692
1335936
1336180
1336428
1336676
1336922
1337166
1337410
1337652
1337898
1338150
1338402
1338652
1338906
1339156
1339406
1339662
1339912
1340162
1340410
1340658
1340902
1341144
1341390
1341636
1341876
1342122
1342368
1342618
1342858
1343102
1343344
1343586
1343826
1344072
1344318
1344566
1344814
1345066
1345314
1345566
1345816
1346070
1346318
1346562
1346804
1347052
1347302
1347558
1347814
1348068
1348324
1348586
1348842
1349100
1349360
1349622
1349888
1350148
1350408
1350662
1350916
1351166
1351418
1351672
1351930
1352186
1352448
1352714
1352992
1353262
1353526
1353788
1354050
1354314
1354568
1354818
1355064
1355310
1355556
1355802
1356052
1356302
1356552
1356800
1357040
1357286
1357522
1357760
1357974
1358182
1358404
1358610
1358818
1359054
1359286
1359516
1359766
1360012
1360260
1360514
1360764
1361016
1361270
1361522
1361774
1362028
1362274
1362522
1362770
1363018
1363260
1363506
1363750
1363994
1364232
1364474
1364716
1364954
1365192
1365430
1365670
1365908
1366144
1366380
1366616
1366852
1367088
1367326
1367568
1367808
1368048
1368292
1368538
1368782
1369024
1369266
1369510
1369750
1369990
1370230
1370472
1370712
1370948
1371184
1371426
1371664
1371906
1372136
1372380
1372626
1372876
1373120
1373372
1373626
1373882
1374130
1374380
1374632
1374890
1375144
1375394
1375646
1375902
1376152
1376404
1376656
1376900
1377152
1377402
1377648
1377892
1378138
1378382
1378626
1378862
1379104
1379348
1379590
1379830
1380076
1380326
1380574
1380810
1381052
1381284
1381502
1381708
1381912
1382108
1382306
1382498
1382688
1382876
1383062
1383248
1383434
1383620
1383804
1383992
1384188
1384392
1384598
1384802
1385028
1385270
1385516
1385764
1386024
1386286
1386548
1386816
1387088
1387354
1387622
1387894
1388152
1388410
1388664
1388922
1389170
1389426
1389684
1389940
1390186
1390436
1390688
1390938
1391186
1391436
1391682
1391928
1392178
1392430
1392676
1392924
1393178
1393434
1393686
1393940
1394194
1394448
1394698
1394950
1395208
1395464
1395716
1395958
1396210
1396460
1396712
1396962
1397214
1397468
1397720
1397964
1398216
1398464
1398710
1398958
1399208
1399458
1399706
1399952
1400204
1400458
1400712
1400968
1401228
1401492
1401748
1402002
1402254
1402506
1402762
1403018
1403272
1403534
1403794
1404052
1404302
1404556
1404804
1405054
1405304
1405558
1405810
1406068
1406328
1406586
1406846
1407104
1407360
1407616
1407878
1408134
1408394
1408656
1408912
1409166
1409426
1409684
1409944
1410204
1410468
1410724
1410982
1411242
1411500
1411776
1412038
1412294
1412530
1412777
1413034
1413280
1413530
1413776
1414028
1414286
1414538
1414796
1415054
1415308
1415578
1415828
1416076
1416318
1416542
1416752
1416980
1417218
1417478
1417740
1417998
1418256
1418520
1418780
1419048
1419308
1419568
1419826
1420080
1420330
1420578
1420818
1421058
1421284
1421498
1421716
1421924
1422130
1422340
1422548
1422754
1422964
1423194
1423438
1423672
1423910
1424164
1424416
1424654
1424906
1425154
1425394
1425634
1425882
1426126
1426366
1426616
1426872
1427120
1427376
1427630
1427882
1428126
1428376
1428626
1428876
1429130
1429388
1429646
1429910
1430174
1430438
1430698
1430960
1431216
1431478
1431744
1432004
1432262
1432514
1432768
1433020
1433268
1433514
1433762
1434008
1434250
1434490
1434722
1434954
1435190
1435430
1435686
1435932
1436192
1436450
1436696
1436954
1437208
1437454
1437702
1437948
1438182
1438416
1438652
1438886
1439134
1439390
1439640
1439888
1440146
1440400
1440652
1440914
1441174
1441432
1441688
1441946
1442198
1442450
1442696
1442946
1443190
1443434
1443680
1443926
1444168
1444414
1444660
1444900
1445138
1445376
1445612
1445850
1446092
1446332
1446576
1446832
1447082
1447332
1447586
1447840
1448086
1448338
1448592
1448844
1449094
1449352
1449606
1449864
1450124
1450384
1450638
1450894
1451144
1451390
1451638
1451884
1452136
1452384
1452630
1452870
1453120
1453368
1453618
1453866
1454112
1454352
1454598
1454848
1455102
1455352
1455610
1455864
1456116
1456370
1456626
1456876
1457132
1457394
1457662
1457924
1458194
1458470
1458746
1459020
1459294
1459566
1459830
1460094
1460350
1460610
1460864
1461124
1461390
1461656
1461926
1462194
1462464
1462728
1462990
1463250
1463510
1463762
1464018
1464268
1464522
1464776
1465026
1465278
1465528
1465776
1466024
1466274
1466526
1466778
1467026
1467274
1467524
1467770
1468016
1468268
1468510
1468758
1469000
1469240
1469478
1469712
1469934
1470164
1470410
1470656
1470912
1471180
1471438
1471706
1471974
1472238
1472502
1472766
1473026
1473288
1473552
1473806
1474070
1474330
1474584
1474840
1475098
1475348
1475602
1475852
1476100
1476340
1476578
1476814
1477058
1477300
1477548
1477794
1478040
1478286
1478526
1478762
1478998
1479228
1479458
1479690
1479922
1480150
1480386
1480626
1480870
1481116
1481368
1481620
1481870
1482116
1482364
1482612
1482866
1483124
1483380
1483630
1483888
1484138
1484390
1484642
1484888
1485132
1485378
1485620
1485864
1486106
1486348
1486590
1486836
1487080
1487320
1487560
1487798
1488034
1488276
1488518
1488764
1489010
1489256
1489496
1489738
1489970
1490196
1490418
1490636
1490848
1491058
1491280
1491504
1491730
1491950
1492164
1492364
1492564
1492766
1492958
1493150
1493340
1493532
1493726
1493922
1494122
1494328
1494542
1494750
1494972
1495196
1495416
1495630
1495836
1496040
1496238
1496400
1496604
1496788
1496968
1497146
1497324
1497502
1497678
1497854
1498032
1498214
1498400
1498616
1498814
1499026
1499254
1499486
1499732
1499994
1500250
1500510
1500780
1501048
1501312
1501574
1501836
1502094
1502342
1502588
1502842
1503090
1503348
1503604
1503862
1504116
1504378
1504640
1504900
1505158
1505418
1505678
1505932
1506188
1506444
1506700
1506952
1507206
1507458
1507712
1507964
1508226
1508490
1508758
1509022
1509294
1509558
1509818
1510082
1510338
1510596
1510844
1511082
1511314
1511542
1511766
1512012
1512260
1512504
1512750
1512994
1513232
1513474
1513712
1513954
1514196
1514438
1514670
1514894
1515116
1515338
1515556
1515784
1516022
1516264
1516516
1516774
1517038
1517308
1517586
1517864
1518138
1518414
1518686
1518952
1519214
1519478
1519744
1520000
1520264
1520528
1520792
1521050
1521310
1521568
1521826
1522076
1522332
1522584
1522838
1523088
1523342
1523596
1523848
1524094
1524346
1524594
1524836
1525072
1525310
1525534
1525750
1525966
1526194
1526416
1526630
1526864
1527104
1527342
1527586
1527834
1528086
1528334
1528576
1528822
1529072
1529316
1529562
1529804
1530046
1530296
1530554
1530814
1531076
1531346
1531620
1531894
1532174
1532454
1532728
1533002
1533270
1533536
1533800
1534058
1534316
1534570
1534822
1535072
1535320
1535566
1535810
1536054
1536296
1536534
1536770
1537010
1537248
1537484
1537720
1537958
1538198
1538440
1538680
1538924
1539170
1539422
1539672
1539930
1540188
1540442
1540694
1540944
1541192
1541438
1541682
1541926
1542174
1542422
1542670
1542916
1543168
1543420
1543674
1543928
1544184
1544434
1544686
1544932
1545176
1545416
1545658
1545894
1546132
1546366
1546604
1546844
1547090
1547332
1547574
1547818
1548062
1548302
1548544
1548784
1549028
1549272
1549516
1549764
1550016
1550266
1550516
1550770
1551022
1551274
1551528
1551782
1552032
1552280
1552530
1552778
1553024
1553268
1553510
1553754
1554000
1554244
1554492
1554740
1554992
1555242
1555498
1555754
1556012
1556266
1556520
1556776
1557026
1557274
1557526
1557774
1558020
1558266
1558512
1558760
1559004
1559246
1559490
1559734
1559978
1560218
1560460
1560702
1560942
1561182
1561422
1561668
1561914
1562160
1562408
1562660
1562910
1563158
1563412
1563670
1563924
1564180
1564436
1564694
1564950
1565202
1565452
1565702
1565950
1566196
1566444
1566690
1566938
1567186
1567434
1567686
1567936
1568184
1568436
1568684
1568932
1569180
1569430
1569676
1569922
1570172
1570418
1570662
1570906
1571146
1571388
1571624
1571862
1572102
1572348
1572592
1572844
1573102
1573364
1573622
1573884
1574144
1574404
1574666
1574928
1575188
1575444
1575702
1575962
1576218
1576470
1576722
1576972
1577220
1577468
1577720
1577974
1578232
1578486
1578750
1579014
1579278
1579536
1579796
1580050
1580308
1580560
1580812
1581062
1581310
1581554
1581802
1582046
1582296
1582540
1582796
1583052
1583304
1583558
1583816
1584074
1584326
1584580
1584832
1585086
1585334
1585586
1585838
1586094
1586348
1586608
1586870
1587132
1587394
1587654
1587912
1588166
1588416
1588662
1588908
1589150
1589388
1589628
1589868
1590104
1590344
1590578
1590812
1591048
1591290
1591536
1591786
1592046
1592302
1592560
1592816
1593074
1593332
1593590
1593852
1594110
1594370
1594628
1594884
1595136
1595386
1595638
1595890
1596142
1596390
1596634
1596880
1597128
1597372
1597618
1597874
1598134
1598392
1598662
1598932
1599198
1599464
1599730
1599990
1600244
1600500
1600760
1601020
1601286
1601558
1601832
1602102
1602378
1602654
1602918
1603186
1603448
1603710
1603964
1604224
1604484
1604736
1604986
1605234
1605482
1605728
1605972
1606224
1606482
1606742
1607002
1607270
1607542
1607804
1608072
1608336
1608598
1608856
1609112
1609370
1609624
1609882
1610140
1610400
1610656
1610916
1611172
1611428
1611678
1611934
1612182
1612432
1612678
1612930
1613184
1613440
1613704
1613960
1614212
1614466
1614720
1614966
1615222
1615480
1615734
1615992
1616258
1616520
1616782
1617046
1617310
1617572
1617834
1618096
1618358
1618616
1618876
1619134
1619384
1619638
1619886
1620140
1620392
1620644
1620892
1621148
1621404
1621654
1621904
1622158
1622410
1622660
1622916
1623174
1623432
1623694
1623958
1624216
1624470
1624720
1624978
1625236
1625492
1625748
1626010
1626266
1626522
1626778
1627032
1627280
1627526
1627778
1628026
1628270
1628514
1628760
1629012
1629258
1629504
1629750
1629996
1630244
1630486
1630734
1630982
1631230
1631482
1631738
1631990
1632244
1632500
1632758
1633014
1633268
1633528
1633792
1634054
1634328
1634596
1634862
1635130
1635398
1635664
1635924
1636184
1636446
1636706
1636962
1637224
1637486
1637750
1638012
1638270
1638526
1638782
1639036
1639286
1639540
1639790
1640046
1640298
1640554
1640810
1641062
1641310
1641560
1641810
1642064
1642312
1642564
1642816
1643068
1643318
1643576
1643834
1644094
1644354
1644614
1644880
1645146
1645404
1645658
1645916
1646172
1646432
1646688
1646952
1647212
1647470
1647740
1648012
1648282
1648560
1648836
1649110
1649378
1649646
1649910
1650168
1650432
1650696
1650958
1651216
1651472
1651724
1651972
1652218
1652470
1652720
1652966
1653220
1653468
1653718
1653964
1654212
1654460
1654708
1654954
1655202
1655452
1655704
1655948
1656198
1656448
1656700
1656954
1657206
1657462
1657722
1657980
1658242
1658506
1658766
1659030
1659290
1659554
1659818
1660080
1660340
1660602
1660862
1661118
1661376
1661630
1661884
1662140
1662396
1662650
1662900
1663154
1663406
1663654
1663904
1664154
1664402
1664648
1664898
1665144
1665388
1665628
1665874
1666122
1666374
1666620
1666876
1667128
1667380
1667632
1667890
1668144
1668398
1668658
1668920
1669178
1669436
1669696
1669956
1670214
1670466
1670726
1670982
1671238
1671490
1671754
1672012
1672270
1672524
1672782
1673034
1673290
1673544
1673800
1674052
1674304
1674560
1674810
1675062
1675314
1675566
1675818
1676064
1676312
1676558
1676804
1677046
1677290
1677538
1677780
1678022
1678264
1678512
1678760
1679016
1679274
1679532
1679788
1680054
1680322
1680586
1680848
1681114
1681374
1681638
1681898
1682152
1682412
1682670
1682926
1683178
1683442
1683700
1683958
1684218
1684480
1684738
1684996
1685252
1685508
1685764
1686016
1686272
1686524
1686776
1687026
1687276
1687520
1687764
1688004
1688250
1688492
1688738
1688986
1689236
1689488
1689746
1690004
1690264
1690516
1690770
1691018
1691268
1691518
1691776
1692032
1692288
1692548
1692806
1693070
1693334
1693600
1693862
1694122
1694376
1694636
1694890
1695144
1695400
1695656
1695908
1696160
1696416
1696670
1696920
1697172
1697424
1697670
1697916
1698164
1698408
1698654
1698900
1699156
1699406
1699658
1699918
1700172
1700428
1700676
1700924
1701168
1701412
1701660
1701912
1702166
1702426
1702684
1702944
1703204
1703464
1703726
1703984
1704238
1704482
1704720
1704952
1705172
1705392
1705618
1705886
1706166
1706436
1706728
1707020
1707302
1707584
1707870
1708152
1708438
1708716
1708988
1709256
1709528
1709798
1710066
1710334
1710606
1710872
1711134
1711396
1711658
1711914
1712168
1712420
1712676
1712926
1713174
1713416
1713662
1713904
1714146
1714390
1714640
1714888
1715144
1715402
1715662
1715920
1716182
1716444
1716704
1716962
1717220
1717480
1717734
1717990
1718248
1718510
1718776
1719042
1719312
1719582
1719850
1720110
1720370
1720626
1720876
1721128
1721378
1721622
1721866
1722106
1722348
1722590
1722838
1723084
1723334
1723584
1723836
1724086
1724338
1724588
1724838
1725084
1725326
1725568
1725810
1726050
1726294
1726546
1726802
1727058
1727324
1727586
1727846
1728106
1728372
1728630
1728886
1729142
1729396
1729652
1729908
1730160
1730418
1730678
1730936
1731204
1731466
1731726
1731980
1732236
1732488
1732736
1732982
1733228
1733474
1733714
1733956
1734198
1734444
1734688
1734938
1735190
1735436
1735684
1735934
1736182
1736432
1736684
1736940
1737196
1737452
1737708
1737970
1738230
1738490
1738754
1739012
1739266
1739522
1739778
1740034
1740286
1740542
1740794
1741042
1741292
1741536
1741786
1742034
1742284
1742542
1742798
1743052
1743312
1743564
1743820
1744072
1744320
1744566
1744810
1745048
1745290
1745528
1745768
1746006
1746250
1746492
1746736
1746986
1747238
1747484
1747736
1747986
1748234
1748474
1748718
1748958
1749202
1749446
1749696
1749954
1750212
1750470
1750726
1750982
1751234
1751492
1751748
1752000
1752256
1752510
1752764
1753014
1753270
1753526
1753778
1754030
1754278
1754530
1754772
1755016
1755256
1755500
1755738
1755984
1756228
1756472
1756718
1756966
1757208
1757452
1757702
1757954
1758206
1758458
1758712
1758966
1759216
1759470
1759720
1759968
1760210
1760454
1760694
1760930
1761168
1761406
1761644
1761884
1762124
1762366
1762610
1762862
1763120
1763378
1763632
1763888
1764142
1764396
1764646
1764886
1765126
1765356
1765580
1765794
1766000
1766204
1766400
1766598
1766792
1766986
1767182
1767380
1767586
1767810
1768046
1768280
1768520
1768768
1769018
1769264
1769520
1769776
1770038
1770294
1770562
1770830
1771098
1771362
1771624
1771882
1772136
1772386
1772628
1772876
1773124
1773372
1773620
1773868
1774122
1774372
1774626
1774880
1775136
1775392
1775642
1775894
1776136
1776384
1776630
1776874
1777120
1777366
1777614
1777866
1778122
1778378
1778630
1778886
1779140
1779392
1779646
1779904
1780162
1780420
1780678
1780936
1781190
1781446
1781698
1781954
1782208
1782460
1782710
1782958
1783208
1783456
1783702
1783948
1784192
1784434
1784682
1784928
1785182
1785432
1785684
1785934
1786188
1786438
1786686
1786930
1787176
1787418
1787662
1787906
1788160
1788416
1788674
1788936
1789198
1789460
1789718
1789972
1790222
1790472
1790726
1790986
1791244
1791498
1791758
1792024
1792286
1792558
1792826
1793094
1793360
1793622
1793878
1794132
1794384
1794634
1794884
1795128
1795376
1795618
1795860
1796106
1796350
1796594
1796838
1797084
1797330
1797572
1797818
1798064
1798312
1798556
1798800
1799042
1799286
1799522
1799764
