peaks
101
412
730
1040
1356
1674
2002
2318
2632
2952
3264
3564
3874
4174
4474
4782
5104
5422
5736
6072
6400
6722
7052
7380
7710
8032
8366
8686
8996
9284
9578
9886
10224
10582
10928
11262
11598
11926
12250
12578
12906
13228
13554
13880
14204
14532
14874
15208
15536
15870
16198
16522
16854
17186
17514
17836
18166
18494
18816
19154
19498
19858
20228
20592
20946
21298
21652
21990
22334
22666
22980
23296
23630
23960
24278
24620
24960
25276
25602
25920
26224
26548
26874
27210
27546
27888
28226
28554
28886
29198
29508
29834
30158
30486
30828
31178
31514
31842
32174
32508
32854
33212
33566
33924
34272
34610
34950
35282
35618
35946
36294
36632
36972
37306
37636
37978
38326
38688
39032
39386
39732
40068
40410
40756
41102
41450
41800
42138
42484
42838
43170
43508
43834
44162
44516
44870
45192
45520
45852
46182
46520
46854
47176
47496
47820
48140
48456
48788
49110
49428
49766
50102
50432
50762
51092
51418
51750
52082
52412
52758
53102
53450
53808
54162
54514
54868
55222
55564
55894
56232
56572
56910
57258
57596
57928
58272
58608
58930
59254
59592
59906
60224
60550
60872
61192
61518
61848
62186
62528
62862
63208
63562
63892
64200
64530
64860
65188
65534
65882
66220
66570
66922
67278
67592
67910
68232
68556
68900
69254
69606
69966
70320
70654
70982
71302
71644
72006
72380
72728
73088
73454
73814
74170
74516
74850
75194
75538
75870
76208
76554
76876
77234
77568
77882
78212
78558
78882
79180
79474
79766
80092
80458
80848
81208
81584
81932
82282
82642
82984
83312
83656
84008
84344
84686
85014
85326
85652
85968
86278
86616
86956
87300
87658
87998
88334
88680
89010
89332
89682
90006
90310
90622
90948
91282
91624
91972
92302
92630
92952
93274
93596
93920
94228
94542
94856
95170
95488
95816
96148
96474
96800
97128
97444
97770
98112
98434
98772
99102
99432
99762
100090
100422
100750
101064
101376
101698
102018
102338
102662
102984
103308
103626
103958
104308
104642
104986
105322
105642
105970
106298
106610
106936
107254
107572
107908
108252
108588
108930
109254
109564
109890
110214
110526
110842
111164
111478
111816
112144
112468
112788
113108
113426
113740
114058
114362
114676
114986
115300
115610
115930
116256
116572
116896
117214
117528
117866
118182
118490
118806
119126
119436
119764
120088
120418
120754
121102
121434
121770
122104
122432
122758
123082
123398
123716
124042
124364
124696
125020
125340
125662
125984
126306
126620
126946
127272
127602
127924
128250
128582
128898
129206
129514
129838
130170
130486
130796
131114
131420
131732
132054
132354
132670
132994
133316
133654
133982
134306
134640
134972
135296
135610
135906
136194
136492
136804
137118
137452
137794
138118
138426
138746
139074
139400
139742
140074
140398
140728
141058
141386
141704
142022
142328
142642
142960
143280
143606
143924
144232
144558
144872
145180
145488
145802
146122
146434
146758
147076
147412
147736
148052
148378
148700
149012
149326
149646
149974
150300
150622
150956
151284
151614
151934
152246
152556
152864
153168
153482
153788
154094
154400
154696
155022
155328
155640
155962
156274
156606
156946
157286
157626
157968
158284
158610
158940
159278
159610
159944
160266
160596
160918
161242
161572
161902
162224
162548
162872
163194
163522
163838
164160
164492
164816
165130
165430
165738
166052
166360
166676
167014
167344
167684
168004
168324
168658
168982
169300
169610
169918
170222
170528
170844
171158
171484
171810
172140
172462
172788
173104
173422
173744
174064
174378
174692
175002
175316
175636
175954
176282
176608
176922
177248
177568
177880
178204
178528
178850
179192
179526
179862
180188
180528
180852
181182
181516
181828
182124
182426
182728
183040
183370
183696
184020
184356
184682
184998
185334
185654
185964
186274
186582
186888
187204
187518
187820
188124
188426
188722
189022
189322
189616
189926
190252
190578
190898
191234
191562
191870
192188
192492
192788
193082
193396
193718
194074
194434
194776
195108
195430
195744
196074
196392
196704
197024
197350
197676
198020
198344
198658
198970
199284
199590
199912
200246
200566
200900
201234
201564
201884
202212
202536
202864
203188
203492
203786
204086
204382
204684
204992
205298
205624
205946
206270
206592
206910
207228
207534
207836
208136
208434
208746
209060
209358
209684
210010
210328
210648
210962
211278
211592
211904
212214
212530
212856
213180
213488
213810
214130
214444
214774
215106
215420
215752
216072
216384
216724
217050
217366
217696
218016
218334
218662
218982
219300
219610
219918
220210
220510
220830
221144
221464
221770
222064
222368
222692
223004
223310
223614
223918
224220
224540
224856
225170
225502
225826
226150
226476
226816
227140
227460
227786
228104
228402
228714
229020
229322
229630
229954
230258
230580
230910
231234
231556
231872
232168
232466
232770
233072
233366
233676
233984
234292
234592
234896
235200
235520
235856
236178
236506
236832
237160
237480
237816
238140
238452
238762
239070
239360
239662
239966
240260
240566
240876
241180
241486
241804
242120
242444
242766
243074
243384
243704
244014
244320
244638
244946
245262
245576
245886
246190
246496
246810
247118
247420
247730
248034
248332
248630
248920
249204
249502
249812
250114
250450
250788
251106
251432
251754
252080
252378
252686
252998
253312
253646
253980
254302
254652
254998
255324
255652
255976
256306
256622
256946
257262
257586
257896
258212
258530
258870
259192
259504
259818
260128
260452
260772
261096
261408
261706
262022
262316
262604
262896
263196
263478
263764
264048
264334
264628
264928
265222
265518
265826
266142
266446
266762
267072
267374
267670
267978
268288
268582
268880
269180
269474
269780
270082
270372
270658
270938
271224
271522
271844
272154
272456
272766
273072
273374
273698
274014
274316
274614
274920
275216
275518
275830
276142
276446
276756
277060
277366
277676
277998
278308
278620
278936
279250
279560
279874
280190
280502
280818
281124
281428
281738
282042
282342
282658
282970
283276
283576
283882
284172
284472
284790
285112
285428
285766
286084
286394
286702
287008
287306
287614
287926
288246
288582
288920
289252
289568
289884
290184
290496
290808
291114
291412
291736
292056
292364
292678
292990
293278
293564
293868
294168
294478
294792
295100
295400
295710
296018
296316
296620
296924
297224
297540
297854
298158
298472
298744
299004
299254
299500
299742
299982
300224
300462
300696
300930
301158
301384
301604
301820
302032
302240
302446
302650
302852
303054
303254
303458
303660
303866
304078
304292
304510
304732
304956
305186
305424
305668
305912
306172
306446
306724
307026
307334
307638
307962
308294
308618
308932
309262
309580
309892
310210
310526
310834
311142
311460
311770
312070
312366
312660
312958
313240
313534
313848
314154
314448
314736
315012
315288
315568
315844
316122
316422
316726
317018
317322
317626
317928
318252
318586
318906
319248
319592
319920
320264
320610
320944
321264
321602
321932
322252
322582
322910
323224
323530
323830
324128
324424
324726
325044
325354
325670
325970
326268
326558
326852
327150
327440
327726
328026
328318
328604
328908
329218
329522
329828
330140
330454
330756
331068
331380
331682
331980
332290
332590
332888
333196
333508
333816
334124
334438
334750
335058
335376
335684
335982
336292
336608
336912
337218
337530
337836
338144
338470
338752
339022
339282
339536
339784
340030
340274
340520
340762
341010
341264
341516
341778
342034
342294
342564
342848
343130
343398
343672
343948
344218
344484
344770
345068
345418
345762
346074
346384
346702
347000
347300
347632
347970
348282
348600
348894
349168
349438
349706
349980
350276
350620
350976
351306
351642
351986
352312
352628
352950
353258
353546
353836
354144
354456
354788
355116
355430
355728
356022
356316
356612
356914
357226
357542
357860
358176
358504
358810
359106
359412
359716
360018
360322
360628
360928
361226
361540
361856
362166
362452
362750
363054
363366
363706
364050
364386
364716
365032
365356
365670
366004
366332
366660
366992
367320
367640
367974
368300
368632
368960
369294
369636
369962
370306
370630
370942
371246
371564
371870
372182
372504
372830
373136
373442
373760
374074
374390
374692
374996
375294
375604
375922
376228
376560
376878
377188
377486
377790
378098
378406
378730
379054
379370
379686
380018
380344
380648
380962
381276
381586
381906
382222
382540
382854
383176
383496
383802
384126
384452
384774
385100
385426
385742
386048
386370
386714
387058
387388
387744
388076
388398
388696
388972
389234
389508
389804
390150
390518
390908
391240
391590
391932
392274
392622
392962
393306
393646
393994
394340
394670
395014
395338
395634
395940
396248
396552
396856
397168
397472
397764
398070
398366
398656
398938
399240
399544
399838
400126
400418
400710
400992
401280
401568
401854
402142
402438
402732
403020
403316
403618
403924
404206
404500
404794
405064
405334
405616
405906
406200
406504
406822
407148
407456
407772
408086
408386
408686
408982
409274
409556
409848
410138
410416
410702
410988
411272
411554
411846
412134
412414
412692
412974
413250
413528
413800
414088
414382
414656
414924
415194
415458
415708
415952
416198
416432
416670
416912
417180
417470
417754
418042
418326
418608
418892
419218
419518
419816
420114
420446
420800
421120
421438
421776
422106
422418
422726
423044
423358
423670
423998
424326
424648
424950
425238
425508
425764
426010
426242
426470
426698
426936
427194
427482
427788
428102
428428
428766
429112
429460
429794
430128
430464
430820
431172
431542
431874
432192
432506
432840
433184
433562
433924
434286
434616
434950
435298
435672
436072
436480
436864
437264
437674
438026
438358
438668
438964
439250
439518
439778
440062
440372
440680
440988
441302
441640
442026
442394
442770
443200
443644
444034
444422
444822
445190
445534
445888
446288
446716
447160
447554
447948
448360
448762
449126
449494
449900
450290
450604
450914
451220
451518
451814
452096
452382
452676
452988
453306
453622
453960
454288
454616
454942
455250
455558
455886
456228
456566
456918
457296
457654
458028
458448
458836
459284
459688
459906
460404
460848
461300
461710
462144
462544
462966
463384
463774
464152
464542
464914
465222
465570
465950
466362
466780
467216
467642
468100
468612
469156
469718
470238
470740
471198
471672
472150
472608
473026
473452
473834
474238
474624
475002
475390
475788
476206
476588
476996
477404
477826
478260
478688
479076
479476
479866
480244
480626
481004
481366
481710
482086
482496
482918
483346
483784
484180
484566
484972
485334
485660
485972
486258
486524
486778
487170
487546
487936
488326
488714
489112
489516
489906
490278
490638
491004
491366
491728
492076
492438
492792
493142
493496
493848
494222
494586
494962
495340
495708
496074
496412
496778
497162
497532
497918
498292
498678
499058
499430
499814
500178
500566
500946
501332
501738
502124
502512
502894
503272
503664
504060
504442
504828
505216
505602
505980
506354
506714
507042
507394
507748
508090
508460
508822
509200
509570
509932
510296
510652
511020
511382
511744
512110
512470
512836
513208
513572
513942
514302
514666
515024
515372
515736
516078
516402
516740
517074
517434
517798
518150
518520
518874
519230
519596
519960
520330
520698
521054
521400
521752
522090
522438
522796
523144
523484
523828
524146
524468
524828
525178
525546
525912
526238
526568
526894
527204
527542
527882
528238
528602
528936
529286
529634
529998
530358
530720
531088
531440
531786
532146
532490
532828
533182
533528
533860
534214
534552
534874
535202
535524
535826
536158
536486
536816
537174
537526
537872
538224
538558
538908
539248
539582
539934
540278
540606
540936
541264
541586
541904
542236
542570
542894
543208
543516
543818
544156
544484
544800
545158
545494
545836
546184
546506
546848
547186
547520
547868
548206
548542
548882
549216
549554
549900
550238
550522
550792
551058
551322
551574
551820
552060
552384
552768
553084
553418
553746
554058
554394
554734
555058
555400
555748
556086
556436
556790
557120
557462
557802
558126
558464
558808
559122
559442
559760
560080
560424
560772
561094
561406
561722
562020
562326
562644
562946
563264
563590
563902
564228
564560
564874
565198
565530
565850
566176
566510
566826
567150
567476
567784
568108
568432
568754
569062
569382
569696
570012
570320
570614
570928
571238
571532
571844
572156
572460
572774
573100
573414
573738
574070
574390
574710
575042
575370
575690
576024
576362
576690
577024
577356
577672
578000
578322
578636
578962
579282
579588
579916
580236
580544
580858
581178
581482
581780
582090
582394
582688
582992
583284
583566
583844
584136
584430
584716
585024
585336
585634
585942
586252
586550
586856
587166
587464
587768
588086
588394
588706
589034
589368
589694
590036
590366
590684
591014
591336
591648
591974
592296
592604
592924
593250
593570
593878
594198
594510
594806
595120
595434
595734
596048
596364
596668
596990
597316
597624
597952
598278
598592
598912
599238
599554
599868
600188
600510
600818
601142
601474
601794
602122
602458
602782
603108
603444
603764
604076
604408
604726
605028
605336
605652
605960
606260
606566
606892
607194
607502
607818
608136
608442
608760
609076
609374
609682
609994
610304
610606
610924
611240
611548
611866
612186
612502
612814
613122
613440
613762
614066
614384
614702
615004
615324
615632
615932
616224
616530
616828
617120
617418
617718
618012
618312
618620
618924
619230
619544
619854
620158
620482
620802
621108
621426
621750
622052
622352
622660
622968
623268
623580
623892
624194
624500
624810
625112
625410
625710
626022
626328
626620
626926
627226
627518
627816
628118
628406
628700
629014
629320
629612
629920
630236
630542
630868
631194
631506
631824
632132
632432
632752
633082
633394
633708
634034
634344
634644
634960
635266
635566
635874
636182
636482
636754
637028
637302
637570
637836
638110
638394
638702
639052
639348
639640
639946
640248
640546
640854
641160
641468
641776
642102
642442
642768
643092
643424
643752
644072
644390
644730
645060
645372
645696
646014
646316
646610
646916
647222
647514
647812
648102
648364
648602
648830
649050
649268
649486
649702
649916
650142
650354
650576
650800
651018
651238
651458
651674
651884
652092
652302
652514
652726
652940
653154
653378
653622
653894
654168
654434
654704
654978
655246
655514
655772
656052
656342
656620
656910
657212
657516
657806
658120
658428
658734
659030
659332
659636
659928
660218
660512
660802
661086
661380
661678
661972
662262
662558
662860
663160
663452
663750
664044
664340
664628
664928
665226
665520
665812
666118
666422
666722
667022
667318
667608
667900
668196
668486
668792
669088
669416
669744
670062
670388
670726
671052
671374
671706
672036
672352
672686
673006
673310
673622
673936
674244
674552
674870
675186
675490
675808
676122
676428
676720
677016
677314
677606
677904
678216
678526
678824
679132
679438
679734
680018
680306
680608
680902
681200
681506
681798
682070
682332
682594
682858
683136
683426
683716
683992
684302
684638
684946
685252
685568
685878
686200
686522
686840
687154
687470
687782
688088
688402
688714
689020
689328
689640
689948
690246
690554
690862
691162
691468
691772
692072
692376
692682
692984
693282
693588
693890
694184
694474
694772
695068
695362
695656
695952
696250
696544
696828
697108
697376
697644
697914
698202
698504
698796
699078
699376
699676
699968
700262
700566
700866
701140
701416
701694
701978
702266
702558
702870
703154
703432
703712
703984
704264
704532
704796
705064
705336
705622
705910
706200
706484
706780
707076
707360
707644
707932
708214
708500
708762
709010
709250
709480
709704
709926
710156
710400
710698
711004
711288
711576
711868
712150
712440
712724
712980
713234
713502
713786
714102
714442
714754
715084
715414
715722
716042
716368
716676
716996
717304
717624
717954
718306
718636
718946
719242
719524
719804
720058
720308
720546
720778
721004
721234
721488
721762
722054
722350
722656
722970
723282
723592
723912
724256
724618
724994
725358
725726
726086
726440
726786
727132
727486
727846
728212
728564
728910
729240
729576
729888
730194
730510
730844
731172
731480
731786
732098
732400
732690
732986
733296
733590
733890
734200
734514
734812
735094
735390
735698
736004
736292
736594
736918
737254
737612
737984
738358
738732
739070
739406
739734
740068
740418
740766
741110
741442
741776
742122
742446
742782
743126
743494
743848
744204
744566
744918
745254
745566
745896
746204
746508
746824
747140
747462
747798
748154
748480
748788
749116
749482
749824
750190
750536
750880
751220
751538
751852
752178
752540
752908
753288
753650
754026
754388
754716
755038
755350
755666
755994
756326
756688
757074
757470
757888
758288
758660
758996
759316
759600
759870
760226
760610
760998
761406
761806
762184
762622
763094
763540
763992
764436
764858
765292
765738
766162
766602
766992
767438
767860
768314
768768
769244
769702
770152
770616
771078
771508
771924
772298
772670
773050
773424
773760
774052
774340
774714
775084
775452
775852
776232
776622
777024
777448
777882
778302
778724
779148
779576
779996
780408
780792
781190
781592
781970
782356
782706
783068
783430
783806
784212
784622
785062
785508
785944
786382
786822
787250
787660
788050
788468
788856
789196
789546
789890
790226
790582
790928
791280
791656
792014
792400
792798
793190
793574
793978
794386
794786
795200
795604
795990
796384
796764
797136
797518
797890
798298
798680
799080
799462
799856
800248
800632
801046
801440
801846
802260
802670
803074
803472
803858
804236
804628
805014
805384
805760
806114
806490
806854
807214
807596
807966
808348
808710
809078
809464
809824
810210
810590
810960
811342
811724
812104
812492
812874
813250
813622
813968
814342
814720
815094
815482
815842
816216
816558
816920
817254
817554
817850
818158
818466
818770
819060
819344
819606
819886
820158
820434
820688
820940
821182
821418
821664
821936
822256
822590
822916
823222
823530
823832
824132
824402
824682
824978
825268
825576
825904
826234
826532
826840
827144
827424
827686
827964
828262
828628
828964
829270
829592
829914
830226
830552
830880
831202
831534
831872
832210
832536
832886
833236
833574
833934
834286
834608
834920
835202
835490
835804
836142
836482
836822
837180
837514
837812
838088
838352
838612
838860
839118
839380
839668
839974
840304
840638
840936
841242
841548
841852
842154
842466
842778
843078
843390
843704
844010
844334
844662
844984
845318
845660
845994
846320
846654
846982
847300
847630
847956
848276
848600
848924
849240
849566
849890
850208
850536
850852
851168
851490
851806
852120
852440
852756
853078
853400
853716
854038
854360
854682
854992
855308
855622
855926
856238
856552
856854
857168
857482
857788
858102
858420
858730
859048
859368
859676
859988
860300
860610
860914
861228
861546
861854
862184
862516
862840
863170
863498
863812
864136
864460
864774
865100
865426
865748
866078
866410
866738
867062
867394
867726
868046
868376
868706
869022
869352
869680
870004
870336
870664
870988
871318
871648
871968
872300
872632
872952
873286
873620
873942
874276
874602
874924
875260
875588
875920
876252
876570
876902
877238
877560
877898
878232
878564
878910
879252
879594
879936
880274
880608
880942
881266
881596
881924
882248
882582
882908
883240
883578
883910
884244
884588
884926
885254
885588
885914
886244
886572
886900
887232
887566
887896
888228
888564
888898
889220
889550
889880
890198
890528
890856
891178
891512
891846
892168
892502
892832
893148
893480
893812
894124
894448
894766
895086
895414
895732
896058
896390
896714
897050
897388
897714
898050
898388
898716
899044
899378
899706
900026
900356
900682
901002
901328
901648
901956
902278
902590
902892
903210
903524
903830
904156
904484
904802
905134
905466
905790
906124
906450
906772
907112
907446
907770
908106
908438
908764
909098
909426
909750
910082
910406
910736
911064
911372
911676
911970
912230
912478
912742
913080
913434
913756
914046
914348
914628
914870
915108
915346
915574
915804
916024
916246
916486
916732
917022
917322
917614
917892
918150
918382
918616
918836
919078
919334
919588
919858
920156
920426
920698
920980
921262
921544
921840
922138
922428
922732
923042
923346
923654
923972
924288
924596
924916
925242
925540
925854
926168
926468
926768
927080
927390
927690
928008
928322
928626
928944
929264
929574
929906
930230
930542
930870
931200
931510
931832
932156
932462
932782
933108
933418
933742
934076
934396
934728
935060
935378
935712
936042
936362
936700
937034
937354
937690
938022
938346
938676
939002
939334
939666
939992
940310
940632
940952
941260
941582
941896
942206
942532
942854
943176
943506
943824
944158
944498
944820
945148
945476
945790
946110
946436
946754
947076
947400
947718
948036
948362
948674
948992
949318
949630
949952
950274
950582
950906
951234
951546
951866
952192
952516
952824
953148
953470
953778
954094
954408
954712
955026
955338
955652
955974
956296
956618
956948
957270
957598
957930
958248
958578
958906
959222
959552
959890
960222
960550
960890
961212
961550
961878
962186
962502
962840
963172
963516
963852
964172
964502
964822
965122
965428
965730
966028
966338
966662
966964
967282
967594
967890
968190
968494
968792
969100
969410
969718
970024
970336
970634
970930
971226
971518
971800
972090
972392
972696
973004
973298
973580
973870
974158
974442
974730
975022
975306
975578
975840
976100
976366
976644
976920
977210
977510
977806
978104
978396
978674
978954
979238
979518
979796
980078
980360
980646
980930
981228
981530
981832
982134
982434
982720
982990
983250
983504
983734
983970
984210
984460
984722
984992
985258
985534
985804
986064
986318
986580
986862
987176
987496
987810
988116
988418
988728
989044
989342
989582
989862
990150
990458
990764
991082
991396
991702
991978
992268
992514
992748
992976
993220
993510
993802
994092
994394
994714
995030
995352
995676
995988
996300
996632
996966
997288
997620
997902
998226
998526
998814
999108
999378
999644
999868
1000104
1000382
1000634
1000900
1001182
1001472
1001780
1002084
1002390
1002708
1003032
1003326
1003658
1004024
1004394
1004764
1005146
1005510
1005874
1006220
1006562
1006926
1007298
1007646
1007986
1008318
1008626
1008956
1009308
1009676
1010042
1010394
1010740
1011090
1011460
1011846
1012204
1012568
1012912
1013260
1013612
1013970
1014306
1014634
1014988
1015340
1015678
1016006
1016362
1016744
1017130
1017494
1017838
1018166
1018490
1018814
1019152
1019520
1019868
1020234
1020602
1020986
1021400
1021832
1022208
1022592
1022968
1023328
1023754
1024194
1024586
1024958
1025330
1025680
1026018
1026366
1026684
1027016
1027344
1027676
1027996
1028312
1028632
1028928
1029224
1029516
1029788
1030052
1030380
1030706
1031016
1031336
1031662
1031994
1032338
1032680
1033032
1033386
1033742
1034106
1034472
1034850
1035228
1035660
1036076
1036476
1036880
1037280
1037720
1038160
1038562
1038972
1039364
1039760
1040190
1040612
1041034
1041452
1041878
1042276
1042672
1043064
1043466
1043870
1044286
1044708
1045158
1045612
1046054
1046508
1046960
1047358
1047750
1048124
1048486
1048854
1049220
1049542
1049836
1050098
1050522
1050922
1051318
1051730
1052148
1052566
1053016
1053474
1053940
1054370
1054786
1055206
1055624
1056028
1056434
1056852
1057260
1057672
1058076
1058472
1058888
1059290
1059698
1060086
1060480
1060882
1061276
1061682
1062086
1062502
1062916
1063336
1063754
1064174
1064590
1065000
1065386
1065776
1066168
1066552
1066946
1067314
1067682
1068054
1068426
1068828
1069206
1069614
1070010
1070412
1070816
1071222
1071626
1072028
1072416
1072808
1073170
1073524
1073882
1074232
1074604
1074924
1075290
1075654
1076042
1076388
1076748
1077106
1077468
1077838
1078208
1078586
1078970
1079364
1079752
1080142
1080526
1080910
1081268
1081630
1081982
1082334
1082696
1083036
1083408
1083750
1084106
1084448
1084802
1085154
1085514
1085880
1086240
1086608
1086978
1087352
1087730
1088108
1088478
1088856
1089220
1089568
1089942
1090286
1090638
1090976
1091334
1091682
1092044
1092410
1092774
1093144
1093498
1093870
1094242
1094608
1094976
1095348
1095718
1096076
1096438
1096798
1097142
1097500
1097854
1098162
1098496
1098844
1099160
1099504
1099830
1100186
1100544
1100918
1101300
1101664
1102036
1102406
1102770
1103146
1103516
1103876
1104246
1104594
1104936
1105288
1105618
1105934
1106288
1106620
1106982
1107336
1107690
1108046
1108388
1108748
1109104
1109468
1109834
1110192
1110556
1110922
1111282
1111642
1111994
1112344
1112700
1113032
1113386
1113736
1114062
1114410
1114746
1115078
1115418
1115742
1116080
1116416
1116744
1117090
1117428
1117778
1118136
1118484
1118840
1119190
1119550
1119908
1120254
1120610
1120960
1121300
1121652
1121988
1122318
1122662
1122980
1123318
1123648
1123978
1124320
1124646
1124982
1125328
1125656
1126000
1126346
1126682
1127036
1127392
1127734
1128088
1128440
1128790
1129142
1129482
1129830
1130178
1130512
1130862
1131208
1131538
1131888
1132224
1132556
1132902
1133228
1133568
1133906
1134240
1134586
1134916
1135260
1135612
1135944
1136290
1136626
1136968
1137318
1137652
1137998
1138344
1138676
1139022
1139366
1139696
1140040
1140374
1140700
1141034
1141354
1141694
1142038
1142368
1142714
1143066
1143404
1143758
1144098
1144438
1144790
1145124
1145470
1145816
1146144
1146486
1146830
1147156
1147502
1147846
1148168
1148512
1148846
1149180
1149524
1149858
1150188
1150528
1150864
1151186
1151526
1151856
1152180
1152520
1152842
1153156
1153486
1153806
1154118
1154444
1154764
1155072
1155402
1155726
1156036
1156352
1156682
1156993
1157330
1157646
1157964
1158288
1158592
1158924
1159254
1159582
1159926
1160268
1160614
1160964
1161304
1161650
1162004
1162340
1162686
1163026
1163350
1163694
1164030
1164344
1164682
1165018
1165328
1165662
1165994
1166308
1166640
1166962
1167290
1167622
1167948
1168272
1168614
1168954
1169290
1169634
1169976
1170308
1170644
1170970
1171298
1171632
1171954
1172272
1172608
1172934
1173252
1173590
1173924
1174238
1174570
1174894
1175210
1175544
1175872
1176188
1176522
1176852
1177172
1177510
1177846
1178174
1178522
1178860
1179208
1179554
1179888
1180230
1180574
1180912
1181250
1181600
1181932
1182274
1182618
1182946
1183292
1183632
1183958
1184292
1184622
1184944
1185262
1185594
1185918
1186232
1186570
1186894
1187220
1187554
1187860
1188182
1188508
1188814
1189134
1189460
1189768
1190068
1190388
1190686
1190984
1191298
1191586
1191878
1192166
1192410
1192642
1192866
1193086
1193314
1193540
1193756
1193992
1194234
1194472
1194726
1194982
1195270
1195560
1195840
1196114
1196390
1196652
1196898
1197138
1197384
1197682
1198002
1198296
1198596
1198884
1199164
1199464
1199768
1200056
1200360
1200676
1200984
1201298
1201630
1201972
1202312
1202634
1202982
1203336
1203686
1204022
1204372
1204726
1205056
1205408
1205764
1206098
1206430
1206780
1207110
1207452
1207802
1208134
1208478
1208834
1209168
1209520
1209880
1210224
1210580
1210934
1211276
1211630
1211978
1212308
1212658
1213004
1213328
1213662
1213998
1214318
1214658
1214986
1215320
1215670
1216004
1216348
1216702
1217040
1217396
1217754
1218110
1218466
1218812
1219166
1219522
1219872
1220220
1220580
1220918
1221262
1221614
1221940
1222284
1222640
1222972
1223334
1223702
1224056
1224438
1224810
1225190
1225570
1225934
1226310
1226682
1227044
1227410
1227770
1228110
1228458
1228812
1229146
1229478
1229834
1230158
1230466
1230802
1231124
1231440
1231772
1232104
1232442
1232792
1233142
1233478
1233832
1234184
1234536
1234892
1235242
1235592
1235942
1236278
1236632
1236982
1237312
1237666
1238012
1238338
1238684
1239024
1239338
1239680
1240018
1240344
1240688
1241034
1241374
1241728
1242066
1242418
1242776
1243122
1243486
1243850
1244204
1244558
1244924
1245272
1245636
1246000
1246346
1246702
1247054
1247390
1247738
1248082
1248412
1248762
1249106
1249448
1249812
1250160
1250520
1250886
1251230
1251582
1251930
1252266
1252618
1252962
1253298
1253644
1253986
1254316
1254660
1254992
1255310
1255650
1255970
1256288
1256624
1256942
1257256
1257588
1257914
1258246
1258590
1258918
1259262
1259604
1259928
1260264
1260590
1260914
1261246
1261572
1261914
1262258
1262590
1262934
1263280
1263610
1263954
1264298
1264630
1264974
1265324
1265652
1266002
1266346
1266688
1267044
1267378
1267716
1268052
1268216
1268500
1268806
1269102
1269394
1269648
1269896
1270158
1270478
1270828
1271164
1271486
1271800
1272106
1272408
1272710
1273010
1273312
1273614
1273916
1274218
1274514
1274808
1275100
1275388
1275672
1275938
1276198
1276490
1276780
1277054
1277332
1277610
1277880
1278172
1278466
1278754
1279064
1279380
1279700
1280026
1280362
1280702
1281038
1281374
1281710
1282032
1282362
1282688
1282996
1283318
1283640
1283944
1284246
1284564
1284872
1285176
1285490
1285804
1286106
1286424
1286742
1287054
1287380
1287708
1288034
1288368
1288702
1289030
1289356
1289680
1289992
1290296
1290610
1290918
1291212
1291526
1291834
1292130
1292440
1292748
1293046
1293356
1293660
1293960
1294276
1294590
1294898
1295220
1295538
1295856
1296192
1296520
1296858
1297198
1297534
1297878
1298224
1298568
1298912
1299252
1299578
1299886
1300166
1300472
1300760
1301026
1301290
1301542
1301792
1302046
1302318
1302640
1302984
1303302
1303614
1303932
1304262
1304600
1304946
1305292
1305642
1305994
1306346
1306696
1307032
1307354
1307672
1307988
1308300
1308604
1308892
1309190
1309496
1309768
1310034
1310302
1310568
1310846
1311200
1311548
1311878
1312200
1312510
1312844
1313180
1313514
1313862
1314214
1314564
1314918
1315276
1315626
1315976
1316326
1316678
1317024
1317374
1317704
1318042
1318378
1318694
1318978
1319244
1319494
1319756
1320066
1320404
1320750
1321104
1321414
1321744
1322064
1322402
1322750
1323090
1323454
1323830
1324198
1324572
1324948
1325324
1325702
1326066
1326412
1326758
1327096
1327418
1327754
1328074
1328386
1328662
1328942
1329216
1329478
1329740
1330112
1330464
1330794
1331136
1331454
1331798
1332140
1332478
1332828
1333180
1333534
1333894
1334250
1334610
1334974
1335328
1335688
1336038
1336388
1336736
1337070
1337404
1337732
1338042
1338328
1338600
1338858
1339108
1339370
1339750
1340048
1340366
1340672
1340986
1341318
1341638
1341976
1342324
1342684
1343060
1343432
1343812
1344188
1344576
1344958
1345340
1345722
1346092
1346448
1346792
1347134
1347458
1347802
1348138
1348426
1348694
1348956
1349232
1349510
1349790
1350062
1350340
1350648
1350946
1351244
1351530
1351810
1352064
1352312
1352560
1352812
1353076
1353350
1353628
1353914
1354184
1354456
1354712
1354956
1355206
1355454
1355684
1355924
1356162
1356408
1356654
1356920
1357202
1357482
1357764
1358036
1358308
1358580
1358852
1359126
1359394
1359680
1359962
1360248
1360536
1360822
1361100
1361384
1361664
1361942
1362214
1362494
1362772
1363042
1363322
1363594
1363856
1364130
1364402
1364676
1364966
1365252
1365558
1365866
1366168
1366494
1366820
1367086
1367392
1367690
1367986
1368294
1368600
1368910
1369218
1369528
1369840
1370176
1370528
1370876
1371232
1371592
1371948
1372304
1372658
1373004
1373344
1373658
1373942
1374226
1374506
1374810
1375096
1375400
1375730
1376040
1376384
1376694
1376992
1377298
1377606
1377916
1378224
1378544
1378862
1379176
1379500
1379822
1380142
1380444
1380760
1381076
1381374
1381688
1381994
1382288
1382590
1382890
1383178
1383476
1383776
1384066
1384370
1384674
1384974
1385282
1385596
1385902
1386218
1386534
1386840
1387152
1387460
1387764
1388066
1388370
1388662
1388960
1389256
1389538
1389834
1390128
1390416
1390710
1391006
1391290
1391586
1391880
1392166
1392448
1392730
1393006
1393280
1393566
1393850
1394140
1394444
1394746
1395058
1395378
1395688
1396008
1396328
1396636
1396954
1397272
1397578
1397870
1398160
1398454
1398748
1399026
1399294
1399566
1399834
1400128
1400434
1400752
1401074
1401378
1401680
1401986
1402282
1402578
1402874
1403174
1403488
1403802
1404100
1404388
1404676
1404954
1405202
1405428
1405646
1405868
1406110
1406358
1406618
1406894
1407182
1407484
1407794
1408094
1408398
1408684
1408980
1409270
1409564
1409846
1410124
1410396
1410670
1410948
1411238
1411542
1411844
1412168
1412504
1412856
1413206
1413536
1413878
1414224
1414582
1414940
1415292
1415656
1416000
1416366
1416736
1417136
1417502
1417868
1418210
1418528
1418850
1419224
1419596
1419954
1420320
1420668
1421018
1421366
1421706
1422022
1422324
1422690
1423030
1423352
1423658
1423966
1424280
1424590
1424910
1425254
1425602
1425966
1426350
1426708
1427078
1427472
1427884
1428306
1428714
1429126
1429464
1429788
1430150
1430580
1430986
1431358
1431720
1432048
1432374
1432696
1433036
1433446
1433834
1434206
1434568
1434912
1435244
1435576
1435928
1436348
1436754
1437146
1437514
1437864
1438216
1438550
1438882
1439218
1439556
1439892
1440194
1440560
1440892
1441208
1441550
1441896
1442256
1442632
1442988
1443354
1443724
1444106
1444492
1444876
1445260
1445666
1446072
1446462
1446846
1447256
1447632
1448022
1448404
1448788
1449174
1449550
1449974
1450410
1450842
1451278
1451728
1452168
1452618
1453054
1453464
1453856
1454204
1454588
1454972
1455382
1455762
1456146
1456508
1456838
1457196
1457594
1458000
1458404
1458812
1459238
1459674
1460104
1460522
1460934
1461342
1461740
1462126
1462490
1462874
1463250
1463620
1464012
1464378
1464760
1465130
1465512
1465894
1466282
1466682
1467088
1467484
1467876
1468248
1468614
1468950
1469310
1469684
1470040
1470396
1470742
1471096
1471446
1471802
1472146
1472510
1472880
1473258
1473614
1473978
1474346
1474676
1475036
1475396
1475768
1476140
1476500
1476854
1477216
1477562
1477924
1478286
1478638
1479002
1479354
1479702
1480066
1480410
1480772
1481130
1481486
1481840
1482190
1482550
1482898
1483238
1483582
1483920
1484272
1484616
1484960
1485318
1485658
1486006
1486340
1486676
1487014
1487350
1487696
1488034
1488380
1488728
1489062
1489394
1489728
1490064
1490410
1490752
1491090
1491424
1491754
1492094
1492432
1492764
1493098
1493412
1493728
1494042
1494340
1494648
1494974
1495306
1495628
1495950
1496290
1496624
1496962
1497298
1497622
1497956
1498288
1498616
1498944
1499264
1499584
1499906
1500218
1500542
1500836
1501156
1501474
1501816
1502148
1502478
1502810
1503120
1503428
1503736
1504028
1504330
1504626
1504920
1505218
1505550
1505898
1506254
1506586
1506922
1507240
1507556
1507880
1508184
1508496
1508822
1509144
1509482
1509822
1510166
1510516
1510860
1511206
1511546
1511876
1512212
1512540
1512866
1513202
1513524
1513852
1514194
1514524
1514846
1515178
1515498
1515824
1516154
1516472
1516802
1517132
1517452
1517788
1518114
1518448
1518788
1519110
1519444
1519780
1520100
1520430
1520758
1521068
1521394
1521708
1522038
1522380
1522706
1523044
1523378
1523702
1524028
1524342
1524652
1524976
1525284
1525596
1525922
1526230
1526546
1526876
1527192
1527526
1527852
1528162
1528486
1528808
1529114
1529432
1529746
1530058
1530382
1530698
1531014
1531340
1531650
1531966
1532292
1532604
1532922
1533242
1533552
1533876
1534198
1534514
1534836
1535150
1535464
1535786
1536096
1536400
1536718
1537022
1537324
1537642
1537952
1538258
1538580
1538890
1539212
1539536
1539850
1540174
1540502
1540818
1541146
1541464
1541776
1542096
1542408
1542714
1543026
1543330
1543640
1543960
1544266
1544600
1544924
1545240
1545574
1545898
1546216
1546544
1546862
1547190
1547522
1547838
1548156
1548468
1548762
1549078
1549406
1549730
1550060
1550374
1550690
1551016
1551330
1551654
1551988
1552310
1552644
1552968
1553284
1553606
1553920
1554230
1554546
1554856
1555164
1555476
1555784
1556094
1556416
1556726
1557038
1557364
1557676
1557990
1558314
1558630
1558938
1559256
1559568
1559878
1560190
1560502
1560810
1561132
1561446
1561754
1562074
1562388
1562696
1563016
1563326
1563624
1563932
1564230
1564536
1564848
1565146
1565454
1565772
1566078
1566396
1566716
1567028
1567348
1567670
1567980
1568304
1568626
1568938
1569262
1569586
1569902
1570226
1570548
1570856
1571176
1571492
1571798
1572114
1572432
1572742
1573064
1573388
1573704
1574034
1574358
1574676
1575010
1575332
1575646
1575966
1576282
1576582
1576894
1577194
1577498
1577818
1578136
1578448
1578784
1579112
1579434
1579766
1580086
1580396
1580716
1581020
1581324
1581592
1581854
1582110
1582364
1582618
1582878
1583146
1583416
1583678
1583928
1584174
1584422
1584664
1584900
1585142
1585376
1585606
1585832
1586058
1586282
1586502
1586718
1586932
1587148
1587364
1587602
1587866
1588158
1588440
1588718
1589000
1589278
1589552
1589838
1590126
1590414
1590696
1590990
1591284
1591570
1591866
1592166
1592460
1592760
1593068
1593372
1593668
1593976
1594286
1594588
1594898
1595210
1595510
1595826
1596144
1596446
1596762
1597072
1597374
1597684
1597998
1598296
1598612
1598930
1599236
1599556
1599878
1600190
1600514
1600838
1601154
1601468
1601788
1602096
1602402
1602716
1603022
1603332
1603650
1603958
1604276
1604602
1604916
1605232
1605556
1605870
1606184
1606506
1606820
1607132
1607456
1607774
1608080
1608398
1608710
1609018
1609336
1609656
1609958
1610274
1610590
1610894
1611212
1611528
1611836
1612152
1612468
1612776
1613090
1613400
1613712
1614034
1614352
1614666
1614990
1615312
1615628
1615954
1616278
1616594
1616918
1617238
1617544
1617868
1618186
1618482
1618792
1619100
1619390
1619696
1619998
1620302
1620618
1620930
1621238
1621560
1621876
1622184
1622504
1622814
1623118
1623430
1623744
1624050
1624362
1624676
1624980
1625294
1625606
1625908
1626222
1626542
1626848
1627158
1627474
1627778
1628080
1628394
1628704
1629006
1629318
1629630
1629938
1630256
1630566
1630868
1631178
1631488
1631790
1632104
1632416
1632728
1633054
1633374
1633694
1634022
1634346
1634656
1634974
1635290
1635592
1635898
1636196
1636480
1636740
1636996
1637248
1637528
1637858
1638212
1638530
1638840
1639166
1639494
1639812
1640140
1640470
1640786
1641110
1641426
1641718
1642012
1642304
1642574
1642832
1643082
1643324
1643564
1643798
1644022
1644244
1644464
1644680
1644890
1645102
1645312
1645528
1645762
1646000
1646244
1646494
1646742
1647004
1647284
1647562
1647856
1648132
1648402
1648670
1648948
1649226
1649498
1649778
1650068
1650356
1650644
1650946
1651252
1651554
1651872
1652196
1652510
1652836
1653166
1653486
1653814
1654154
1654496
1654820
1655152
1655488
1655804
1656130
1656444
1656748
1657068
1657386
1657690
1658040
1658372
1658690
1659018
1659338
1659656
1659976
1660290
1660608
1660934
1661248
1661564
1661894
1662210
1662518
1662840
1663162
1663474
1663804
1664130
1664444
1664778
1665106
1665414
1665738
1666060
1666366
1666682
1666996
1667300
1667622
1667942
1668252
1668582
1668908
1669224
1669552
1669868
1670178
1670502
1670820
1671124
1671446
1671770
1672084
1672414
1672736
1673046
1673362
1673688
1673998
1674320
1674644
1674954
1675276
1675606
1675920
1676246
1676570
1676876
1677192
1677500
1677806
1678116
1678432
1678738
1679054
1679374
1679682
1680006
1680338
1680652
1680978
1681302
1681616
1681940
1682266
1682574
1682888
1683200
1683502
1683820
1684148
1684452
1684770
1685092
1685396
1685700
1686006
1686300
1686606
1686916
1687220
1687544
1687858
1688176
1688500
1688818
1689126
1689440
1689756
1690062
1690378
1690694
1691004
1691322
1691648
1691962
1692276
1692602
1692916
1693226
1693544
1693862
1694172
1694490
1694802
1695104
1695416
1695730
1696032
1696344
1696648
1696952
1697258
1697552
1697838
1698094
1698352
1698594
1698830
1699064
1699294
1699526
1699760
1699998
1700236
1700472
1700712
1700968
1701246
1701560
1701850
1702128
1702412
1702696
1702976
1703266
1703554
1703836
1704128
1704426
1704724
1705028
1705334
1705638
1705948
1706262
1706574
1706890
1707210
1707526
1707842
1708160
1708474
1708786
1709104
1709414
1709722
1710036
1710352
1710656
1710972
1711292
1711600
1711914
1712236
1712546
1712862
1713184
1713500
1713822
1714148
1714474
1714794
1715120
1715436
1715750
1716070
1716384
1716696
1717016
1717334
1717650
1717976
1718296
1718612
1718936
1719260
1719580
1719902
1720228
1720544
1720864
1721178
1721486
1721804
1722118
1722424
1722742
1723064
1723384
1723708
1724032
1724350
1724678
1724996
1725308
1725626
1725946
1726260
1726584
1726902
1727222
1727552
1727880
1728202
1728534
1728858
1729180
1729510
1729832
1730156
1730490
1730820
1731146
1731476
1731800
1732120
1732448
1732766
1733086
1733406
1733726
1734044
1734368
1734688
1735006
1735336
1735656
1735972
1736292
1736600
1736874
1737144
1737398
1737652
1737914
1738166
1738412
1738654
1738888
1739124
1739362
1739600
1739830
1740060
1740287
1740508
1740728
1740946
1741158
1741370
1741592
1741820
1742052
1742312
1742616
1742908
1743202
1743498
1743802
1744100
1744400
1744704
1745014
1745310
1745612
1745914
1746214
1746512
1746816
1747118
1747426
1747738
1748054
1748376
1748692
1749018
1749342
1749666
1749998
1750328
1750656
1750980
1751304
1751636
1751958
1752280
1752612
1752938
1753262
1753586
1753910
1754230
1754552
1754870
1755190
1755514
1755840
1756158
1756488
1756820
1757150
1757484
1757816
1758148
1758474
1758812
1759140
1759472
1759806
1760136
1760460
1760788
1761116
1761442
1761772
1762096
1762416
1762740
1763060
1763384
1763708
1764026
1764352
1764680
1765008
1765334
1765670
1766006
1766338
1766672
1767006
1767332
1767660
1767986
1768312
1768642
1768976
1769308
1769644
1769980
1770310
1770644
1770970
1771290
1771614
1771934
1772260
1772600
1772950
1773306
1773672
1774042
1774420
1774796
1775158
1775520
1775882
1776230
1776588
1776934
1777274
1777622
1777966
1778306
1778656
1778998
1779336
1779680
1780016
1780344
1780678
1781002
1781328
1781662
1781994
1782330
1782670
1783008
1783342
1783678
1784006
1784332
1784666
1784988
1785314
1785644
1785974
1786302
1786636
1786972
1787314
1787652
1787988
1788326
1788672
1789004
1789340
1789678
1790008
1790342
1790684
1791018
1791358
1791700
1792034
1792368
1792702
1793028
1793350
1793678
1794002
1794334
1794662
1794990
1795312
1795640
1795968
1796290
1796622
1796946
1797270
1797600
1797924
1798248
1798576
1798906
1799240
1799568
1799900
