peaks
119
309
504
700
902
1098
1290
1488
1688
1888
2078
2276
2472
2672
2862
3062
3260
3462
3658
3848
4046
4242
4440
4630
4826
5024
5226
5422
5622
5826
6028
6232
6428
6630
6834
7036
7232
7432
7634
7836
8032
8232
8434
8638
8834
9034
9234
9436
9630
9820
10016
10216
10410
10604
10804
11004
11206
11400
11600
11808
12004
12202
12398
12596
12796
12992
13190
13392
13594
13790
13988
14192
14396
14596
14792
14998
15204
15406
15610
15816
16022
16222
16428
16632
16840
17038
17242
17448
17654
17852
18056
18260
18462
18664
18866
19068
19272
19468
19666
19862
20060
20254
20452
20652
20850
21042
21236
21434
21632
21820
22016
22214
22412
22606
22800
22998
23198
23392
23584
23778
23974
24174
24364
24554
24748
24944
25144
25336
25532
25730
25928
26126
26316
26514
26714
26914
27108
27296
27492
27690
27886
28076
28270
28464
28660
28854
29040
29234
29428
29626
29814
30010
30206
30406
30598
30790
30986
31184
31376
31568
31764
31956
32150
32338
32532
32724
32920
33112
33304
33500
33692
33884
34072
34258
34448
34638
34824
35012
35204
35396
35588
35774
35964
36158
36348
36540
36726
36918
37112
37306
37494
37686
37878
38072
38268
38460
38658
38858
39056
39250
39450
39652
39848
40044
40246
40448
40642
40836
41032
41220
41406
41592
41782
41966
42154
42340
42532
42722
42910
43100
43288
43484
43676
43862
44054
44248
44436
44618
44804
44992
45184
45370
45554
45744
45936
46122
46310
46502
46702
46894
47086
47284
47488
47694
47894
48094
48298
48502
48698
48892
49092
49288
49482
49674
49870
50072
50266
50458
50652
50848
51046
51246
51438
51630
51824
52022
52224
52420
52612
52810
53008
53208
53400
53596
53792
53990
54180
54376
54574
54774
54970
55166
55364
55564
55760
55950
56144
56336
56524
56722
56912
57102
57294
57488
57680
57874
58066
58260
58452
58642
58830
59018
59208
59394
59582
59774
59968
60164
60352
60540
60734
60928
61116
61304
61490
61680
61866
62050
62242
62436
62632
62824
63022
63226
63426
63618
63816
64012
64204
64392
64578
64770
64956
65142
65330
65524
65714
65900
66096
66294
66494
66690
66892
67098
67302
67500
67698
67898
68108
68306
68502
68704
68910
69110
69306
69512
69720
69926
70124
70332
70540
70740
70938
71142
71348
71546
71740
71946
72150
72348
72544
72746
72948
73144
73340
73536
73734
73928
74118
74316
74520
74714
74908
75106
75306
75506
75700
75894
76094
76292
76488
76680
76878
77082
77276
77468
77666
77866
78058
78250
78446
78644
78844
79038
79238
79438
79642
79842
80038
80240
80442
80640
80834
81030
81228
81418
81612
81808
82006
82196
82386
82582
82780
82972
83164
83360
83558
83752
83942
84138
84338
84530
84720
84916
85112
85306
85498
85694
85892
86090
86284
86484
86682
86878
87072
87270
87466
87658
87856
87972
88256
88448
88638
88830
89026
89222
89414
89606
89800
90000
90194
90388
90586
90784
90984
91176
91380
91580
91782
91982
92180
92380
92578
92778
92970
93168
93366
93568
93762
93954
94154
94352
94550
94742
94940
95140
95344
95540
95736
95936
96138
96334
96528
96728
96924
97124
97318
97516
97712
97908
98102
98294
98488
98684
98876
99066
99260
99458
99650
99838
100032
100228
100416
100606
100796
100990
101180
101370
101568
101766
101960
102152
102348
102548
102740
102932
103130
103328
103522
103716
103914
104112
104306
104498
104692
104892
105086
105280
105468
105662
105856
106052
106244
106436
106630
106826
107024
107214
107404
107596
107792
107984
108174
108370
108566
108766
108956
109156
109352
109550
109740
109936
110132
110330
110520
110712
110904
111098
111290
111480
111672
111870
112060
112250
112442
112634
112828
113016
113206
113398
113590
113778
113972
114164
114358
114546
114740
114936
115134
115326
115512
115706
115900
116098
116288
116482
116678
116876
117070
117262
117458
117660
117854
118048
118246
118446
118648
118842
119034
119230
119426
119622
119818
120010
120204
120398
120594
120784
120980
121174
121370
121566
121756
121948
122142
122332
122526
122716
122908
123104
123300
123494
123688
123888
124082
124280
124470
124666
124860
125058
125252
125440
125634
125834
126036
126232
126426
126624
126826
127020
127212
127400
127596
127790
127986
128178
128370
128566
128766
128960
129150
129340
129532
129726
129920
130108
130300
130494
130690
130882
131072
131270
131468
131668
131862
132054
132254
132454
132652
132844
133044
133242
133446
133644
133842
134036
134236
134436
134632
134828
135028
135226
135426
135620
135820
136020
136216
136406
136602
136798
136988
137184
137386
137580
137772
137970
138168
138360
138548
138744
138936
139122
139312
139506
139694
139882
140078
140268
140464
140652
140842
141038
141226
141420
141614
141810
141996
142190
142384
142572
142758
142952
143146
143336
143530
143722
143914
144108
144304
144504
144694
144882
145070
145262
145446
145628
145818
146010
146198
146392
146582
146774
146960
147150
147342
147534
147724
147914
148098
148288
148476
148662
148854
149048
149246
149440
149628
149822
150014
150212
150414
150612
150810
151014
151218
151412
151616
151818
152026
152222
152414
152614
152806
153006
153206
153410
153604
153800
153998
154196
154390
154592
154796
154992
155202
155400
155604
155810
156022
156236
156446
156648
156858
157070
157280
157486
157690
157906
158120
158326
158532
158746
158960
159174
159386
159598
159798
160000
160206
160414
160618
160820
161032
161246
161454
161656
161864
162074
162282
162480
162680
162888
163096
163296
163498
163704
163910
164108
164312
164518
164718
164916
165112
165312
165506
165698
165898
166100
166306
166510
166712
166922
167134
167346
167552
167764
167978
168194
168402
168606
168820
169034
169242
169446
169642
169836
170030
170224
170420
170614
170814
171008
171202
171402
171604
171804
172004
172208
172420
172636
172842
173052
173262
173472
173684
173888
174092
174304
174516
174720
174834
175130
175336
175538
175734
175930
176134
176346
176550
176754
176966
177180
177384
177592
177808
178024
178236
178440
178650
178864
179082
179288
179494
179704
179922
180128
180332
180544
180754
180962
181160
181364
181570
181780
181980
182180
182390
182602
182812
183014
183216
183426
183634
183834
184030
184234
184440
184636
184832
185032
185236
185432
185622
185822
186020
186220
186414
186608
186804
187002
187194
187386
187582
187782
187970
188166
188360
188556
188750
188942
189140
189340
189540
189734
189936
190138
190340
190534
190736
190938
191140
191332
191530
191730
191930
192126
192324
192528
192730
192928
193126
193330
193530
193728
193926
194128
194328
194530
194724
194924
195124
195322
195526
195730
195934
196130
196332
196534
196734
196926
197124
197326
197520
197716
197916
198116
198312
198502
198700
198898
199086
199280
199474
199668
199854
200046
200242
200432
200618
200810
201004
201200
201386
201576
201768
201962
202148
202342
202538
202726
202922
203122
203312
203510
203708
203906
204098
204294
204490
204680
204874
205068
205266
205458
205650
205834
206022
206212
206394
206572
206758
206942
207122
207308
207498
207688
207880
208070
208266
208448
208632
208812
208998
209182
209364
209542
209726
209912
210096
210282
210472
210662
210850
211040
211234
211426
211616
211814
212014
212216
212416
212614
212816
213022
213218
213412
213610
213810
214008
214202
214394
214594
214792
214990
215180
215376
215576
215766
215950
216140
216324
216510
216688
216870
217060
217252
217446
217638
217832
218030
218226
218422
218612
218802
218996
219190
219378
219566
219758
219952
220148
220338
220528
220724
220910
221104
221302
221500
221696
221894
222092
222298
222494
222698
222906
223108
223306
223506
223692
223878
224060
224246
224436
224616
224800
224984
225164
225346
225530
225708
225890
226076
226270
226476
226688
226888
227094
227308
227518
227734
227934
228132
228334
228538
228744
228940
229136
229338
229536
229734
229928
230118
230306
230496
230678
230860
231040
231226
231416
231608
231796
231982
232176
232378
232582
232780
232972
233168
233364
233556
233752
233950
234152
234348
234544
234736
234928
235116
235300
235494
235690
235884
236086
236276
236470
236668
236862
237054
237246
237436
237620
237808
238000
238194
238378
238570
238762
238952
239140
239338
239538
239738
239926
240122
240316
240510
240694
240884
241074
241264
241452
241642
241836
242024
242210
242398
242588
242780
242968
243156
243346
243544
243744
243938
244128
244330
244530
244730
244922
245112
245306
245504
245698
245888
246080
246274
246472
246670
246860
247060
247258
247458
247654
247846
248042
248244
248434
248620
248812
249010
249210
249402
249594
249786
249976
250166
250358
250552
250740
250928
251118
251312
251508
251696
251888
252086
252286
252478
252670
252870
253070
253272
253466
253662
253864
254070
254266
254460
254660
254858
255058
255248
255444
255642
255840
256032
256224
256420
256620
256812
257000
257196
257392
257590
257784
257978
258172
258372
258568
258760
258958
259160
259356
259550
259750
259950
260144
260338
260536
260738
260926
261122
261320
261510
261696
261882
262074
262256
262442
262630
262816
263006
263192
263380
263562
263750
263938
264124
264308
264496
264690
264874
265060
265254
265452
265642
265834
266030
266230
266426
266618
266814
267014
267220
267414
267608
267802
268000
268196
268392
268586
268776
268972
269166
269360
269548
269740
269934
270130
270324
270512
270708
270904
271104
271296
271488
271684
271880
272080
272272
272464
272660
272860
273052
273240
273436
273632
273830
274024
274218
274416
274616
274810
275004
275204
275404
275598
275790
275986
276184
276382
276570
276766
276962
277160
277348
277542
277738
277934
278126
278316
278510
278710
278902
279092
279286
279478
279672
279862
280050
280238
280432
280624
280816
281012
281214
281408
281598
281796
281996
282194
282388
282586
282784
282984
283176
283376
283578
283780
283978
284174
284376
284578
284774
284966
285164
285364
285562
285754
285952
286150
286346
286536
286730
286928
287116
287306
287500
287694
287890
288078
288278
288478
288680
288874
289072
289272
289472
289666
289858
290054
290254
290446
290638
290836
291032
291228
291418
291614
291810
292004
292192
292386
292580
292776
292966
293154
293348
293542
293732
293918
294110
294300
294492
294676
294866
295058
295250
295436
295628
295818
296014
296202
296390
296580
296772
296966
297154
297346
297542
297738
297928
298118
298314
298514
298706
298896
299094
299288
299486
299674
299866
300060
300254
300450
300638
300832
301028
301224
301410
301604
301794
301990
302178
302364
302552
302742
302930
303112
303300
303490
303686
303876
304066
304260
304456
304652
304842
305036
305234
305434
305628
305828
306028
306226
306420
306614
306812
307010
307208
307398
307592
307788
307986
308178
308366
308558
308752
308946
309130
309318
309508
309698
309882
310072
310262
310458
310646
310832
311026
311216
311412
311600
311788
311980
312172
312366
312552
312742
312934
313128
313318
313504
313694
313886
314078
314264
314456
314650
314844
315036
315226
315422
315620
315810
315998
316190
316384
316574
316760
316948
317140
317330
317522
317706
317896
318086
318278
318462
318652
318844
319036
319226
319414
319604
319798
319990
320176
320366
320558
320750
320936
321120
321308
321500
321686
321868
322056
322242
322428
322614
322800
322990
323174
323358
323546
323734
323926
324114
324300
324496
324684
324878
325070
325258
325452
325646
325842
326032
326222
326418
326612
326806
326994
327188
327382
327578
327774
327966
328164
328360
328558
328750
328948
329146
329346
329540
329732
329932
330130
330326
330522
330712
330904
331098
331294
331480
331672
331864
332056
332244
332432
332624
332820
333014
333204
333392
333582
333780
333968
334150
334338
334526
334720
334906
335092
335282
335472
335662
335846
336034
336222
336416
336604
336788
336978
337168
337362
337548
337740
337930
338124
338318
338504
338696
338890
339084
339280
339466
339658
339852
340050
340242
340432
340626
340820
341016
341204
341398
341590
341788
341976
342162
342352
342536
342722
342908
343102
343292
343484
343678
343874
344066
344258
344446
344636
344824
345018
345206
345392
345576
345762
345950
346132
346316
346496
346682
346872
347058
347240
347430
347624
347818
348006
348202
348400
348598
348790
348986
349184
349388
349584
349780
349974
350176
350380
350578
350774
350970
351172
351376
351572
351768
351972
352180
352380
352578
352776
352980
353186
353388
353590
353798
354006
354208
354408
354606
354816
355014
355210
355402
355600
355798
355990
356180
356376
356570
356770
356964
357158
357356
357554
357754
357946
358144
358340
358540
358732
358920
359112
359308
359500
359688
359890
360084
360278
360472
360670
360868
361064
361262
361460
361666
361862
362058
362260
362464
362660
362854
363044
363238
363434
363626
363812
364008
364202
364400
364592
364782
364978
365178
365368
365558
365744
365936
366124
366312
366496
366684
366876
367062
367246
367434
367628
367814
368002
368188
368382
368570
368760
368946
369136
369326
369514
369708
369908
370100
370294
370490
370692
370884
371074
371266
371460
371654
371842
372034
372228
372424
372616
372804
372998
373194
373384
373570
373762
373960
374150
374340
374532
374730
374930
375124
375316
375514
375716
375912
376104
376302
376506
376700
376894
377086
377282
377480
377672
377858
378048
378238
378428
378614
378796
378986
379172
379356
379540
379726
379914
380098
380280
380466
380654
380844
381028
381214
381406
381600
381794
381986
382174
382372
382560
382746
382938
383128
383318
383514
383702
383888
384080
384274
384476
384668
384862
385056
385254
385454
385650
385842
386038
386238
386438
386634
386828
387028
387230
387424
387620
387816
388016
388208
388398
388586
388778
388974
389164
389352
389544
389740
389932
390124
390310
390502
390694
390886
391074
391274
391468
391660
391860
392062
392260
392454
392650
392844
393038
393234
393426
393616
393810
394004
394200
394398
394588
394782
394976
395172
395364
395552
395740
395930
396116
396300
396492
396678
396864
397058
397248
397444
397640
397838
398034
398234
398428
398620
398812
399006
399202
399390
399576
399762
399948
400144
400354
400558
400762
400964
401164
401362
401560
401758
401960
402162
402368
402570
402774
402978
403176
403374
403572
403772
403978
404178
404386
404592
404796
405000
405200
405396
405592
405786
405986
406192
406392
406590
406792
406994
407196
407398
407592
407784
407982
408184
408378
408572
408768
408966
409168
409364
409558
409758
409960
410154
410346
410540
410736
410928
411118
411316
411510
411704
411892
412086
412280
412470
412656
412846
413040
413234
413422
413612
413804
413994
414182
414366
414550
414732
414916
415102
415290
415474
415660
415850
416044
416236
416432
416634
416830
417028
417224
417414
417604
417792
417974
418166
418350
418538
418728
418914
419100
419290
419484
419674
419858
420050
420238
420428
420612
420802
420996
421190
421382
421576
421774
421970
422158
422348
422540
422722
422914
423102
423290
423478
423668
423860
424054
424240
424430
424622
424814
425002
425190
425380
425562
425752
425942
426136
426328
426516
426710
426906
427102
427290
427484
427676
427868
428054
428238
428428
428616
428802
428990
429182
429374
429572
429760
429956
430150
430344
430536
430732
430926
431122
431318
431510
431706
431900
432096
432286
432480
432674
432868
433054
433246
433440
433630
433826
434016
434210
434406
434592
434782
434970
435154
435338
435524
435708
435884
436070
436256
436444
436632
436824
437014
437204
437396
437594
437784
437974
438166
438360
438544
438738
438932
439124
439316
439514
439716
439918
440116
440310
440510
440712
440908
441100
441298
441490
441678
441868
442056
442238
442426
442616
442808
442994
443190
443394
443596
443792
443984
444184
444386
444586
444780
444982
445186
445390
445588
445786
445990
446196
446394
446594
446794
446996
447196
447388
447586
447788
447990
448190
448388
448590
448798
448994
449190
449392
449594
449794
449984
450182
450380
450580
450780
450978
451182
451384
451584
451778
451974
452172
452370
452568
452756
452954
453150
453348
453538
453736
453934
454136
454332
454526
454724
454918
455108
455302
455502
455694
455888
456088
456290
456486
456684
456882
457082
457274
457472
457670
457872
458066
458258
458454
458648
458842
459032
459226
459420
459614
459804
459996
460194
460386
460574
460768
460964
461152
461348
461544
461746
461946
462142
462344
462548
462752
462950
463156
463360
463564
463768
463964
464166
464370
464576
464780
464978
465184
465388
465592
465790
465992
466196
466392
466586
466784
466982
467180
467374
467566
467762
467962
468154
468344
468536
468730
468926
469116
469310
469508
469706
469900
470092
470292
470494
470690
470884
471082
471280
471478
471670
471860
472054
472252
472448
472640
472836
473034
473232
473426
473620
473816
474016
474214
474406
474604
474802
475000
475190
475388
475584
475782
475972
476170
476364
476560
476756
476948
477144
477342
477542
477738
477936
478136
478340
478538
478734
478938
479138
479338
479530
479726
479928
480122
480314
480510
480710
480904
481096
481294
481494
481686
481876
482070
482264
482462
482654
482842
483036
483230
483424
483614
483806
484002
484198
484390
484582
484778
484976
485176
485368
485568
485766
485964
486162
486356
486554
486752
486950
487142
487340
487540
487738
487936
488128
488324
488518
488714
488902
489098
489294
489494
489686
489884
490082
490284
490478
490674
490870
491072
491264
491454
491650
491844
492040
492230
492430
492632
492836
493032
493228
493428
493626
493826
494016
494214
494410
494610
494804
495000
495198
495398
495600
495792
495994
496192
496390
496582
496778
496974
497174
497368
497558
497752
497946
498142
498330
498522
498716
498914
499102
499294
499488
499684
499868
500062
500254
500444
500636
500828
501022
501208
501402
501596
501798
501992
502188
502388
502588
502780
502978
503174
503370
503562
503754
503950
504138
504324
504516
504710
504902
505096
505292
505480
505672
505864
506048
506238
506428
506618
506808
507002
507194
507384
507574
507768
507964
508154
508348
508544
508742
508934
509126
509326
509530
509734
509940
510138
510342
510544
510744
510946
511146
511344
511538
511738
511938
512142
512342
512542
512744
512946
513150
513342
513542
513736
513930
514118
514310
514504
514700
514896
515090
515288
515488
515690
515886
516084
516284
516488
516684
516878
517080
517280
517482
517676
517878
518078
518280
518476
518674
518868
519066
519256
519450
519642
519834
520028
520224
520424
520622
520812
521008
521204
521400
521594
521790
521990
522192
522392
522586
522786
522986
523182
523374
523568
523762
523962
524160
524352
524552
524752
524954
525154
525350
525550
525750
525950
526140
526334
526530
526718
526912
527104
527292
527482
527670
527860
528050
528242
528432
528622
528814
529006
529196
529386
529576
529768
529962
530152
530342
530536
530732
530926
531120
531316
531520
531726
531932
532128
532334
532538
532742
532936
533136
533334
533532
533726
533924
534122
534322
534512
534710
534908
535104
535302
535496
535698
535902
536098
536298
536500
536704
536908
537102
537302
537502
537704
537896
538094
538292
538486
538682
538880
539080
539282
539478
539678
539878
540078
540278
540472
540674
540876
541078
541274
541476
541676
541878
542074
542272
542468
542666
542862
543056
543254
543450
543652
543846
544044
544242
544440
544632
544826
545018
545212
545402
545598
545792
545988
546182
546378
546578
546778
546974
547170
547368
547566
547766
547952
548144
548336
548524
548714
548904
549094
549284
549478
549672
549858
550052
550246
550442
550634
550830
551028
551228
551426
551618
551804
551994
552182
552372
552560
552742
552924
553108
553288
553466
553650
553832
554010
554192
554378
554556
554738
554928
555120
555316
555514
555702
555900
556104
556310
556508
556706
556906
557110
557304
557496
557692
557888
558082
558270
558462
558656
558854
559050
559238
559432
559622
559816
560000
560192
560382
560576
560768
560960
561160
561364
561554
561750
561950
562150
562350
562540
562738
562936
563134
563326
563522
563718
563914
564104
564298
564494
564688
564878
565072
565270
565468
565660
565856
566058
566258
566454
566646
566844
567044
567244
567434
567630
567824
568018
568204
568398
568590
568784
568970
569164
569358
569554
569746
569934
570130
570326
570518
570706
570904
571104
571306
571498
571698
571900
572100
572294
572496
572696
572900
573096
573292
573494
573694
573896
574090
574294
574490
574686
574884
575078
575276
575472
575670
575864
576054
576246
576434
576620
576802
576988
577170
577350
577536
577720
577908
578096
578280
578472
578670
578870
579072
579258
579454
579644
579828
580012
580190
580376
580566
580764
580952
581142
581330
581524
581716
581910
582110
582318
582526
582730
582930
583126
583320
583508
583694
583880
584068
584260
584456
584642
584830
585014
585202
585392
585586
585784
585990
586202
586406
586624
586836
587046
587244
587442
587636
587828
588022
588218
588410
588600
588800
589002
589204
589404
589606
589810
590016
590214
590416
590620
590824
591026
591228
591420
591606
591794
591980
592164
592346
592526
592716
592916
593118
593314
593518
593728
593934
594132
594338
594542
594748
594944
595150
595354
595562
595764
595962
596168
596374
596572
596776
596980
597188
597386
597584
597786
597990
598188
598382
598584
598786
598988
599182
599378
599572
599766
599956
600148
600346
600546
600740
600936
601136
601338
601538
601732
601930
602132
602328
602520
602720
602924
603118
603312
603514
603716
603918
604114
604314
604516
604704
604898
605092
605288
605478
605666
605856
606052
606240
606428
606618
606808
606996
607180
607368
607554
607744
607936
608120
608306
608498
608686
608872
609062
609254
609444
609632
609828
610018
610204
610396
610580
610770
610960
611150
611342
611534
611722
611914
612096
612280
612466
612650
612830
613014
613200
613390
613578
613764
613956
614144
614332
614530
614718
614904
615096
615284
615472
615654
615836
616016
616190
616366
616538
616712
616888
617064
617244
617416
617598
617784
617968
618152
618344
618540
618742
618928
619122
619320
619518
619716
619908
620102
620300
620494
620690
620884
621070
621254
621438
621620
621806
621996
622174
622362
622552
622746
622936
623124
623318
623508
623702
623890
624072
624258
624442
624628
624806
624990
625178
625368
625558
625740
625930
626122
626312
626504
626692
626874
627062
627248
627434
627618
627804
627988
628172
628358
628544
628736
628916
629102
629286
629472
629658
629838
630022
630208
630390
630570
630754
630936
631120
631296
631476
631658
631838
632010
632186
632364
632544
632728
632902
633074
633254
633432
633612
633788
633960
634138
634318
634492
634672
634854
635040
635222
635412
635608
635796
635978
636166
636354
636544
636722
636908
637096
637282
637462
637650
637842
638026
638208
638394
638586
638768
638948
639132
639318
639498
639678
639862
640052
640234
640416
640602
640790
640980
641162
641348
641532
641714
641896
642080
642262
642444
642636
642832
643020
643210
643404
643602
643794
643984
644180
644382
644578
644770
644966
645164
645356
645544
645738
645932
646128
646324
646510
646694
646880
647068
647258
647442
647624
647814
648006
648196
648382
648578
648778
648972
649158
649350
649542
649736
649920
650110
650302
650490
650676
650866
651060
651250
651436
651630
651826
652016
652204
652398
652590
652774
652962
653154
653348
653540
653732
653920
654104
654288
654464
654648
654832
655014
655190
655372
655556
655740
655918
656102
656290
656478
656660
656846
657034
657218
657404
657592
657780
657960
658144
658330
658518
658696
658880
659064
659244
659426
659606
659788
659974
660154
660340
660528
660718
660900
661084
661270
661458
661636
661818
662002
662188
662364
662546
662730
662914
663100
663280
663464
663652
663840
664022
664210
664398
664586
664768
664954
665142
665334
665518
665700
665884
666072
666260
666442
666628
666818
667004
667194
667374
667560
667746
667932
668114
668300
668486
668674
668852
669034
669218
669394
669574
669756
669938
670118
670302
670486
670666
670846
671028
671210
671390
671574
671750
671932
672116
672300
672478
672660
672844
673034
673214
673392
673574
673754
673936
674122
674310
674500
674684
674874
675062
675254
675440
675624
675812
676000
676188
676370
676556
676742
676932
677112
677298
677486
677672
677862
678044
678230
678416
678600
678790
678980
679172
679364
679548
679738
679930
680080
680300
680488
680678
680866
681048
681230
681416
681600
681788
681980
682168
682354
682548
682746
682944
683128
683322
683516
683698
683884
684074
684272
684460
684646
684838
685032
685230
685418
685602
685792
685982
686174
686364
686550
686742
686936
687130
687324
687510
687704
687898
688096
688284
688474
688670
688866
689064
689252
689446
689640
689834
690028
690214
690406
690598
690788
690978
691166
691348
691534
691728
691922
692116
692306
692496
692682
692868
693052
693234
693414
693594
693774
693956
694142
694330
694516
694704
694890
695080
695268
695454
695640
695824
696008
696188
696368
696548
696728
696908
697084
697262
697446
697634
697824
698008
698200
698392
698590
698788
698982
699174
699372
699570
699768
699956
700148
700342
700532
700722
700912
701098
701282
701468
701662
701850
702034
702216
702394
702576
702758
702940
703124
703308
703492
703682
703872
704056
704248
704440
704632
704826
705020
705218
705414
705610
705802
705996
706184
706368
706554
706742
706934
707120
707302
707488
707678
707872
708056
708244
708432
708620
708810
709002
709162
709374
709562
709752
709940
710132
710314
710496
710674
710856
711042
711232
711416
711596
711782
711970
712162
712346
712528
712716
712908
713102
713290
713478
713672
713866
714060
714248
714436
714628
714822
715010
715196
715388
715578
715770
715958
716152
716344
716536
716732
716926
717122
717308
717498
717688
717882
718068
718254
718446
718638
718830
719018
719210
719404
719586
719776
719964
720152
720336
720522
720706
720890
721078
721268
721460
721652
721846
722040
722234
722420
722614
722806
723000
723188
723382
723576
723776
723964
724150
724338
724528
724718
724900
725086
725270
725456
725644
725824
726010
726198
726392
726574
726766
726956
727146
727336
727526
727710
727900
728090
728276
728462
728652
728842
729034
729222
729408
729602
729792
729984
730166
730352
730540
730726
730910
731096
731284
731470
731660
731844
732024
732212
732400
732582
732758
732940
733116
733298
733480
733664
733852
734040
734230
734414
734594
734780
734964
735148
735334
735518
735698
735880
736064
736252
736436
736624
736810
737002
737192
737384
737580
737778
737976
738172
738370
738568
738766
738962
739150
739344
739536
739730
739916
740106
740298
740492
740684
740866
741054
741242
741426
741608
741790
741978
742156
742338
742524
742716
742910
743104
743296
743490
743686
743882
744070
744262
744458
744658
744854
745046
745238
745438
745636
745836
746030
746216
746408
746602
746792
746982
747172
747356
747544
747730
747916
748106
748298
748490
748680
748864
749052
749238
749426
749608
749794
749978
750166
750348
750536
750728
750920
751106
751296
751486
751678
751866
752054
752244
752438
752630
752822
753012
753206
753400
753592
753774
753962
754152
754346
754536
754726
754908
755092
755278
755462
755650
755832
756018
756204
756392
756582
756764
756948
757132
757316
757490
757670
757852
758036
758218
758402
758582
758764
758952
759138
759322
759510
759706
759904
760102
760300
760498
760686
760882
761076
761274
761464
761652
761844
762036
762230
762420
762610
762806
763000
763198
763398
763596
763792
763980
764170
764364
764554
764746
764932
765114
765302
765488
765678
765860
766048
766242
766434
766620
766814
767008
767202
767400
767602
767794
767988
768180
768376
768564
768748
768928
769112
769296
769484
769666
769850
770032
770222
770416
770612
770810
771008
771202
771394
771584
771770
771952
772140
772324
772510
772700
772892
773088
773276
773464
773650
773842
774032
774226
774410
774596
774784
774980
775180
775376
775584
775794
776010
776216
776420
776632
776844
777052
777252
777456
777666
777860
778058
778254
778456
778660
778860
779050
779246
779442
779638
779832
780032
780234
780436
780642
780836
781024
781216
781406
781594
781780
781964
782148
782336
782518
782696
782874
783050
783230
783416
783600
783788
783982
784180
784380
784576
784768
784966
785164
785354
785544
785738
785932
786124
786314
786506
786696
786890
787074
787254
787438
787622
787808
787988
788168
788354
788542
788732
788924
789110
789298
789490
789684
789880
790072
790260
790460
790656
790850
791048
791250
791452
791650
791844
792044
792248
792444
792638
792834
793030
793222
793412
793596
793786
793972
794156
794340
794530
794726
794918
795108
795310
795510
795712
795908
796104
796304
796504
796702
796896
797086
797280
797476
797672
797860
798054
798238
798434
798622
798808
798998
799192
799392
799586
799792
800000
800210
800420
800622
800824
801036
801234
801440
801654
801870
802084
802294
802512
802730
802942
803150
803362
803578
803794
804012
804230
804450
804662
804868
805072
805276
805476
805666
805860
806060
806250
806446
806642
806844
807046
807238
807432
807620
807816
808002
808196
808388
808588
808780
808972
809170
809374
809572
809764
809966
810170
810374
810570
810762
810962
811166
811360
811554
811746
811946
812144
812340
812528
812716
812906
813090
813274
813466
813654
813846
814042
814228
814412
814606
814794
814994
815182
815376
815572
815768
815968
816162
816354
816546
816742
816942
817142
817336
817530
817728
817932
818138
818336
818530
818720
818910
819100
819296
819498
819692
819890
820084
820288
820492
820694
820896
821090
821292
821492
821690
821896
822094
822294
822486
822690
822888
823094
823294
823488
823680
823878
824078
824280
824484
824688
824882
825072
825260
825452
825646
825842
826036
826234
826438
826640
826836
827038
827242
827444
827642
827838
828038
828236
828426
828616
828810
829012
829206
829396
829588
829784
829982
830178
830372
830564
830762
830960
831152
831348
831546
831746
831954
832158
832364
832582
832790
832996
833208
833418
833618
833830
834028
834236
834436
834642
834836
835028
835218
835410
835606
835806
835998
836186
836376
836568
836770
836964
837166
837366
837578
837794
837996
838202
838408
838610
838816
839024
839228
839428
839636
839852
840060
840272
840488
840706
840912
841116
841324
841524
841722
841926
842122
842316
842516
842724
842924
843132
843328
843524
843722
843924
844116
844310
844500
844694
844894
845100
845300
845500
845706
845914
846122
846322
846516
846716
846916
847120
847314
847520
847718
847914
848112
848312
848518
848724
848928
849130
849342
849554
849756
849954
850158
850362
850558
850748
850948
851148
851348
851542
851740
851938
852138
852332
852524
852722
852924
853116
853308
853508
853712
853910
854106
854310
854516
854716
854916
855116
855322
855520
855714
855918
856120
856328
856530
856724
856922
857114
857314
857514
857708
857904
858108
858304
858506
858716
858926
859140
859344
859546
859754
859960
860166
860372
860570
860774
860978
861188
861388
861588
861790
861994
862198
862394
862590
862792
862994
863190
863386
863588
863794
863992
864186
864386
864588
864788
864980
865172
865368
865564
865754
865944
866142
866340
866534
866726
866922
867122
867314
867502
867694
867890
868076
868260
868450
868642
868838
869030
869220
869414
869610
869806
869998
870190
870384
870586
870780
870974
871172
871370
871568
871760
871960
872160
872362
872558
872754
872952
873150
873350
873548
873744
873946
874148
874344
874538
874738
874938
875136
875330
875526
875724
875920
876112
876302
876488
876674
876868
877054
877244
877434
877632
877832
878028
878220
878420
878622
878824
879020
879214
879412
879614
879808
880004
880206
880406
880606
880806
880998
881198
881398
881588
881786
881984
882184
882378
882570
882768
882968
883160
883354
883550
883748
883942
884132
884326
884524
884716
884904
885100
885300
885498
885692
885892
886092
886294
886492
886686
886886
887088
887284
887476
887672
887866
888062
888252
888450
888646
888842
889034
889230
889426
889624
889816
890006
890200
890398
890592
890782
890980
891176
891372
891562
891758
891954
892152
892346
892538
892732
892928
893128
893316
893514
893710
893912
894106
894300
894496
894694
894884
895078
895274
895476
895672
895864
896062
896260
896460
896656
896848
897044
897244
897438
897630
897828
898028
898222
898410
898604
898802
898992
899180
899372
899566
899756
899942
900138
900334
900536
900732
900926
901126
901324
901524
901718
901912
902114
902310
902504
902700
902892
903080
903276
903468
903658
903852
904046
904244
904444
904638
904826
905012
905198
905386
905572
905764
905950
906136
906318
906508
906704
906896
907080
907274
907470
907664
907856
908048
908236
908428
908616
908812
909010
909206
909402
909590
909786
909984
910180
910376
910572
910762
910946
911136
911332
911530
911724
911916
912114
912318
912514
912706
912906
913102
913304
913498
913690
913886
914084
914278
914470
914658
914852
915048
915236
915424
915620
915812
916008
916200
916390
916586
916782
916974
917162
917360
917562
917756
917948
918144
918340
918544
918740
918934
919124
919320
919520
919712
919902
920102
920292
920478
920668
920856
921046
921230
921410
921598
921786
921974
922154
922338
922524
922710
922892
923072
923260
923452
923636
923820
924008
924200
924392
924578
924770
924966
925168
925360
925560
925756
925958
926154
926346
926544
926740
926936
927126
927322
927518
927716
927912
928106
928304
928500
928692
928882
929074
929264
929456
929638
929824
930012
930206
930392
930574
930760
930944
931124
931304
931488
931674
931866
932052
932236
932426
932620
932818
933008
933194
933384
933574
933764
933946
934130
934318
934500
934678
934860
935048
935228
935416
935604
935794
935986
936170
936360
936552
936734
936918
937104
937286
937464
937646
937830
938010
938190
938368
938556
938744
938934
939122
939310
939498
939684
939868
940054
940242
940426
940610
940800
940986
941176
941360
941550
941742
941934
942118
942308
942496
942688
942880
943064
943254
943444
943636
943818
944006
944196
944386
944572
944762
944954
945148
945340
945526
945718
945908
946100
946292
946480
946674
946866
947062
947246
947438
947632
947828
948022
948210
948404
948596
948794
948986
949172
949360
949550
949738
949922
950104
950292
950476
950656
950842
951034
951224
951414
951608
951804
952002
952192
952388
952586
952786
952984
953176
953374
953576
953772
953964
954158
954352
954542
954734
954924
955114
955306
955502
955696
955890
956086
956284
956478
956674
956872
957070
957264
957462
957658
957860
958056
958252
958448
958644
958840
959036
959230
959426
959622
959816
960008
960204
960398
960586
960778
960972
961164
961360
961544
961726
961912
962098
962280
962466
962648
962830
963016
963206
963394
963580
963768
963960
964152
964346
964534
964728
964924
965118
965310
965498
965684
965868
966052
966240
966428
966620
966812
967006
967200
967396
967596
967796
967986
968170
968358
968540
968726
968910
969088
969270
969452
969634
969816
970000
970188
970366
970548
970732
970916
971102
971278
971460
971642
971824
972002
972182
972368
972546
972732
972920
973112
973298
973488
973680
973872
974064
974248
974438
974628
974818
975004
975190
975380
975572
975762
975946
976136
976326
976516
976708
976898
977090
977276
977462
977652
977842
978028
978218
978412
978598
978788
978982
979178
979370
979570
979774
979976
980176
980380
980584
980782
980978
981182
981388
981584
981776
981974
982180
982380
982582
982786
982988
983186
983382
983580
983784
983984
984178
984382
984578
984786
984994
985192
985392
985588
985786
985982
986178
986368
986550
986740
986922
987108
987298
987490
987686
987888
988090
988286
988488
988690
988894
989096
989300
989502
989708
989912
990118
990312
990508
990698
990892
991086
991274
991470
991666
991856
992058
992266
992476
992678
992886
993094
993300
993496
993698
993898
994098
994292
994492
994694
994902
995110
995318
995524
995718
995916
996118
996316
996518
996724
996934
997138
997338
997542
997750
997960
998160
998362
998568
998776
998980
999186
999396
999604
999810
1000018
1000228
1000432
1000626
1000824
1001022
1001218
1001414
1001606
1001796
1001996
1002202
1002410
1002620
1002828
1003022
1003222
1003422
1003622
1003814
1004010
1004206
1004402
1004592
1004784
1004976
1005174
1005382
1005588
1005792
1005990
1006200
1006410
1006618
1006828
1007026
1007222
1007424
1007622
1007828
1008038
1008244
1008442
1008650
1008860
1009062
1009264
1009470
1009680
1009888
1010082
1010286
1010490
1010696
1010902
1011098
1011292
1011494
1011696
1011894
1012094
1012302
1012514
1012716
1012922
1013128
1013334
1013548
1013762
1013976
1014186
1014394
1014592
1014784
1014978
1015172
1015370
1015574
1015772
1015984
1016186
1016394
1016608
1016820
1017028
1017228
1017430
1017630
1017832
1018028
1018234
1018448
1018660
1018870
1019080
1019276
1019480
1019684
1019886
1020086
1020280
1020478
1020680
1020882
1021076
1021278
1021482
1021690
1021886
1022092
1022296
1022496
1022694
1022892
1023090
1023284
1023478
1023676
1023876
1024072
1024262
1024460
1024656
1024848
1025038
1025224
1025416
1025600
1025794
1025992
1026192
1026386
1026588
1026790
1026994
1027190
1027390
1027594
1027798
1027994
1028200
1028412
1028610
1028814
1029020
1029224
1029422
1029626
1029828
1030032
1030240
1030442
1030644
1030838
1031034
1031230
1031428
1031618
1031806
1032000
1032198
1032396
1032588
1032788
1032994
1033200
1033396
1033600
1033810
1034018
1034220
1034424
1034632
1034840
1035048
1035244
1035450
1035660
1035868
1036074
1036280
1036494
1036706
1036916
1037120
1037330
1037542
1037750
1037950
1038158
1038368
1038576
1038774
1038980
1039190
1039400
1039598
1039808
1040018
1040226
1040426
1040634
1040842
1041048
1041250
1041458
1041666
1041872
1042074
1042276
1042478
1042682
1042878
1043080
1043286
1043486
1043684
1043884
1044086
1044282
1044478
1044676
1044876
1045070
1045264
1045464
1045666
1045864
1046062
1046264
1046462
1046656
1046850
1047046
1047238
1047430
1047628
1047826
1048026
1048216
1048414
1048614
1048814
1049006
1049206
1049408
1049608
1049806
1050008
1050208
1050408
1050608
1050812
1051016
1051218
1051418
1051622
1051826
1052028
1052230
1052434
1052638
1052840
1053040
1053242
1053444
1053644
1053836
1054032
1054230
1054428
1054628
1054812
1055002
1055190
1055382
1055566
1055746
1055932
1056116
1056300
1056486
1056674
1056864
1057056
1057242
1057434
1057626
1057816
1058008
1058202
1058396
1058578
1058764
1058950
1059138
1059322
1059506
1059694
1059886
1060076
1060268
1060462
1060658
1060848
1061042
1061236
1061420
1061608
1061792
1061978
1062164
1062348
1062534
1062722
1062912
1063094
1063280
1063464
1063650
1063830
1064012
1064194
1064376
1064556
1064740
1064924
1065108
1065292
1065480
1065666
1065852
1066040
1066228
1066418
1066608
1066788
1066974
1067166
1067356
1067546
1067730
1067922
1068114
1068306
1068488
1068676
1068862
1069050
1069234
1069420
1069606
1069794
1069980
1070168
1070358
1070550
1070734
1070924
1071114
1071304
1071492
1071682
1071876
1072070
1072262
1072456
1072654
1072852
1073048
1073242
1073434
1073628
1073820
1074012
1074206
1074400
1074600
1074798
1074996
1075196
1075396
1075594
1075790
1075988
1076186
1076388
1076584
1076778
1076972
1077168
1077364
1077554
1077750
1077948
1078142
1078334
1078526
1078718
1078908
1079098
1079282
1079468
1079658
1079848
1080034
1080222
1080416
1080606
1080794
1080986
1081178
1081370
1081562
1081754
1081950
1082146
1082334
1082528
1082722
1082918
1083112
1083302
1083494
1083684
1083876
1084064
1084254
1084444
1084634
1084822
1085008
1085196
1085378
1085568
1085750
1085936
1086124
1086300
1086484
1086664
1086844
1087026
1087206
1087392
1087570
1087744
1087920
1088098
1088278
1088456
1088636
1088812
1088992
1089178
1089360
1089550
1089744
1089940
1090136
1090334
1090530
1090716
1090904
1091090
1091280
1091468
1091656
1091848
1092038
1092234
1092426
1092612
1092806
1093006
1093210
1093412
1093610
1093810
1094010
1094208
1094404
1094610
1094818
1095026
1095228
1095430
1095628
1095826
1096026
1096226
1096428
1096632
1096834
1097036
1097236
1097428
1097618
1097812
1098006
1098206
1098406
1098596
1098784
1098978
1099176
1099374
1099568
1099768
1099970
1100172
1100370
1100564
1100764
1100962
1101156
1101356
1101562
1101764
1101968
1102164
1102370
1102578
1102786
1102990
1103190
1103398
1103604
1103810
1104008
1104214
1104422
1104630
1104830
1105038
1105246
1105454
1105654
1105860
1106066
1106274
1106470
1106676
1106882
1107080
1107284
1107490
1107696
1107898
1108096
1108286
1108480
1108672
1108864
1109056
1109246
1109426
1109614
1109800
1109992
1110182
1110374
1110568
1110764
1110954
1111150
1111350
1111546
1111744
1111954
1112156
1112354
1112550
1112740
1112928
1113116
1113300
1113484
1113666
1113846
1114026
1114204
1114378
1114556
1114736
1114914
1115088
1115266
1115450
1115628
1115818
1116010
1116208
1116404
1116600
1116798
1116988
1117178
1117366
1117548
1117730
1117916
1118102
1118290
1118476
1118662
1118850
1119030
1119212
1119386
1119570
1119754
1119932
1120116
1120304
1120498
1120686
1120870
1121062
1121246
1121430
1121634
1121828
1122024
1122222
1122418
1122606
1122798
1122984
1123180
1123374
1123568
1123770
1123970
1124174
1124380
1124588
1124784
1124988
1125192
1125386
1125588
1125790
1125994
1126198
1126398
1126596
1126796
1126996
1127180
1127368
1127560
1127742
1127924
1128110
1128300
1128482
1128672
1128864
1129056
1129244
1129436
1129624
1129810
1130002
1130198
1130398
1130592
1130788
1130990
1131190
1131382
1131582
1131784
1131986
1132176
1132376
1132582
1132772
1132974
1133178
1133372
1133566
1133764
1133968
1134160
1134348
1134542
1134742
1134934
1135126
1135324
1135528
1135722
1135922
1136128
1136334
1136538
1136736
1136942
1137146
1137348
1137546
1137750
1137958
1138168
1138366
1138570
1138780
1138992
1139194
1139394
1139602
1139810
1140014
1140214
1140418
1140622
1140824
1141020
1141224
1141434
1141634
1141830
1142034
1142238
1142438
1142636
1142838
1143042
1143238
1143430
1143632
1143836
1144030
1144232
1144436
1144642
1144836
1145036
1145236
1145440
1145632
1145832
1146040
1146232
1146430
1146634
1146830
1147022
1147220
1147424
1147618
1147810
1148006
1148206
1148400
1148596
1148798
1149002
1149198
1149402
1149606
1149808
1150000
1150202
1150410
1150608
1150804
1151010
1151218
1151416
1151624
1151834
1152044
1152246
1152456
1152666
1152870
1153070
1153276
1153484
1153686
1153888
1154102
1154314
1154518
1154722
1154934
1155142
1155344
1155548
1155758
1155966
1156166
1156374
1156590
1156794
1156996
1157206
1157418
1157620
1157822
1158030
1158236
1158438
1158638
1158846
1159052
1159254
1159460
1159668
1159876
1160078
1160286
1160498
1160700
1160902
1161110
1161324
1161528
1161734
1161944
1162156
1162360
1162564
1162774
1162982
1163182
1163390
1163598
1163806
1164006
1164214
1164420
1164620
1164824
1165028
1165236
1165438
1165636
1165844
1166054
1166254
1166456
1166662
1166872
1167076
1167280
1167490
1167702
1167908
1168112
1168322
1168536
1168744
1168950
1169162
1169374
1169580
1169784
1169996
1170210
1170416
1170620
1170832
1171032
1171236
1171442
1171648
1171848
1172054
1172262
1172464
1172662
1172872
1173082
1173282
1173482
1173688
1173896
1174102
1174304
1174514
1174724
1174932
1175134
1175340
1175550
1175762
1175964
1176176
1176388
1176602
1176804
1177014
1177226
1177438
1177644
1177848
1178058
1178272
1178478
1178686
1178900
1179112
1179318
1179522
1179732
1179940
1180138
1180336
1180542
1180748
1180948
1181144
1181346
1181550
1181748
1181942
1182144
1182350
1182548
1182744
1182950
1183148
1183346
1183548
1183750
1183950
1184148
1184348
1184546
1184748
1184946
1185140
1185338
1185540
1185734
1185928
1186124
1186322
1186520
1186714
1186912
1187110
1187310
1187502
1187702
1187904
1188108
1188304
1188506
1188714
1188920
1189124
1189322
1189528
1189732
1189936
1190136
1190342
1190552
1190756
1190958
1191164
1191370
1191572
1191780
1191988
1192198
1192396
1192600
1192804
1193010
1193206
1193410
1193616
1193820
1194016
1194218
1194420
1194622
1194816
1195016
1195220
1195422
1195616
1195818
1196018
1196220
1196414
1196608
1196808
1197006
1197202
1197394
1197590
1197788
1197982
1198174
1198370
1198568
1198768
1198960
1199160
1199360
1199560
1199754
1199958
1200164
1200366
1200566
1200774
1200980
1201182
1201384
1201588
1201796
1201992
1202194
1202394
1202596
1202794
1202988
1203188
1203390
1203584
1203780
1203980
1204184
1204380
1204574
1204774
1204972
1205174
1205368
1205570
1205772
1205972
1206166
1206366
1206568
1206768
1206964
1207166
1207368
1207572
1207770
1207972
1208172
1208374
1208566
1208762
1208964
1209158
1209350
1209548
1209746
1209940
1210132
1210330
1210530
1210722
1210914
1211110
1211310
1211504
1211698
1211898
1212102
1212298
1212494
1212696
1212900
1213104
1213300
1213502
1213704
1213908
1214104
1214308
1214514
1214716
1214920
1215122
1215332
1215544
1215748
1215950
1216160
1216366
1216574
1216774
1216980
1217184
1217390
1217586
1217790
1217994
1218194
1218386
1218584
1218784
1218986
1219180
1219382
1219582
1219786
1219986
1220184
1220388
1220594
1220798
1220996
1221198
1221400
1221606
1221804
1222002
1222206
1222414
1222614
1222812
1223018
1223224
1223430
1223630
1223836
1224042
1224248
1224446
1224648
1224850
1225050
1225252
1225446
1225644
1225846
1226042
1226236
1226434
1226632
1226830
1227022
1227218
1227416
1227606
1227802
1227998
1228196
1228394
1228588
1228786
1228986
1229184
1229376
1229572
1229772
1229970
1230162
1230360
1230558
1230756
1230948
1231146
1231346
1231544
1231738
1231936
1232134
1232336
1232528
1232726
1232926
1233128
1233320
1233516
1233714
1233912
1234108
1234298
1234496
1234692
1234892
1235084
1235282
1235482
1235684
1235882
1236074
1236274
1236472
1236672
1236862
1237058
1237254
1237450
1237646
1237844
1238042
1238244
1238440
1238634
1238832
1239034
1239226
1239424
1239620
1239820
1240020
1240214
1240412
1240614
1240806
1240998
1241196
1241396
1241588
1241776
1241972
1242168
1242368
1242558
1242752
1242948
1243142
1243340
1243528
1243724
1243920
1244118
1244312
1244504
1244702
1244904
1245106
1245302
1245502
1245704
1245906
1246108
1246302
1246502
1246702
1246906
1247102
1247304
1247506
1247708
1247908
1248108
1248306
1248506
1248704
1248894
1249090
1249288
1249488
1249678
1249878
1250078
1250280
1250472
1250670
1250866
1251066
1251264
1251454
1251648
1251844
1252030
1252220
1252410
1252604
1252788
1252974
1253162
1253350
1253534
1253716
1253906
1254092
1254278
1254470
1254666
1254864
1255058
1255258
1255458
1255658
1255850
1256046
1256242
1256440
1256630
1256824
1257024
1257224
1257426
1257624
1257828
1258030
1258236
1258434
1258632
1258836
1259038
1259240
1259438
1259642
1259846
1260052
1260246
1260448
1260650
1260854
1261056
1261250
1261454
1261658
1261868
1262070
1262272
1262480
1262686
1262894
1263096
1263302
1263508
1263714
1263922
1264120
1264326
1264534
1264746
1264950
1265152
1265360
1265568
1265776
1265974
1266180
1266384
1266592
1266790
1266994
1267198
1267404
1267604
1267800
1268002
1268204
1268406
1268600
1268804
1269006
1269212
1269410
1269616
1269820
1270028
1270228
1270426
1270630
1270832
1271036
1271230
1271428
1271630
1271834
1272032
1272228
1272428
1272626
1272830
1273022
1273224
1273424
1273630
1273828
1274026
1274226
1274430
1274628
1274822
1275022
1275224
1275420
1275612
1275808
1276000
1276196
1276382
1276576
1276774
1276966
1277158
1277348
1277546
1277742
1277944
1278136
1278336
1278536
1278738
1278932
1279132
1279332
1279532
1279732
1279928
1280126
1280326
1280524
1280714
1280912
1281106
1281306
1281502
1281694
1281892
1282090
1282290
1282482
1282678
1282876
1283076
1283278
1283470
1283670
1283870
1284072
1284274
1284468
1284666
1284866
1285070
1285264
1285464
1285664
1285866
1286068
1286268
1286468
1286674
1286882
1287084
1287278
1287478
1287678
1287878
1288078
1288272
1288470
1288670
1288876
1289074
1289268
1289468
1289668
1289868
1290060
1290258
1290454
1290652
1290848
1291040
1291236
1291434
1291632
1291824
1292022
1292220
1292420
1292614
1292808
1293006
1293198
1293390
1293584
1293784
1293982
1294182
1294378
1294578
1294774
1294966
1295164
1295360
1295550
1295744
1295942
1296134
1296326
1296522
1296722
1296910
1297108
1297302
1297498
1297696
1297886
1298080
1298274
1298470
1298662
1298852
1299050
1299248
1299448
1299648
1299840
1300044
1300236
1300436
1300638
1300838
1301040
1301238
1301436
1301630
1301830
1302030
1302234
1302434
1302636
1302832
1303032
1303222
1303410
1303594
1303786
1303972
1304166
1304364
1304556
1304750
1304944
1305134
1305322
1305516
1305710
1305906
1306102
1306292
1306480
1306670
1306864
1307048
1307234
1307426
1307616
1307804
1308000
1308196
1308392
1308590
1308796
1308992
1309196
1309400
1309606
1309798
1309994
1310190
1310384
1310574
1310758
1310956
1311146
1311340
1311536
1311736
1311936
1312134
1312340
1312552
1312760
1312966
1313162
1313358
1313558
1313758
1313958
1314158
1314348
1314538
1314732
1314928
1315120
1315312
1315512
1315720
1315920
1316128
1316326
1316534
1316738
1316942
1317146
1317348
1317542
1317736
1317934
1318138
1318336
1318532
1318736
1318942
1319136
1319340
1319544
1319748
1319944
1320148
1320352
1320556
1320750
1320952
1321158
1321352
1321554
1321760
1321958
1322150
1322348
1322546
1322746
1322936
1323132
1323334
1323534
1323726
1323928
1324130
1324332
1324526
1324728
1324936
1325132
1325336
1325542
1325744
1325938
1326142
1326340
1326534
1326726
1326920
1327116
1327306
1327502
1327704
1327902
1328100
1328312
1328514
1328716
1328922
1329126
1329336
1329534
1329728
1329928
1330132
1330326
1330518
1330720
1330928
1331136
1331336
1331552
1331756
1331962
1332174
1332390
1332596
1332802
1333014
1333226
1333442
1333650
1333856
1334066
1334276
1334488
1334694
1334894
1335098
1335304
1335504
1335700
1335902
1336108
1336314
1336512
1336716
1336920
1337124
1337318
1337522
1337726
1337932
1338128
1338330
1338532
1338734
1338930
1339126
1339326
1339530
1339734
1339940
1340146
1340342
1340544
1340750
1340954
1341154
1341360
1341558
1341764
1341972
1342174
1342370
1342578
1342788
1342990
1343190
1343396
1343600
1343804
1344000
1344200
1344402
1344604
1344796
1344992
1345192
1345392
1345586
1345778
1345980
1346186
1346386
1346584
1346780
1346982
1347192
1347394
1347592
1347800
1348008
1348214
1348416
1348614
1348820
1349028
1349228
1349430
1349634
1349844
1350044
1350244
1350450
1350660
1350860
1351062
1351268
1351474
1351678
1351876
1352080
1352282
1352484
1352678
1352878
1353082
1353288
1353482
1353676
1353874
1354076
1354270
1354464
1354652
1354848
1355050
1355244
1355436
1355636
1355842
1356040
1356238
1356442
1356650
1356846
1357048
1357250
1357454
1357656
1357864
1358072
1358280
1358478
1358680
1358880
1359084
1359276
1359474
1359670
1359868
1360058
1360252
1360444
1360634
1360824
1361010
1361202
1361388
1361580
1361778
1361976
1362170
1362368
1362570
1362774
1362974
1363168
1363370
1363572
1363774
1363970
1364174
1364378
1364584
1364782
1364986
1365192
1365396
1365596
1365802
1366008
1366212
1366410
1366618
1366816
1367014
1367216
1367420
1367626
1367832
1368038
1368246
1368456
1368658
1368858
1369054
1369260
1369460
1369656
1369858
1370068
1370262
1370462
1370668
1370866
1371060
1371262
1371464
1371658
1371768
1372060
1372264
1372462
1372660
1372856
1373056
1373262
1373468
1373666
1373866
1374064
1374264
1374464
1374662
1374858
1375048
1375244
1375444
1375640
1375832
1376022
1376216
1376406
1376602
1376798
1377000
1377196
1377388
1377584
1377782
1377980
1378176
1378368
1378564
1378756
1378950
1379142
1379330
1379526
1379716
1379916
1380126
1380336
1380540
1380740
1380934
1381128
1381316
1381510
1381698
1381884
1382078
1382276
1382468
1382674
1382884
1383082
1383286
1383492
1383696
1383888
1384084
1384282
1384482
1384676
1384866
1385068
1385272
1385474
1385668
1385870
1386076
1386272
1386468
1386664
1386870
1387070
1387270
1387484
1387684
1387894
1388102
1388310
1388518
1388724
1388922
1389116
1389312
1389506
1389702
1389896
1390086
1390280
1390472
1390664
1390854
1391038
1391222
1391410
1391596
1391782
1391974
1392160
1392354
1392550
1392742
1392932
1393120
1393318
1393504
1393688
1393882
1394070
1394256
1394446
1394632
1394824
1395014
1395210
1395398
1395588
1395774
1395966
1396160
1396346
1396530
1396724
1396918
1397116
1397308
1397502
1397690
1397874
1398070
1398268
1398456
1398650
1398846
1399044
1399232
1399428
1399628
1399818
1400008
1400200
1400398
1400592
1400788
1400986
1401186
1401372
1401568
1401766
1401962
1402154
1402354
1402556
1402748
1402944
1403142
1403334
1403524
1403720
1403914
1404108
1404310
1404520
1404724
1404942
1405162
1405384
1405594
1405798
1406012
1406226
1406434
1406636
1406840
1407052
1407264
1407474
1407676
1407888
1408104
1408312
1408516
1408716
1408912
1409104
1409302
1409508
1409704
1409898
1410096
1410306
1410524
1410744
1410962
1411180
1411394
1411608
1411816
1412018
1412228
1412440
1412656
1412860
1413068
1413282
1413500
1413724
1413934
1414144
1414364
1414584
1414802
1415010
1415220
1415438
1415654
1415856
1416054
1416252
1416440
1416634
1416828
1417018
1417206
1417406
1417610
1417806
1418006
1418218
1418434
1418636
1418838
1419046
1419254
1419464
1419664
1419866
1420070
1420280
1420478
1420674
1420876
1421084
1421280
1421476
1421664
1421860
1422064
1422266
1422464
1422666
1422864
1423064
1423262
1423458
1423654
1423848
1424036
1424228
1424416
1424612
1424810
1425002
1425194
1425390
1425588
1425790
1425990
1426188
1426392
1426604
1426808
1427012
1427214
1427422
1427632
1427834
1428038
1428238
1428446
1428646
1428846
1429044
1429246
1429452
1429652
1429848
1430048
1430250
1430444
1430636
1430830
1431026
1431212
1431404
1431590
1431780
1431976
1432166
1432356
1432550
1432746
1432938
1433128
1433328
1433520
1433712
1433900
1434094
1434292
1434482
1434672
1434866
1435068
1435262
1435464
1435668
1435876
1436078
1436274
1436474
1436676
1436880
1437076
1437274
1437476
1437680
1437878
1438072
1438268
1438472
1438670
1438868
1439060
1439262
1439466
1439662
1439856
1440054
1440254
1440448
1440640
1440838
1441040
1441236
1441426
1441620
1441820
1442012
1442206
1442396
1442598
1442792
1442988
1443184
1443382
1443584
1443784
1443992
1444198
1444402
1444608
1444810
1445010
1445206
1445410
1445612
1445810
1446014
1446212
1446402
1446596
1446786
1446982
1447184
1447378
1447572
1447768
1447972
1448184
1448382
1448582
1448790
1448998
1449212
1449418
1449622
1449826
1450036
1450248
1450452
1450654
1450858
1451064
1451274
1451476
1451678
1451886
1452096
1452296
1452496
1452700
1452908
1453106
1453304
1453508
1453716
1453914
1454112
1454316
1454520
1454716
1454912
1455116
1455314
1455514
1455712
1455902
1456092
1456284
1456480
1456674
1456864
1457056
1457250
1457448
1457642
1457832
1458032
1458236
1458442
1458642
1458840
1459046
1459254
1459452
1459646
1459846
1460046
1460248
1460442
1460640
1460844
1461054
1461254
1461452
1461658
1461860
1462060
1462256
1462448
1462646
1462836
1463026
1463222
1463424
1463622
1463826
1464034
1464242
1464442
1464638
1464842
1465046
1465244
1465438
1465638
1465842
1466042
1466240
1466450
1466664
1466870
1467074
1467286
1467500
1467704
1467906
1468110
1468320
1468520
1468720
1468924
1469134
1469334
1469530
1469734
1469944
1470142
1470340
1470542
1470750
1470950
1471150
1471354
1471560
1471760
1471958
1472160
1472366
1472564
1472764
1472970
1473178
1473380
1473584
1473798
1474002
1474200
1474404
1474608
1474806
1475004
1475208
1475414
1475616
1475816
1476022
1476230
1476430
1476628
1476834
1477042
1477244
1477442
1477648
1477856
1478054
1478252
1478454
1478658
1478862
1479058
1479262
1479464
1479672
1479872
1480072
1480278
1480488
1480690
1480892
1481098
1481306
1481510
1481712
1481920
1482130
1482332
1482534
1482740
1482952
1483154
1483354
1483562
1483770
1483976
1484174
1484376
1484580
1484784
1484982
1485188
1485394
1485598
1485796
1486000
1486202
1486400
1486592
1486788
1486986
1487180
1487368
1487564
1487760
1487960
1488156
1488352
1488556
1488762
1488962
1489156
1489358
1489564
1489762
1489956
1490156
1490360
1490558
1490752
1490954
1491156
1491366
1491572
1491772
1491976
1492184
1492380
1492576
1492776
1492980
1493176
1493370
1493562
1493748
1493934
1494118
1494308
1494498
1494688
1494876
1495074
1495282
1495478
1495678
1495878
1496080
1496286
1496486
1496684
1496886
1497088
1497296
1497496
1497696
1497896
1498102
1498310
1498520
1498722
1498922
1499128
1499332
1499540
1499738
1499932
1500130
1500324
1500522
1500724
1500928
1501124
1501324
1501526
1501732
1501930
1502128
1502334
1502542
1502746
1502944
1503144
1503348
1503554
1503752
1503952
1504156
1504360
1504560
1504760
1504962
1505168
1505368
1505566
1505762
1505954
1506144
1506340
1506534
1506734
1506930
1507120
1507310
1507502
1507700
1507890
1508080
1508278
1508478
1508680
1508872
1509074
1509274
1509482
1509680
1509878
1510086
1510294
1510500
1510698
1510900
1511106
1511316
1511518
1511716
1511922
1512134
1512338
1512542
1512748
1512962
1513166
1513370
1513580
1513794
1514004
1514204
1514414
1514624
1514834
1515036
1515246
1515456
1515666
1515870
1516074
1516284
1516492
1516698
1516902
1517112
1517322
1517526
1517726
1517936
1518146
1518348
1518548
1518756
1518962
1519164
1519366
1519572
1519784
1519992
1520198
1520416
1520630
1520838
1521044
1521254
1521466
1521670
1521880
1522090
1522298
1522500
1522708
1522918
1523122
1523328
1523538
1523748
1523950
1524154
1524366
1524576
1524782
1524990
1525202
1525414
1525614
1525822
1526030
1526236
1526434
1526642
1526848
1527050
1527250
1527458
1527668
1527870
1528074
1528282
1528492
1528692
1528900
1529108
1529316
1529520
1529722
1529932
1530146
1530360
1530562
1530762
1530966
1531166
1531366
1531562
1531758
1531958
1532156
1532354
1532546
1532734
1532928
1533124
1533322
1533512
1533712
1533916
1534120
1534316
1534516
1534722
1534928
1535132
1535332
1535540
1535746
1535946
1536148
1536350
1536554
1536750
1536940
1537132
1537324
1537514
1537700
1537884
1538066
1538256
1538450
1538640
1538848
1539058
1539276
1539482
1539688
1539900
1540116
1540318
1540528
1540734
1540936
1541134
1541326
1541516
1541712
1541906
1542104
1542296
1542488
1542682
1542876
1543078
1543282
1543482
1543686
1543888
1544084
1544280
1544484
1544690
1544896
1545094
1545302
1545514
1545718
1545920
1546130
1546338
1546540
1546744
1546956
1547152
1547352
1547550
1547750
1547954
1548150
1548342
1548542
1548744
1548946
1549144
1549338
1549538
1549738
1549942
1550140
1550338
1550540
1550748
1550954
1551154
1551354
1551560
1551772
1551978
1552186
1552402
1552620
1552834
1553042
1553246
1553446
1553640
1553840
1554040
1554246
1554446
1554648
1554856
1555066
1555276
1555476
1555680
1555884
1556088
1556288
1556484
1556688
1556892
1557098
1557298
1557502
1557706
1557914
1558116
1558316
1558522
1558732
1558932
1559134
1559340
1559550
1559758
1559960
1560170
1560384
1560586
1560786
1560992
1561200
1561400
1561596
1561800
1562002
1562210
1562406
1562608
1562810
1563010
1563204
1563402
1563600
1563800
1563990
1564186
1564384
1564582
1564776
1564972
1565170
1565370
1565562
1565764
1565964
1566162
1566358
1566556
1566760
1566962
1567156
1567354
1567554
1567756
1567952
1568148
1568348
1568552
1568750
1568948
1569150
1569358
1569560
1569758
1569960
1570160
1570352
1570550
1570750
1570948
1571142
1571342
1571544
1571742
1571940
1572142
1572346
1572540
1572738
1572940
1573140
1573336
1573530
1573730
1573930
1574124
1574322
1574528
1574732
1574928
1575132
1575338
1575548
1575750
1575954
1576160
1576368
1576566
1576774
1576982
1577190
1577388
1577594
1577802
1578012
1578214
1578420
1578630
1578838
1579036
1579242
1579450
1579656
1579854
1580056
1580262
1580462
1580660
1580864
1581068
1581266
1581472
1581678
1581886
1582086
1582292
1582496
1582702
1582900
1583102
1583306
1583512
1583712
1583916
1584122
1584330
1584528
1584734
1584942
1585142
1585340
1585542
1585746
1585940
1586144
1586344
1586540
1586734
1586926
1587122
1587314
1587504
1587700
1587898
1588098
1588294
1588500
1588706
1588910
1589108
1589312
1589516
1589720
1589918
1590114
1590314
1590516
1590716
1590908
1591110
1591312
1591516
1591716
1591918
1592122
1592320
1592520
1592722
1592924
1593118
1593318
1593520
1593724
1593920
1594120
1594322
1594522
1594720
1594918
1595118
1595316
1595510
1595706
1595902
1596102
1596294
1596484
1596682
1596882
1597082
1597276
1597476
1597674
1597876
1598070
1598270
1598472
1598670
1598870
1599070
1599274
1599470
1599666
1599866
1600070
1600266
1600464
1600664
1600860
1601056
1601254
1601458
1601650
1601848
1602046
1602244
1602436
1602632
1602832
1603030
1603222
1603420
1603618
1603814
1604006
1604198
1604392
1604586
1604772
1604964
1605158
1605352
1605542
1605736
1605936
1606138
1606336
1606540
1606742
1606944
1607146
1607348
1607552
1607756
1607962
1608160
1608364
1608570
1608772
1608970
1609172
1609378
1609580
1609778
1609984
1610188
1610394
1610592
1610792
1610998
1611202
1611400
1611598
1611802
1612002
1612206
1612402
1612606
1612808
1613008
1613212
1613416
1613620
1613826
1614026
1614234
1614440
1614650
1614848
1615054
1615262
1615470
1615670
1615876
1616084
1616294
1616504
1616704
1616910
1617118
1617324
1617524
1617722
1617930
1618134
1618342
1618542
1618744
1618948
1619154
1619352
1619546
1619748
1619950
1620144
1620338
1620536
1620738
1620930
1621130
1621332
1621536
1621736
1621932
1622136
1622340
1622542
1622738
1622942
1623146
1623352
1623552
1623758
1623966
1624174
1624374
1624578
1624786
1624992
1625200
1625396
1625600
1625806
1626014
1626212
1626414
1626618
1626824
1627022
1627216
1627414
1627612
1627812
1628008
1628210
1628412
1628610
1628804
1629002
1629202
1629406
1629604
1629800
1630002
1630204
1630406
1630602
1630804
1631008
1631214
1631414
1631612
1631812
1632014
1632218
1632414
1632608
1632808
1633010
1633212
1633408
1633612
1633814
1634016
1634210
1634408
1634610
1634810
1635004
1635204
1635408
1635610
1635814
1636008
1636210
1636412
1636614
1636808
1637008
1637204
1637406
1637602
1637798
1637998
1638202
1638402
1638600
1638804
1639010
1639206
1639408
1639610
1639812
1640016
1640212
1640412
1640612
1640814
1641008
1641208
1641408
1641610
1641800
1642000
1642198
1642394
1642592
1642782
1642978
1643174
1643370
1643556
1643742
1643930
1644114
1644292
1644472
1644650
1644830
1645008
1645186
1645370
1645560
1645750
1645938
1646134
1646334
1646534
1646732
1646924
1647122
1647322
1647522
1647714
1647914
1648114
1648314
1648514
1648706
1648906
1649110
1649312
1649504
1649704
1649904
1650110
1650306
1650504
1650704
1650904
1651106
1651300
1651500
1651700
1651904
1652096
1652296
1652494
1652696
1652898
1653096
1653298
1653502
1653702
1653898
1654102
1654306
1654512
1654708
1654916
1655126
1655334
1655538
1655742
1655950
1656156
1656352
1656556
1656758
1656958
1657152
1657356
1657562
1657766
1657968
1658172
1658376
1658578
1658774
1658974
1659172
1659370
1659560
1659754
1659950
1660146
1660338
1660534
1660732
1660930
1661120
1661316
1661510
1661678
1661900
1662092
1662290
1662490
1662686
1662882
1663084
1663288
1663484
1663686
1663890
1664092
1664288
1664486
1664684
1664882
1665078
1665272
1665470
1665668
1665866
1666062
1666258
1666452
1666644
1666830
1667022
1667216
1667402
1667588
1667778
1667974
1668164
1668350
1668542
1668736
1668932
1669124
1669314
1669510
1669712
1669910
1670106
1670312
1670518
1670718
1670920
1671124
1671332
1671530
1671730
1671936
1672144
1672348
1672548
1672752
1672956
1673154
1673350
1673550
1673752
1673944
1674136
1674332
1674526
1674724
1674918
1675110
1675306
1675506
1675700
1675892
1676090
1676290
1676484
1676672
1676866
1677060
1677256
1677452
1677646
1677846
1678048
1678242
1678444
1678646
1678848
1679044
1679240
1679440
1679646
1679844
1680042
1680244
1680448
1680652
1680852
1681048
1681250
1681454
1681652
1681850
1682052
1682252
1682454
1682646
1682848
1683048
1683250
1683444
1683638
1683838
1684042
1684236
1684428
1684626
1684826
1685030
1685228
1685424
1685624
1685826
1686030
1686226
1686420
1686618
1686818
1687020
1687216
1687412
1687610
1687812
1688010
1688202
1688398
1688598
1688800
1688990
1689188
1689386
1689586
1689780
1689972
1690168
1690364
1690560
1690752
1690940
1691134
1691330
1691518
1691706
1691900
1692100
1692294
1692486
1692684
1692886
1693082
1693276
1693478
1693678
1693874
1694066
1694264
1694464
1694656
1694848
1695046
1695246
1695442
1695632
1695828
1696026
1696222
1696414
1696608
1696804
1697002
1697200
1697394
1697594
1697798
1697994
1698188
1698386
1698588
1698784
1698976
1699174
1699374
1699574
1699770
1699970
1700170
1700374
1700570
1700764
1700962
1701164
1701358
1701550
1701746
1701940
1702130
1702320
1702512
1702702
1702890
1703084
1703280
1703480
1703678
1703874
1704078
1704282
1704480
1704678
1704878
1705082
1705282
1705480
1705676
1705874
1706076
1706270
1706462
1706660
1706858
1707058
1707252
1707450
1707646
1707850
1708046
1708242
1708440
1708640
1708840
1709034
1709232
1709434
1709634
1709840
1710034
1710234
1710432
1710632
1710830
1711022
1711220
1711416
1711618
1711814
1712008
1712206
1712404
1712600
1712790
1712986
1713182
1713368
1713560
1713750
1713944
1714130
1714324
1714518
1714716
1714904
1715098
1715296
1715496
1715692
1715884
1716084
1716284
1716486
1716684
1716886
1717092
1717296
1717494
1717696
1717900
1718106
1718300
1718500
1718702
1718908
1719112
1719308
1719512
1719720
1719924
1720118
1720318
1720520
1720722
1720920
1721112
1721310
1721514
1721710
1721904
1722100
1722302
1722498
1722690
1722884
1723082
1723274
1723460
1723652
1723846
1724032
1724224
1724414
1724610
1724796
1724986
1725178
1725372
1725560
1725752
1725944
1726138
1726326
1726518
1726712
1726910
1727104
1727296
1727492
1727694
1727890
1728084
1728282
1728480
1728680
1728872
1729070
1729268
1729466
1729668
1729856
1730050
1730248
1730444
1730640
1730830
1731024
1731222
1731424
1731616
1731816
1732016
1732220
1732418
1732616
1732820
1733026
1733226
1733424
1733630
1733838
1734040
1734242
1734450
1734656
1734856
1735054
1735254
1735458
1735654
1735852
1736054
1736260
1736460
1736662
1736868
1737076
1737276
1737480
1737686
1737890
1738090
1738288
1738488
1738688
1738892
1739090
1739294
1739498
1739704
1739906
1740108
1740314
1740524
1740724
1740920
1741120
1741326
1741524
1741720
1741920
1742126
1742330
1742530
1742732
1742936
1743138
1743334
1743528
1743724
1743920
1744110
1744296
1744486
1744686
1744890
1745092
1745294
1745496
1745698
1745896
1746096
1746288
1746484
1746680
1746876
1747072
1747268
1747466
1747662
1747860
1748054
1748252
1748450
1748648
1748848
1749050
1749244
1749442
1749640
1749844
1750042
1750236
1750440
1750644
1750838
1751030
1751230
1751424
1751612
1751806
1751998
1752188
1752378
1752568
1752758
1752950
1753132
1753322
1753514
1753706
1753902
1754090
1754284
1754478
1754672
1754868
1755058
1755256
1755454
1755654
1755860
1756068
1756278
1756480
1756688
1756900
1757114
1757328
1757532
1757742
1757958
1758168
1758370
1758580
1758792
1759010
1759214
1759424
1759636
1759850
1760054
1760262
1760476
1760690
1760896
1761116
1761338
1761556
1761768
1761984
1762206
1762418
1762626
1762842
1763064
1763280
1763490
1763690
1763898
1764104
1764310
1764508
1764712
1764916
1765120
1765316
1765518
1765724
1765930
1766128
1766326
1766524
1766726
1766920
1767120
1767318
1767520
1767716
1767908
1768106
1768304
1768498
1768692
1768892
1769090
1769284
1769480
1769678
1769874
1770070
1770260
1770454
1770652
1770846
1771042
1771238
1771436
1771624
1771818
1772016
1772210
1772404
1772600
1772796
1772994
1773184
1773380
1773580
1773782
1773974
1774172
1774370
1774570
1774760
1774958
1775158
1775358
1775558
1775758
1775960
1776162
1776354
1776554
1776756
1776950
1777148
1777344
1777538
1777734
1777932
1778118
1778302
1778490
1778680
1778870
1779060
1779248
1779432
1779616
1779800
1779992
1780176
1780356
1780542
1780732
1780916
1781108
1781300
1781496
1781694
1781882
1782076
1782268
1782460
1782644
1782834
1783024
1783222
1783414
1783618
1783824
1784032
1784230
1784432
1784638
1784840
1785036
1785234
1785432
1785626
1785822
1786020
1786218
1786408
1786608
1786808
1787000
1787202
1787408
1787614
1787816
1788012
1788212
1788410
1788608
1788800
1788998
1789200
1789402
1789602
1789794
1789998
1790200
1790402
1790600
1790794
1790990
1791184
1791376
1791566
1791764
1791968
1792166
1792370
1792576
1792788
1792994
1793192
1793404
1793612
1793820
1794020
1794230
1794442
1794656
1794854
1795070
1795286
1795500
1795704
1795918
1796134
1796344
1796546
1796754
1796964
1797166
1797364
1797566
1797766
1797966
1798160
1798352
1798550
1798748
1798952
1799144
1799346
1799550
1799756
1799956
