peaks
30
238
450
668
886
1094
1312
1534
1744
1956
2172
2388
2596
2810
3032
3242
3452
3670
3890
4094
4310
4534
4742
4952
5170
5382
5584
5798
6016
6226
6442
6664
6880
7090
7308
7528
7740
7958
8184
8404
8618
8840
9062
9274
9488
9712
9922
10134
10352
10556
10760
10972
11170
11370
11578
11784
11984
12194
12410
12616
12826
13042
13258
13464
13684
13898
14104
14320
14530
14734
14944
15156
15356
15566
15780
15988
16204
16428
16640
16856
17082
17294
17508
17730
17934
18144
18352
18554
18752
18956
19160
19360
19558
19764
19974
20178
20384
20598
20808
21014
21228
21442
21646
21858
22074
22276
22488
22704
22910
23126
23340
23550
23762
23970
24174
24384
24590
24792
24998
25192
25388
25588
25794
25998
26200
26408
26626
26832
27038
27252
27468
27676
27880
28090
28302
28506
28710
28922
29136
29340
29548
29762
29972
30176
30384
30600
30808
31014
31228
31436
31636
31844
32054
32256
32458
32672
32874
33080
33296
33500
33702
33910
34114
34314
34522
34732
34928
35136
35350
35552
35760
35974
36178
36380
36590
36802
37000
37210
37426
37628
37832
38042
38252
38456
38660
38874
39076
39278
39490
39700
39900
40110
40328
40536
40746
40964
41176
41382
41594
41812
42018
42226
42438
42652
42854
43066
43284
43488
43696
43908
44114
44314
44522
44730
44928
45136
45352
45556
45764
45980
46188
46392
46606
46820
47024
47240
47460
47672
47886
48110
48322
48534
48758
48966
49174
49390
49602
49804
50016
50236
50442
50650
50864
51076
51280
51492
51708
51912
52122
52344
52550
52762
52984
53198
53402
53618
53834
54042
54252
54470
54678
54886
55102
55310
55516
55714
55910
56112
56304
56496
56700
56910
57114
57324
57542
57762
57972
58184
58402
58614
58818
59022
59230
59436
59636
59850
60064
60270
60474
60690
60902
61106
61320
61538
61744
61952
62172
62388
62596
62818
63040
63252
63466
63684
63898
64104
64320
64538
64746
64956
65176
65382
65590
65806
66016
66218
66430
66648
66852
67054
67264
67474
67678
67884
68100
68302
68504
68712
68920
69118
69326
69538
69742
69952
70170
70382
70590
70806
71020
71226
71436
71652
71856
72060
72274
72488
72692
72906
73126
73332
73542
73756
73966
74172
74388
74600
74804
75018
75238
75442
75646
75860
76072
76272
76482
76698
76900
77104
77314
77526
77728
77938
78156
78360
78566
78778
78988
79192
79400
79616
79822
80028
80242
80454
80654
80866
81080
81282
81490
81702
81914
82118
82334
82548
82750
82962
83178
83380
83584
83792
83998
84198
84402
84608
84806
85002
85200
85392
85584
85786
85990
86188
86398
86622
86832
87042
87268
87486
87698
87912
88128
88336
88542
88760
88966
89174
89394
89604
89814
90034
90252
90456
90674
90894
91100
91310
91532
91738
91946
92166
92382
92590
92808
93028
93236
93448
93664
93876
94080
94296
94514
94722
94936
95156
95370
95578
95794
96010
96218
96430
96646
96858
97064
97280
97500
97704
97920
98140
98346
98556
98774
98984
99200
99422
99644
99854
100070
100292
100504
100712
100930
101148
101364
101576
101790
102014
102226
102434
102652
102874
103082
103288
103504
103720
103932
104136
104354
104574
104782
104994
105208
105422
105628
105840
106056
106264
106470
106684
106892
107094
107304
107518
107722
107922
108128
108342
108542
108742
108954
109166
109368
109580
109792
110002
110208
110412
110624
110832
111034
111242
111456
111658
111864
112076
112284
112484
112692
112904
113108
113310
113522
113724
113928
114140
114350
114552
114768
114980
115184
115394
115612
115818
116026
116244
116462
116672
116886
117108
117318
117528
117748
117962
118168
118382
118604
118814
119028
119248
119462
119666
119880
120096
120302
120506
120720
120940
121146
121352
121568
121786
122002
122212
122424
122646
122866
123074
123280
123496
123716
123924
124130
124348
124568
124786
124996
125208
125428
125648
125858
126072
126290
126506
126714
126932
127156
127366
127580
127798
128014
128220
128438
128658
128866
129076
129294
129508
129714
129922
130136
130346
130552
130758
130972
131184
131392
131600
131814
132030
132236
132448
132662
132872
133072
133282
133494
133698
133906
134118
134330
134536
134744
134960
135164
135366
135576
135786
135990
136196
136412
136618
136824
137038
137248
137450
137660
137874
138078
138278
138486
138692
138892
139102
139312
139512
139724
139934
140138
140346
140564
140770
140978
141192
141404
141608
141822
142036
142242
142450
142666
142872
143078
143288
143496
143700
143910
144124
144328
144536
144748
144960
145162
145380
145600
145812
146020
146238
146446
146650
146854
147052
147244
147438
147634
147824
148024
148226
148426
148624
148828
149020
149216
149412
149620
149822
150020
150240
150456
150664
150880
151102
151320
151534
151750
151972
152190
152398
152616
152832
153042
153252
153470
153682
153892
154112
154322
154526
154742
154954
155156
155370
155584
155788
156004
156228
156438
156648
156866
157082
157294
157506
157728
157936
158142
158358
158578
158786
159000
159224
159434
159642
159860
160078
160284
160489
160702
160900
161102
161304
161500
161696
161896
162094
162300
162500
162720
162940
163156
163386
163618
163850
164068
164276
164478
164672
164870
165070
165270
165464
165672
165886
166092
166314
166538
166748
166968
167192
167412
167624
167852
168088
168304
168538
168776
169002
169228
169464
169692
169908
170142
170380
170600
170826
171066
171294
171514
171742
171976
172210
172426
172648
172878
173096
173314
173540
173758
173980
174210
174424
174642
174872
175096
175310
175542
175778
175998
176224
176464
176682
176908
177144
177366
177584
177814
178036
178252
178480
178704
178916
179140
179362
179574
179802
180032
180250
180474
180712
180930
181152
181380
181600
181810
182028
182254
182464
182680
182906
183128
183340
183558
183786
184004
184218
184436
184662
184884
185094
185308
185534
185756
185970
186186
186412
186632
186844
187062
187288
187506
187722
187946
188170
188382
188602
188828
189046
189258
189482
189706
189918
190136
190360
190576
190790
191014
191232
191440
191664
191886
192098
192318
192548
192762
192980
193210
193430
193644
193870
194090
194302
194524
194750
194962
195178
195404
195622
195836
196060
196282
196492
196708
196934
197144
197360
197586
197806
198018
198240
198466
198680
198896
199120
199336
199546
199764
199980
200186
200396
200614
200826
201030
201246
201462
201668
201876
202090
202298
202504
202718
202932
203134
203348
203570
203778
203992
204216
204430
204642
204866
205086
205296
205518
205742
205952
206166
206384
206598
206802
207018
207238
207446
207658
207878
208092
208298
208518
208732
208936
209152
209372
209584
209796
210014
210232
210438
210656
210874
211082
211294
211512
211728
211936
212152
212372
212584
212796
213016
213232
213438
213654
213868
214074
214282
214496
214708
214914
215132
215352
215560
215776
215996
216210
216416
216630
216850
217056
217266
217482
217694
217900
218116
218332
218538
218752
218970
219186
219396
219618
219842
220056
220276
220500
220718
220930
221152
221372
221582
221798
222022
222236
222452
222672
222890
223096
223314
223530
223736
223946
224158
224368
224568
224778
224994
225200
225406
225622
225834
226038
226250
226466
226674
226886
227104
227318
227526
227742
227960
228166
228386
228608
228824
229036
229258
229476
229684
229902
230122
230332
230546
230766
230978
231188
231406
231618
231820
232034
232252
232458
232666
232878
233088
233290
233506
233726
233934
234148
234368
234582
234792
235014
235232
235446
235660
235880
236094
236302
236524
236746
236956
237172
237396
237614
237820
238036
238254
238464
238672
238888
239102
239308
239518
239732
239942
240142
240352
240558
240754
240950
241146
241336
241526
241712
241902
242090
242284
242466
242652
242838
243024
243210
243390
243572
243756
243936
244118
244306
244478
244658
244836
245012
245188
245366
245544
245720
245896
246074
246254
246434
246614
246800
246988
247172
247356
247540
247726
247910
248092
248274
248456
248638
248822
249004
249188
249372
249556
249736
249918
250098
250282
250468
250646
250820
250998
251176
251354
251534
251714
251898
252076
252256
252442
252614
252794
252978
253152
253338
253514
253690
253876
254054
254228
254408
254592
254772
254952
255144
255324
255508
255702
255886
256066
256250
256434
256622
256814
257000
257192
257382
257564
257756
257942
258136
258326
258520
258706
258890
259072
259248
259430
259616
259794
259970
260152
260336
260512
260684
260866
261050
261228
261404
261590
261776
261964
262144
262334
262528
262710
262890
263072
263252
263430
263608
263780
263952
264128
264310
264486
264668
264860
265044
265226
265414
265606
265790
265970
266162
266346
266530
266722
266916
267102
267290
267488
267676
267862
268052
268248
268434
268620
268810
269004
269188
269372
269566
269752
269934
270124
270318
270504
270688
270880
271072
271256
271448
271642
271828
272014
272208
272394
272574
272762
272956
273142
273328
273528
273714
273906
274104
274292
274488
274686
274892
275084
275274
275470
275662
275848
276038
276230
276412
276600
276794
276978
277164
277358
277546
277736
277934
278126
278314
278510
278706
278894
279090
279292
279476
279674
279874
280064
280258
280460
280656
280850
281050
281254
281448
281650
281854
282060
282250
282444
282642
282846
283038
283230
283432
283640
283836
284036
284240
284446
284644
284844
285048
285250
285440
285642
285844
286036
286228
286428
286630
286818
287018
287214
287410
287600
287796
287994
288178
288372
288574
288768
288958
289154
289354
289544
289740
289942
290136
290330
290530
290736
290928
291130
291338
291534
291728
291928
292126
292312
292504
292700
292884
293076
293270
293458
293648
293828
294012
294200
294384
294562
294744
294926
295108
295282
295464
295648
295838
296020
296206
296396
296586
296772
296958
297146
297334
297516
297700
297886
298072
298252
298436
298630
298812
299000
299188
299378
299562
299748
299934
300116
300302
300486
300672
300858
301044
301228
301412
301594
301780
301970
302164
302348
302540
302740
302930
303126
303324
303514
303710
303904
304090
304282
304468
304660
304838
305028
305208
305386
305570
305756
305944
306132
306316
306504
306700
306882
307070
307264
307458
307642
307834
308030
308214
308404
308592
308778
308966
309152
309340
309526
309710
309894
310082
310268
310452
310636
310820
311000
311180
311358
311534
311708
311882
312058
312230
312400
312570
312740
312912
313088
313266
313452
313632
313816
314004
314188
314370
314552
314736
314922
315108
315296
315480
315666
315850
316040
316220
316392
316572
316754
316928
317108
317294
317472
317656
317842
318020
318204
318390
318574
318752
318938
319128
319308
319492
319676
319854
320036
320220
320408
320586
320770
320956
321140
321322
321506
321686
321872
322056
322238
322430
322628
322824
323024
323222
323418
323620
323824
324028
324238
324460
324674
324902
325124
325346
325570
325800
326020
326252
326472
326706
326934
327162
327388
327604
327808
328040
328246
328468
328688
328880
329068
329248
329424
329606
329774
329946
330124
330294
330470
330652
330818
330994
331174
331342
331516
331696
331864
332036
332212
332386
332556
332728
332906
333068
333238
333414
333576
333746
333914
334078
334244
334414
334580
334748
334920
335080
335246
335420
335582
335746
335916
336080
336242
336416
336580
336750
336922
337090
337260
337436
337618
337790
337964
338140
338320
338488
338662
338832
339006
339174
339338
339506
339684
339852
340022
340200
340378
340550
340728
340912
341082
341256
341434
341616
341790
341970
342146
342322
342504
342686
342878
343066
343248
343438
343628
343808
343988
344166
344346
344526
344704
344884
345068
345248
345428
345604
345782
345966
346142
346320
346494
346674
346848
347020
347196
347376
347550
347724
347904
348086
348264
348440
348622
348806
348982
349162
349346
349524
349700
349880
350062
350238
350420
350600
350780
350956
351138
351320
351496
351680
351852
352030
352212
352388
352568
352756
352942
353122
353304
353488
353676
353856
354040
354224
354404
354588
354776
354960
355138
355324
355510
355694
355880
356076
356270
356462
356662
356860
357054
357244
357434
357618
357802
357994
358172
358356
358540
358724
358900
359086
359274
359456
359638
359828
360014
360200
360392
360574
360762
360954
361112
361306
361490
361674
361860
362046
362238
362422
362612
362800
362988
363170
363354
363538
363724
363912
364100
364282
364470
364660
364848
365038
365230
365414
365606
365808
365996
366190
366394
366580
366778
366972
367164
367362
367562
367754
367956
368168
368362
368558
368756
368952
369142
369340
369544
369738
369934
370132
370334
370528
370722
370924
371128
371316
371514
371714
371914
372106
372298
372496
372700
372888
373082
373284
373472
373660
373858
374060
374252
374446
374650
374860
375052
375248
375446
375652
375844
376038
376238
376432
376622
376822
377024
377230
377426
377630
377836
378032
378238
378448
378648
378854
379056
379254
379466
379666
379864
380068
380256
380448
380644
380844
381030
381228
381414
381608
381804
381988
382170
382362
382554
382736
382928
383122
383312
383504
383692
383880
384078
384270
384462
384668
384878
385086
385288
385494
385698
385898
386092
386292
386496
386692
386894
387104
387302
387514
387732
387934
388142
388356
388564
388762
388976
389188
389384
389596
389810
390008
390220
390434
390638
390846
391062
391264
391466
391678
391892
392094
392302
392524
392728
392930
393142
393352
393554
393756
393964
394172
394372
394578
394796
395002
395206
395418
395632
395836
396042
396256
396456
396654
396864
397070
397266
397470
397674
397868
398064
398272
398466
398662
398864
399064
399264
399466
399660
399856
400060
400262
400458
400670
400888
401096
401310
401536
401744
401956
402180
402386
402594
402808
403018
403220
403430
403634
403832
404042
404258
404458
404662
404876
405096
405298
405502
405718
405934
406138
406350
406572
406780
406994
407218
407430
407636
407854
408074
408282
408492
408712
408918
409124
409342
409560
409768
409978
410194
410410
410616
410824
411038
411250
411454
411668
411882
412088
412302
412522
412728
412936
413156
413360
413566
413782
414002
414206
414408
414620
414832
415030
415238
415446
415656
415856
416060
416274
416476
416676
416884
417100
417304
417510
417724
417932
418140
418358
418572
418778
418998
419212
419420
419628
419844
420056
420260
420466
420680
420890
421090
421304
421520
421724
421928
422144
422352
422556
422764
422982
423188
423398
423614
423828
424036
424258
424482
424692
424906
425126
425336
425546
425756
425972
426190
426406
426624
426846
427058
427260
427466
427686
427884
428086
428296
428504
428704
428920
429132
429332
429548
429764
429968
430172
430380
430592
430796
431004
431218
431420
431634
431850
432056
432268
432488
432692
432898
433108
433316
433518
433726
433922
434120
434326
434540
434742
434946
435166
435382
435592
435812
436040
436250
436460
436682
436906
437116
437332
437556
437778
437988
438206
438428
438640
438858
439080
439300
439510
439728
439956
440162
440384
440610
440820
441038
441268
441488
441698
441920
442142
442352
442568
442788
442996
443208
443430
443638
443850
444070
444276
444488
444710
444914
445124
445346
445550
445760
445980
446186
446398
446622
446828
447044
447270
447478
447692
447914
448132
448340
448562
448782
448992
449208
449432
449640
449858
450082
450304
450516
450736
450964
451178
451394
451622
451832
452042
452260
452478
452688
452904
453126
453336
453546
453768
453988
454198
454420
454648
454860
455078
455302
455524
455734
455962
456186
456398
456616
456836
457044
457260
457484
457692
457898
458118
458340
458548
458762
458982
459196
459408
459626
459848
460058
460276
460502
460710
460928
461152
461362
461572
461790
462006
462212
462424
462646
462854
463068
463290
463506
463716
463938
464160
464372
464580
464792
465012
465222
465430
465634
465840
466056
466258
466460
466676
466890
467096
467310
467528
467736
467950
468172
468378
468592
468810
469020
469224
469438
469654
469858
470064
470278
470502
470712
470930
471156
471368
471576
471796
472014
472218
472434
472656
472862
473076
473300
473510
473724
473944
474156
474360
474576
474794
475000
475204
475422
475640
475850
476062
476282
476500
476708
476916
477136
477356
477566
477776
477998
478224
478436
478654
478878
479094
479302
479522
479744
479954
480168
480390
480616
480836
481050
481270
481496
481708
481922
482142
482362
482568
482792
483016
483226
483446
483674
483882
484094
484314
484528
484738
484958
485176
485386
485612
485820
486024
486234
486444
486648
486856
487064
487270
487478
487686
487890
488100
488308
488508
488718
488916
489124
489330
489538
489736
489940
490144
490342
490544
490744
490942
491144
491344
491540
491746
491940
492140
492340
492538
492742
492930
493128
493332
493524
493724
493930
494124
494330
494536
494732
494940
495144
495346
495552
495750
495954
496158
496354
496560
496758
496958
497158
497354
497558
497758
497956
498160
498362
498560
498764
498960
499166
499366
499570
499776
499974
500182
500390
500592
500802
501008
501212
501422
501620
501824
502030
502224
502434
502636
502836
503046
503250
503454
503662
503870
504076
504280
504472
504672
504872
505076
505266
505466
505664
505868
506056
506256
506458
506652
506862
507070
507270
507486
507692
507896
508104
508314
508510
508712
508914
509108
509310
509510
509710
509908
510116
510304
510504
510704
510896
511096
511296
511492
511688
511898
512106
512314
512520
512726
512922
513120
513320
513508
513704
513898
514084
514278
514476
514660
514854
515052
515242
515444
515644
515842
516044
516244
516440
516638
516828
517030
517232
517432
517636
517840
518038
518242
518446
518644
518850
519050
519250
519460
519654
519864
520076
520276
520486
520696
520888
521090
521292
521482
521680
521876
522064
522262
522460
522656
522858
523050
523248
523452
523640
523838
524038
524228
524426
524626
524820
525016
525222
525416
525612
525818
526008
526208
526412
526604
526800
527002
527198
527394
527600
527790
527990
528194
528382
528584
528782
528970
529168
529368
529552
529750
529952
530140
530330
530526
530716
530904
531096
531290
531472
531666
531862
532046
532242
532440
532626
532820
533016
533208
533406
533602
533798
533990
534178
534374
534572
534766
534964
535170
535372
535572
535774
535990
536188
536390
536602
536810
537014
537224
537438
537644
537842
538054
538272
538474
538680
538894
539106
539314
539524
539744
539954
540156
540374
540596
540802
541012
541228
541444
541652
541862
542078
542290
542496
542700
542918
543136
543342
543550
543770
543990
544198
544410
544630
544848
545056
545260
545478
545692
545896
546110
546330
546532
546740
546956
547158
547362
547576
547782
547984
548196
548398
548604
548814
549016
549228
549444
549648
549872
550092
550302
550520
550726
550932
551142
551352
551558
551762
551968
552164
552372
552590
552792
553000
553216
553434
553642
553856
554068
554278
554482
554694
554904
555102
555308
555522
555732
555932
556150
556374
556586
556806
557036
557258
557472
557700
557920
558128
558348
558576
558786
559002
559226
559440
559652
559876
560094
560298
560516
560736
560942
561152
561370
561584
561790
562006
562226
562438
562642
562858
563078
563286
563502
563720
563936
564142
564366
564590
564802
565020
565242
565462
565672
565892
566112
566326
566544
566766
566986
567194
567416
567640
567852
568072
568302
568512
568728
568948
569164
569376
569596
569810
570016
570224
570440
570650
570850
571054
571266
571478
571684
571894
572112
572322
572526
572746
572970
573180
573398
573622
573840
574052
574276
574500
574708
574932
575152
575356
575566
575774
575974
576174
576370
576560
576754
576960
577152
577346
577546
577760
577960
578160
578368
578586
578792
579002
579222
579440
579652
579872
580096
580306
580524
580748
580966
581178
581400
581626
581840
582058
582286
582498
582716
582942
583166
583374
583600
583826
584038
584256
584482
584692
584898
585118
585334
585538
585744
585950
586156
586374
586574
586778
586990
587194
587394
587602
587820
588032
588238
588460
588686
588896
589112
589336
589560
589772
589990
590214
590434
590644
590862
591086
591308
591522
591746
591972
592184
592398
592624
592842
593056
593276
593508
593718
593932
594154
594374
594582
594796
595020
595232
595440
595662
595882
596096
596318
596546
596758
596972
597196
597416
597626
597838
598058
598276
598484
598708
598930
599138
599354
599572
599786
599990
600210
600430
600640
600856
601080
601288
601500
601722
601938
602148
602362
602582
602792
603010
603236
603446
603664
603890
604110
604322
604546
604768
604982
605200
605426
605636
605854
606084
606296
606510
606736
606952
607160
607380
607600
607808
608022
608250
608460
608672
608896
609114
609324
609542
609766
609976
610194
610418
610628
610842
611066
611274
611482
611700
611916
612124
612338
612562
612768
612986
613208
613414
613622
613838
614050
614252
614458
614668
614872
615070
615274
615488
615702
615906
616124
616344
616550
616764
616982
617192
617396
617606
617822
618024
618232
618450
618664
618870
619086
619308
619514
619726
619944
620160
620370
620588
620816
621026
621240
621464
621682
621892
622108
622332
622540
622750
622972
623188
623400
623618
623840
624048
624264
624490
624702
624912
625132
625352
625564
625782
626008
626218
626436
626660
626880
627090
627316
627540
627754
627980
628210
628424
628648
628876
629090
629310
629542
629754
629974
630202
630422
630634
630860
631082
631294
631510
631730
631946
632150
632372
632598
632810
633028
633258
633480
633692
633912
634136
634344
634558
634780
634992
635200
635418
635640
635850
636066
636290
636496
636706
636924
637146
637352
637564
637788
637996
638206
638426
638632
638834
639050
639264
639468
639676
639890
640100
640304
640514
640730
640940
641144
641354
641570
641774
641982
642200
642412
642620
642834
643056
643276
643488
643708
643932
644142
644362
644586
644798
645014
645238
645456
645666
645882
646104
646310
646524
646744
646960
647166
647380
647604
647814
648020
648240
648462
648670
648882
649102
649318
649522
649742
649964
650174
650394
650622
650834
651054
651282
651492
651710
651934
652154
652368
652590
652820
653034
653256
653482
653698
653906
654130
654354
654562
654780
655004
655220
655432
655656
655878
656088
656308
656536
656748
656968
657194
657404
657612
657816
658028
658234
658430
658632
658830
659026
659220
659414
659602
659796
659984
660172
660362
660544
660734
660922
661110
661292
661478
661662
661840
662018
662196
662376
662548
662730
662904
663076
663250
663426
663594
663768
663944
664116
664288
664464
664646
664818
664996
665178
665356
665534
665706
665878
666054
666234
666414
666590
666774
666962
667146
667334
667526
667716
667906
668098
668290
668468
668654
668846
669022
669208
669394
669572
669760
669946
670122
670310
670482
670666
670858
671036
671224
671412
671606
671796
671990
672180
672370
672558
672742
672932
673116
673304
673482
673670
673850
674034
674220
674402
674594
674776
674960
675142
675328
675512
675702
675884
676078
676254
676432
676608
676792
676976
677160
677338
677524
677710
677882
678058
678238
678408
678584
678758
678932
679110
679286
679466
679646
679828
680014
680202
680388
680520
680734
680922
681110
681294
681474
681660
681848
682030
682218
682412
682608
682794
682990
683192
683378
683574
683770
683964
684158
684356
684544
684734
684932
685140
685338
685536
685748
685954
686152
686360
686572
686770
686978
687190
687394
687594
687802
688014
688210
688410
688620
688822
689024
689240
689444
689650
689862
690068
690272
690484
690676
690880
691084
691282
691476
691676
691884
692078
692274
692478
692678
692874
693078
693278
693476
693682
693880
694074
694278
694478
694672
694876
695076
695272
695480
695678
695880
696090
696292
696496
696712
696912
697128
697344
697546
697756
697970
698168
698380
698586
698790
699002
699200
699412
699624
699826
700048
700256
700462
700686
700888
701102
701316
701516
701730
701942
702148
702354
702548
702746
702944
703156
703354
703550
703760
703978
704182
704396
704620
704828
705046
705270
705478
705690
705910
706128
706338
706556
706788
707000
707212
707438
707662
707872
708090
708316
708522
708734
708956
709170
709374
709592
709810
710012
710220
710444
710646
710852
711074
711282
711490
711710
711922
712126
712346
712558
712760
712978
713194
713398
713612
713838
714048
714262
714488
714702
714916
715140
715352
715558
715780
715992
716198
716420
716642
716854
717072
717302
717512
717726
717954
718160
718374
718596
718814
719022
719246
719468
719674
719892
720114
720322
720538
720760
720970
721184
721410
721626
721836
722060
722278
722486
722706
722926
723134
723352
723574
723784
723998
724224
724434
724644
724868
725078
725286
725504
725716
725920
726136
726350
726558
726768
726990
727196
727406
727622
727826
728036
728252
728454
728666
728884
729096
729304
729522
729736
729942
730160
730374
730582
730794
731016
731224
731436
731656
731864
732070
732288
732498
732696
732908
733118
733320
733526
733738
733940
734142
734352
734554
734756
734968
735174
735372
735582
735796
736002
736210
736424
736634
736838
737050
737264
737468
737678
737894
738100
738302
738520
738732
738936
739146
739362
739566
739766
739976
740178
740376
740582
740788
740988
741192
741406
741606
741806
742012
742216
742412
742610
742814
743016
743208
743414
743622
743820
744024
744234
744436
744638
744848
745056
745252
745464
745676
745880
746088
746302
746510
746710
746924
747136
747342
747550
747766
747976
748178
748394
748608
748816
749030
749250
749462
749672
749888
750106
750316
750530
750750
750960
751172
751388
751610
751818
752034
752262
752470
752678
752900
753122
753334
753556
753788
754002
754214
754436
754660
754872
755088
755312
755528
755736
755958
756178
756390
756606
756828
757044
757248
757464
757674
757880
758090
758306
758512
758726
758942
759156
759362
759576
759798
760006
760218
760436
760652
760860
761070
761282
761494
761706
761912
762116
762320
762524
762724
762928
763138
763352
763560
763772
763998
764214
764428
764634
764838
765046
765258
765470
765676
765884
766102
766318
766526
766740
766962
767176
767382
767602
767828
768036
768248
768470
768692
768900
769116
769336
769544
769750
769962
770178
770382
770590
770806
771018
771218
771432
771648
771850
772056
772266
772474
772672
772882
773092
773292
773494
773700
773900
774092
774294
774496
774690
774886
775088
775290
775488
775692
775902
776102
776302
776510
776718
776918
777124
777334
777542
777742
777952
778168
778372
778574
778786
778996
779196
779402
779610
779816
780014
780222
780436
780636
780838
781046
781252
781446
781650
781858
782054
782258
782464
782672
782870
783082
783294
783496
783702
783916
784128
784332
784540
784756
784964
785172
785388
785608
785814
786024
786240
786452
786656
786864
787076
787284
787488
787698
787914
788124
788328
788538
788752
788958
789158
789368
789582
789790
789988
790204
790420
790628
790834
791050
791264
791464
791680
791896
792108
792312
792530
792752
792958
793166
793382
793594
793798
794010
794226
794436
794642
794858
795074
795280
795492
795710
795920
796122
796332
796546
796748
796950
797158
797364
797562
797770
797984
798184
798392
798604
798814
799014
799228
799442
799646
799854
800074
800282
800488
800704
800914
801116
801328
801544
801754
801962
802178
802392
802596
802808
803018
803226
803426
803640
803854
804056
804262
804476
804684
804884
805098
805318
805524
805734
805948
806158
806358
806568
806782
806982
807188
807404
807620
807826
808042
808260
808472
808676
808892
809110
809314
809520
809738
809954
810164
810378
810598
810814
811016
811228
811444
811644
811840
812038
812236
812440
812648
812846
813046
813256
813472
813674
813880
814094
814304
814506
814710
814920
815134
815338
815548
815766
815980
816188
816406
816626
816834
817048
817266
817478
817684
817900
818118
818324
818530
818750
818966
819172
819386
819610
819816
820024
820240
820456
820660
820868
821084
821290
821498
821710
821920
822122
822336
822556
822762
822976
823196
823412
823618
823836
824056
824268
824480
824702
824922
825130
825342
825560
825764
825974
826190
826400
826610
826826
827040
827244
827462
827676
827880
828092
828306
828510
828718
828934
829140
829344
829562
829778
829986
830200
830418
830628
830832
831046
831264
831468
831680
831900
832116
832326
832542
832760
832968
833180
833400
833606
833818
834036
834248
834452
834668
834886
835090
835294
835506
835712
835914
836124
836334
836534
836738
836948
837148
837344
837548
837756
837954
838150
838358
838562
838762
838956
839162
839372
839572
839772
839972
840180
840386
840582
840784
840988
841186
841378
841580
841788
841984
842182
842390
842596
842792
842998
843208
843406
843606
843812
844012
844206
844412
844622
844818
845020
845228
845432
845628
845836
846044
846242
846446
846654
846858
847054
847262
847466
847662
847860
848056
848252
848448
848644
848838
849028
849228
849430
849624
849822
850024
850226
850420
850618
850822
851018
851206
851408
851614
851808
852006
852212
852414
852608
852812
853014
853206
853412
853620
853818
854024
854236
854442
854646
854862
855072
855272
855486
855700
855904
856114
856326
856540
856742
856958
857178
857384
857596
857812
858022
858226
858440
858654
858858
859068
859286
859498
859698
859912
860130
860332
860540
860752
860958
861156
861368
861576
861780
861984
862184
862380
862588
862802
863006
863216
863438
863652
863862
864080
864310
864518
864732
864950
865166
865370
865586
865804
866008
866220
866442
866648
866856
867074
867292
867496
867704
867918
868128
868330
868538
868752
868964
869168
869380
869588
869792
869992
870196
870388
870580
870780
870986
871188
871390
871598
871816
872026
872228
872446
872662
872870
873076
873286
873502
873714
873920
874130
874348
874568
874774
874982
875202
875422
875626
875834
876050
876260
876460
876676
876892
877102
877308
877524
877744
877948
878160
878382
878600
878808
879030
879254
879464
879678
879898
880114
880318
880534
880756
880962
881176
881396
881612
881814
882034
882250
882456
882666
882884
883094
883294
883510
883732
883938
884146
884360
884570
884774
884984
885200
885406
885614
885832
886046
886254
886474
886696
886902
887114
887332
887544
887752
887970
888192
888400
888616
888836
889052
889260
889476
889698
889906
890120
890338
890550
890756
890970
891182
891388
891596
891812
892012
892218
892430
892642
892842
893062
893282
893492
893706
893912
894120
894330
894544
894742
894940
895150
895356
895554
895758
895970
896174
896376
896588
896798
897000
897206
897408
897614
897822
898024
898236
898444
898644
898854
899062
899256
899462
899672
899868
900070
900280
900476
900676
900884
901092
901292
901496
901708
901906
902098
902302
902502
902702
902902
903092
903284
903478
903678
903866
904050
904236
904418
904604
904782
904964
905144
905322
905502
905672
905848
906024
906202
906372
906552
906730
906906
907084
907266
907450
907634
907826
908010
908204
908404
908606
908812
909022
909230
909438
909638
909838
910028
910218
910412
910610
910806
911002
911196
911384
911578
911774
911964
912154
912346
912534
912720
912910
913098
913282
913466
913658
913838
914018
914204
914382
914562
914746
914920
915096
915282
915458
915634
915820
915990
916172
916346
916526
916706
916888
917072
917258
917446
917636
917822
918012
918206
918390
918578
918768
918948
919138
919320
919506
919690
919870
920060
920246
920428
920618
920810
920992
921182
921370
921552
921740
921924
922102
922292
922472
922654
922846
923026
923218
923412
923592
923780
923970
924148
924334
924522
924704
924894
925086
925270
925460
925650
925836
926024
926206
926394
926576
926760
926944
927124
927312
927500
927678
927864
928052
928234
928418
928600
928778
928956
929136
929316
929494
929666
929840
930020
930196
930368
930544
930726
930902
931074
931254
931434
931614
931792
931974
932152
932332
932514
932692
932872
933054
933238
933418
933604
933792
933978
934166
934352
934546
934736
934926
935120
935308
935500
935692
935874
936064
936252
936436
936618
936800
936978
937156
937340
937514
937688
937870
938044
938220
938394
938568
938740
938918
939092
939264
939442
939618
939796
939978
940162
940350
940530
940714
940900
941078
941260
941442
941626
941802
941982
942162
942340
942514
942690
942870
943048
943222
943396
943574
943742
943908
944078
944256
944432
944604
944784
944974
945152
945332
945514
945694
945868
946046
946224
946404
946582
946760
946930
947108
947284
947456
947634
947812
947986
948164
948340
948514
948688
948860
949036
949204
949376
949550
949718
949890
950066
950234
950410
950588
950758
950928
951104
951270
951440
951614
951780
951946
952120
952286
952452
952628
952798
952962
953134
953304
953468
953638
953806
953968
954134
954302
954466
954636
954796
954964
955132
955302
955468
955638
955814
955980
956156
956334
956516
956688
956868
957050
957232
957406
957588
957774
957950
958134
958316
958500
958676
958858
959044
959222
959400
959582
959768
959942
960122
960296
960472
960648
960824
961000
961174
961354
961530
961706
961880
962056
962236
962410
962592
962768
962940
963118
963290
963462
963638
963814
963988
964166
964340
964514
964694
964874
965054
965226
965404
965582
965758
965934
966110
966288
966458
966634
966814
966982
967156
967332
967500
967668
967840
968014
968184
968354
968522
968692
968864
969028
969198
969370
969538
969708
969880
970048
970218
970388
970558
970724
970892
971054
971228
971396
971562
971734
971908
972084
972256
972432
972604
972778
972954
973126
973294
973472
973650
973826
974004
974178
974352
974532
974710
974882
975060
975230
975396
975570
975748
975918
976090
976260
976434
976608
976790
976974
977152
977334
977514
977684
977860
978038
978212
978378
978544
978718
978892
979064
979236
979408
979584
979750
979924
980100
980276
980446
980622
980798
980976
981146
981318
981486
981662
981836
982008
982186
982352
982526
982702
982878
983052
983226
983402
983582
983768
983950
984132
984320
984498
984676
984862
985044
985220
985394
985566
985742
985918
986092
986264
986442
986610
986790
986976
987152
987332
987524
987714
987896
988078
988262
988438
988616
988800
988976
989152
989336
989518
989698
989878
990058
990230
990416
990594
990774
990954
991136
991316
991494
991678
991872
992066
992252
992438
992626
992802
992978
993154
993330
993506
993680
993854
994024
994196
994370
994550
994726
994902
995082
995252
995432
995612
995794
995968
996150
996330
996506
996684
996866
997046
997226
997410
997584
997766
997946
998126
998304
998484
998654
998830
999008
999184
999358
999534
999700
999872
1000044
1000216
1000388
1000560
1000728
1000894
1001066
1001238
1001410
1001584
1001754
1001928
1002102
1002276
1002454
1002620
1002792
1002964
1003138
1003316
1003480
1003652
1003822
1003996
1004172
1004342
1004508
1004682
1004854
1005028
1005204
1005372
1005548
1005726
1005908
1006086
1006266
1006442
1006614
1006790
1006966
1007140
1007312
1007482
1007652
1007824
1007998
1008172
1008344
1008520
1008690
1008858
1009030
1009204
1009376
1009552
1009716
1009890
1010062
1010236
1010406
1010576
1010750
1010926
1011104
1011272
1011446
1011622
1011798
1011974
1012154
1012322
1012498
1012672
1012846
1013018
1013186
1013356
1013526
1013700
1013872
1014042
1014214
1014386
1014558
1014730
1014904
1015072
1015246
1015422
1015594
1015768
1015940
1016114
1016292
1016458
1016628
1016798
1016972
1017132
1017300
1017468
1017644
1017804
1017974
1018142
1018310
1018478
1018644
1018812
1018982
1019150
1019320
1019492
1019666
1019844
1020018
1020194
1020370
1020554
1020726
1020904
1021082
1021262
1021432
1021612
1021790
1021960
1022140
1022318
1022490
1022668
1022842
1023014
1023192
1023362
1023530
1023706
1023886
1024054
1024232
1024410
1024582
1024760
1024940
1025120
1025300
1025484
1025674
1025858
1026056
1026258
1026468
1026684
1026886
1027104
1027322
1027544
1027756
1027972
1028188
1028398
1028596
1028794
1028988
1029178
1029364
1029546
1029728
1029904
1030086
1030266
1030446
1030626
1030806
1030988
1031168
1031352
1031530
1031714
1031896
1032080
1032262
1032442
1032618
1032794
1032974
1033150
1033328
1033500
1033674
1033850
1034032
1034202
1034372
1034548
1034716
1034888
1035060
1035234
1035406
1035578
1035754
1035922
1036098
1036274
1036450
1036630
1036810
1036988
1037168
1037346
1037526
1037708
1037882
1038060
1038240
1038420
1038596
1038776
1038956
1039128
1039304
1039482
1039650
1039826
1040000
1040170
1040344
1040516
1040686
1040860
1041028
1041198
1041370
1041542
1041706
1041878
1042048
1042220
1042396
1042564
1042740
1042920
1043098
1043278
1043466
1043652
1043836
1044016
1044202
1044390
1044564
1044746
1044930
1045110
1045288
1045476
1045666
1045846
1046040
1046236
1046430
1046620
1046816
1047012
1047198
1047394
1047590
1047778
1047922
1048158
1048348
1048532
1048722
1048916
1049100
1049284
1049476
1049664
1049848
1050038
1050226
1050412
1050602
1050786
1050974
1051162
1051348
1051530
1051712
1051890
1052062
1052244
1052430
1052618
1052798
1052980
1053174
1053378
1053566
1053754
1053952
1054152
1054350
1054540
1054734
1054934
1055130
1055318
1055516
1055718
1055916
1056104
1056302
1056502
1056696
1056882
1057080
1057282
1057472
1057660
1057860
1058060
1058252
1058448
1058648
1058848
1059036
1059236
1059434
1059632
1059820
1060018
1060224
1060414
1060604
1060806
1061004
1061190
1061388
1061586
1061780
1061970
1062158
1062356
1062550
1062740
1062928
1063124
1063324
1063512
1063698
1063890
1064080
1064266
1064448
1064636
1064818
1065000
1065190
1065388
1065578
1065768
1065968
1066170
1066366
1066560
1066754
1066956
1067156
1067352
1067540
1067742
1067946
1068146
1068340
1068536
1068736
1068938
1069134
1069320
1069512
1069704
1069892
1070080
1070262
1070458
1070650
1070840
1071026
1071212
1071398
1071578
1071758
1071948
1072138
1072322
1072508
1072704
1072896
1073082
1073272
1073460
1073654
1073850
1074042
1074224
1074416
1074612
1074802
1074986
1075178
1075372
1075558
1075746
1075932
1076122
1076318
1076504
1076690
1076886
1077086
1077274
1077466
1077666
1077868
1078056
1078258
1078464
1078654
1078848
1079048
1079246
1079434
1079632
1079836
1080028
1080218
1080422
1080628
1080822
1081020
1081226
1081428
1081624
1081826
1082034
1082234
1082428
1082640
1082854
1083052
1083256
1083468
1083680
1083880
1084086
1084298
1084504
1084700
1084906
1085120
1085324
1085524
1085736
1085940
1086140
1086348
1086552
1086750
1086956
1087164
1087360
1087562
1087768
1087972
1088170
1088366
1088574
1088784
1088984
1089190
1089406
1089614
1089814
1090024
1090240
1090442
1090648
1090860
1091068
1091268
1091470
1091676
1091876
1092074
1092274
1092468
1092668
1092878
1093076
1093278
1093490
1093702
1093904
1094116
1094340
1094544
1094752
1094968
1095192
1095398
1095608
1095826
1096048
1096252
1096466
1096688
1096904
1097110
1097332
1097558
1097764
1097982
1098204
1098422
1098628
1098844
1099058
1099262
1099474
1099688
1099896
1100102
1100318
1100538
1100740
1100950
1101166
1101378
1101580
1101794
1102010
1102214
1102424
1102640
1102852
1103056
1103270
1103486
1103688
1103894
1104106
1104314
1104514
1104728
1104944
1105150
1105364
1105580
1105794
1105994
1106210
1106428
1106632
1106844
1107064
1107278
1107484
1107702
1107920
1108126
1108338
1108558
1108764
1108972
1109188
1109400
1109602
1109818
1110036
1110238
1110442
1110654
1110860
1111054
1111262
1111470
1111666
1111866
1112074
1112280
1112476
1112686
1112896
1113094
1113296
1113502
1113708
1113908
1114106
1114302
1114492
1114696
1114890
1115092
1115292
1115488
1115682
1115876
1116068
1116268
1116470
1116674
1116872
1117078
1117284
1117486
1117688
1117880
1118072
1118264
1118468
1118660
1118856
1119060
1119268
1119466
1119674
1119880
1120088
1120296
1120496
1120706
1120914
1121122
1121330
1121540
1121750
1121954
1122162
1122372
1122580
1122782
1122988
1123196
1123400
1123598
1123802
1123992
1124188
1124394
1124590
1124786
1124998
1125210
1125434
1125638
1125842
1126058
1126278
1126484
1126702
1126924
1127146
1127370
1127598
1127824
1128050
1128282
1128486
1128708
1128936
1129156
1129374
1129598
1129832
1130056
1130282
1130502
1130706
1130924
1131138
1131350
1131550
1131756
1131966
1132172
1132372
1132586
1132784
1132988
1133194
1133400
1133600
1133804
1133996
1134190
1134390
1134598
1134796
1134996
1135206
1135404
1135604
1135812
1136028
1136228
1136432
1136646
1136858
1137068
1137276
1137486
1137702
1137900
1138110
1138324
1138534
1138732
1138934
1139142
1139350
1139558
1139768
1139964
1140162
1140358
1140556
1140754
1140960
1141158
1141366
1141578
1141788
1141996
1142208
1142422
1142622
1142822
1143028
1143238
1143436
1143638
1143848
1144060
1144274
1144474
1144678
1144884
1145080
1145276
1145478
1145680
1145874
1146078
1146288
1146498
1146702
1146904
1147110
1147316
1147516
1147714
1147916
1148122
1148316
1148520
1148722
1148916
1149116
1149316
1149518
1149706
1149902
1150098
1150296
1150486
1150676
1150870
1151060
1151256
1151450
1151644
1151844
1152054
1152252
1152454
1152664
1152878
1153082
1153284
1153492
1153702
1153896
1154106
1154318
1154526
1154726
1154930
1155138
1155348
1155546
1155748
1155958
1156154
1156356
1156562
1156768
1156968
1157174
1157370
1157580
1157788
1157992
1158202
1158416
1158612
1158814
1159022
1159232
1159432
1159636
1159844
1160048
1160244
1160446
1160654
1160848
1161040
1161236
1161430
1161630
1161824
1162020
1162224
1162430
1162626
1162826
1163032
1163236
1163434
1163634
1163842
1164042
1164236
1164440
1164648
1164844
1165042
1165246
1165450
1165640
1165842
1166048
1166248
1166442
1166646
1166856
1167050
1167246
1167452
1167656
1167852
1168056
1168264
1168464
1168664
1168876
1169092
1169294
1169496
1169704
1169912
1170110
1170314
1170518
1170710
1170904
1171104
1171308
1171514
1171712
1171912
1172116
1172320
1172518
1172728
1172936
1173144
1173350
1173554
1173754
1173948
1174142
1174340
1174542
1174738
1174934
1175130
1175334
1175536
1175744
1175950
1176164
1176380
1176596
1176806
1177012
1177222
1177426
1177630
1177828
1178024
1178214
1178400
1178598
1178798
1179000
1179200
1179396
1179594
1179798
1180000
1180210
1180418
1180618
1180822
1181032
1181238
1181442
1181656
1181874
1182090
1182294
1182506
1182714
1182922
1183124
1183326
1183522
1183718
1183914
1184112
1184314
1184518
1184724
1184922
1185118
1185322
1185528
1185726
1185928
1186142
1186358
1186558
1186772
1186982
1187192
1187394
1187586
1187786
1187984
1188178
1188374
1188568
1188754
1188944
1189140
1189332
1189522
1189720
1189924
1190124
1190324
1190530
1190738
1190946
1191156
1191354
1191554
1191758
1191960
1192162
1192358
1192562
1192768
1192972
1193170
1193368
1193572
1193776
1193974
1194166
1194372
1194576
1194776
1194986
1195190
1195398
1195610
1195808
1196018
1196220
1196424
1196628
1196822
1197028
1197234
1197438
1197642
1197836
1198028
1198234
1198428
1198630
1198830
1199030
1199222
1199412
1199608
1199806
1200004
1200204
1200400
1200592
1200790
1200992
1201190
1201382
1201582
1201784
1201988
1202184
1202386
1202588
1202790
1202980
1203184
1203390
1203584
1203782
1203982
1204178
1204372
1204562
1204750
1204938
1205120
1205302
1205494
1205692
1205884
1206078
1206284
1206486
1206686
1206892
1207098
1207296
1207490
1207696
1207902
1208110
1208308
1208510
1208722
1208932
1209132
1209336
1209548
1209758
1209958
1210168
1210384
1210586
1210794
1211002
1211214
1211416
1211616
1211818
1212022
1212218
1212414
1212608
1212796
1212994
1213196
1213402
1213596
1213792
1213996
1214202
1214406
1214610
1214816
1215004
1215204
1215400
1215592
1215788
1215988
1216192
1216396
1216594
1216784
1216980
1217174
1217368
1217560
1217744
1217940
1218138
1218334
1218530
1218730
1218934
1219136
1219346
1219554
1219754
1219958
1220170
1220368
1220572
1220780
1220990
1221196
1221398
1221602
1221810
1222022
1222220
1222416
1222612
1222810
1223010
1223218
1223424
1223624
1223828
1224042
1224248
1224448
1224656
1224862
1225074
1225274
1225482
1225690
1225894
1226090
1226290
1226494
1226708
1226904
1227102
1227304
1227512
1227718
1227918
1228124
1228336
1228544
1228742
1228948
1229150
1229344
1229546
1229748
1229946
1230136
1230334
1230532
1230732
1230922
1231124
1231334
1231528
1231724
1231930
1232138
1232334
1232532
1232740
1232942
1233140
1233340
1233546
1233748
1233944
1234142
1234346
1234552
1234750
1234948
1235152
1235356
1235550
1235750
1235952
1236156
1236350
1236550
1236754
1236954
1237146
1237350
1237556
1237758
1237954
1238160
1238372
1238572
1238770
1238978
1239192
1239392
1239596
1239810
1240018
1240220
1240430
1240644
1240842
1241042
1241250
1241458
1241656
1241860
1242070
1242278
1242476
1242686
1242900
1243102
1243306
1243512
1243718
1243916
1244116
1244322
1244526
1244724
1244926
1245132
1245336
1245532
1245736
1245946
1246142
1246342
1246550
1246756
1246956
1247156
1247362
1247562
1247758
1247962
1248170
1248364
1248560
1248760
1248960
1249154
1249346
1249548
1249752
1249946
1250146
1250348
1250550
1250742
1250944
1251142
1251338
1251532
1251732
1251930
1252122
1252318
1252520
1252718
1252910
1253108
1253298
1253490
1253686
1253886
1254078
1254274
1254478
1254684
1254884
1255086
1255294
1255502
1255704
1255912
1256126
1256338
1256542
1256752
1256972
1257188
1257394
1257606
1257822
1258036
1258238
1258446
1258656
1258864
1259064
1259268
1259478
1259688
1259890
1260102
1260318
1260526
1260728
1260940
1261156
1261358
1261564
1261772
1261984
1262186
1262392
1262606
1262820
1263026
1263236
1263450
1263662
1263868
1264076
1264290
1264504
1264710
1264914
1265128
1265344
1265550
1265754
1265968
1266182
1266386
1266594
1266804
1267016
1267218
1267428
1267644
1267854
1268058
1268262
1268472
1268674
1268874
1269082
1269290
1269490
1269698
1269910
1270120
1270324
1270534
1270752
1270962
1271166
1271382
1271600
1271806
1272012
1272226
1272442
1272646
1272854
1273068
1273280
1273482
1273686
1273898
1274112
1274314
1274516
1274728
1274944
1275146
1275350
1275564
1275778
1275984
1276188
1276394
1276590
1276794
1276996
1277200
1277394
1277590
1277786
1277978
1278176
1278374
1278566
1278770
1278980
1279178
1279384
1279598
1279810
1280012
1280218
1280430
1280632
1280828
1281034
1281240
1281442
1281634
1281840
1282048
1282246
1282444
1282650
1282856
1283052
1283258
1283468
1283664
1283862
1284068
1284272
1284470
1284672
1284882
1285076
1285272
1285478
1285682
1285878
1286076
1286270
1286462
1286658
1286852
1287048
1287244
1287434
1287624
1287810
1288000
1288190
1288380
1288560
1288748
1288934
1289120
1289300
1289488
1289672
1289854
1290042
1290238
1290424
1290612
1290810
1291008
1291198
1291394
1291598
1291790
1291982
1292180
1292378
1292570
1292764
1292966
1293156
1293346
1293536
1293724
1293906
1294088
1294268
1294448
1294626
1294808
1294986
1295162
1295338
1295514
1295690
1295864
1296038
1296214
1296388
1296558
1296730
1296906
1297076
1297248
1297416
1297588
1297764
1297932
1298096
1298266
1298440
1298622
1298796
1298976
1299162
1299342
1299528
1299716
1299900
1300090
1300284
1300470
1300664
1300866
1301062
1301254
1301454
1301660
1301848
1302044
1302242
1302438
1302618
1302802
1302992
1303180
1303382
1303586
1303776
1303968
1304166
1304350
1304534
1304718
1304900
1305088
1305258
1305436
1305620
1305788
1305958
1306128
1306298
1306470
1306646
1306812
1306988
1307152
1307328
1307500
1307676
1307844
1308016
1308190
1308360
1308532
1308706
1308880
1309052
1309228
1309410
1309582
1309760
1309936
1310110
1310284
1310464
1310634
1310812
1310992
1311162
1311340
1311520
1311688
1311864
1312044
1312210
1312382
1312560
1312726
1312896
1313062
1313226
1313394
1313562
1313730
1313896
1314066
1314232
1314398
1314562
1314730
1314890
1315054
1315220
1315378
1315540
1315708
1315864
1316026
1316194
1316352
1316516
1316684
1316848
1317010
1317174
1317336
1317498
1317660
1317822
1317982
1318144
1318308
1318468
1318632
1318798
1318960
1319126
1319290
1319454
1319620
1319786
1319956
1320120
1320286
1320452
1320614
1320776
1320942
1321102
1321262
1321424
1321586
1321740
1321902
1322064
1322216
1322372
1322528
1322684
1322840
1322994
1323146
1323300
1323456
1323612
1323768
1323924
1324082
1324236
1324392
1324548
1324708
1324862
1325012
1325172
1325328
1325478
1325634
1325788
1325944
1326100
1326260
1326414
1326574
1326730
1326888
1327042
1327200
1327358
1327518
1327676
1327830
1327986
1328140
1328300
1328466
1328624
1328786
1328946
1329104
1329266
1329426
1329586
1329746
1329904
1330060
1330220
1330380
1330546
1330702
1330866
1331034
1331208
1331370
1331540
1331712
1331886
1332048
1332214
1332384
1332554
1332720
1332888
1333058
1333232
1333402
1333576
1333750
1333926
1334098
1334270
1334444
1334616
1334782
1334950
1335120
1335284
1335446
1335612
1335780
1335950
1336116
1336280
1336446
1336614
1336782
1336950
1337116
1337280
1337448
1337618
1337788
1337958
1338122
1338288
1338450
1338620
1338786
1338946
1339108
1339274
1339442
1339612
1339772
1339938
1340106
1340276
1340446
1340616
1340784
1340956
1341130
1341304
1341476
1341648
1341822
1341998
1342170
1342340
1342512
1342684
1342856
1343032
1343208
1343386
1343558
1343730
1343896
1344058
1344222
1344390
1344548
1344704
1344866
1345030
1345196
1345356
1345516
1345678
1345842
1346006
1346170
1346332
1346494
1346656
1346822
1346986
1347152
1347314
1347470
1347634
1347798
1347958
1348114
1348276
1348442
1348608
1348772
1348934
1349100
1349268
1349436
1349604
1349772
1349942
1350106
1350272
1350440
1350608
1350772
1350932
1351098
1351266
1351436
1351598
1351766
1351940
1352118
1352294
1352462
1352638
1352816
1353000
1353174
1353346
1353522
1353700
1353884
1354060
1354234
1354410
1354586
1354762
1354942
1355122
1355302
1355482
1355658
1355834
1356008
1356180
1356350
1356518
1356688
1356846
1357012
1357172
1357334
1357494
1357652
1357820
1357984
1358150
1358320
1358492
1358670
1358848
1359030
1359206
1359382
1359556
1359726
1359896
1360068
1360232
1360390
1360552
1360712
1360874
1361036
1361196
1361362
1361528
1361690
1361848
1362012
1362168
1362326
1362478
1362634
1362800
1362958
1363120
1363284
1363452
1363626
1363804
1363978
1364156
1364332
1364512
1364682
1364846
1365014
1365184
1365354
1365524
1365692
1365866
1366034
1366202
1366376
1366552
1366732
1366904
1367084
1367262
1367448
1367622
1367798
1367976
1368162
1368342
1368516
1368698
1368878
1369064
1369240
1369416
1369596
1369778
1369958
1370130
1370312
1370494
1370674
1370848
1371026
1371206
1371386
1371560
1371734
1371914
1372098
1372276
1372450
1372630
1372814
1373002
1373180
1373360
1373538
1373714
1373898
1374082
1374264
1374442
1374622
1374804
1374988
1375170
1375354
1375532
1375712
1375890
1376064
1376234
1376402
1376568
1376732
1376894
1377054
1377214
1377372
1377536
1377688
1377850
1378004
1378160
1378312
1378466
1378624
1378790
1378958
1379132
1379300
1379472
1379638
1379800
1379966
1380136
1380308
1380478
1380648
1380824
1381000
1381182
1381360
1381538
1381712
1381884
1382052
1382224
1382382
1382550
1382706
1382864
1383024
1383182
1383346
1383516
1383690
1383866
1384044
1384210
1384384
1384548
1384712
1384872
1385038
1385212
1385380
1385548
1385720
1385900
1386086
1386272
1386460
1386648
1386832
1387008
1387180
1387358
1387540
1387716
1387888
1388068
1388250
1388434
1388614
1388790
1388974
1389156
1389344
1389522
1389700
1389882
1390066
1390248
1390420
1390598
1390776
1390958
1391132
1391304
1391480
1391660
1391840
1392018
1392190
1392368
1392548
1392726
1392900
1393072
1393240
1393414
1393590
1393766
1393938
1394110
1394284
1394454
1394632
1394802
1394974
1395148
1395324
1395496
1395672
1395842
1396012
1396182
1396352
1396514
1396676
1396838
1396998
1397156
1397314
1397472
1397626
1397780
1397932
1398082
1398236
1398382
1398528
1398674
1398818
1398958
1399106
1399256
1399418
1399576
1399742
1399898
1400050
1400200
1400360
1400516
1400672
1400828
1400990
1401156
1401328
1401496
1401660
1401830
1401994
1402156
1402318
1402474
1402630
1402782
1402940
1403106
1403266
1403430
1403596
1403770
1403954
1404136
1404324
1404502
1404676
1404856
1405038
1405224
1405404
1405578
1405760
1405944
1406134
1406316
1406496
1406684
1406874
1407066
1407250
1407432
1407620
1407812
1407994
1408172
1408356
1408544
1408734
1408912
1409096
1409280
1409470
1409650
1409826
1410008
1410186
1410370
1410546
1410718
1410896
1411078
1411256
1411430
1411608
1411788
1411978
1412156
1412340
1412526
1412720
1412902
1413084
1413270
1413456
1413636
1413812
1413992
1414174
1414344
1414522
1414702
1414882
1415060
1415234
1415414
1415594
1415778
1415954
1416130
1416306
1416486
1416670
1416856
1417040
1417224
1417406
1417588
1417758
1417934
1418110
1418284
1418458
1418632
1418808
1418984
1419158
1419334
1419512
1419690
1419866
1420044
1420228
1420400
1420574
1420752
1420928
1421106
1421276
1421454
1421632
1421814
1421988
1422170
1422354
1422540
1422724
1422902
1423088
1423270
1423452
1423632
1423812
1423992
1424174
1424354
1424536
1424720
1424908
1425088
1425272
1425452
1425632
1425810
1425990
1426164
1426340
1426514
1426688
1426862
1427032
1427204
1427374
1427542
1427710
1427878
1428042
1428208
1428372
1428544
1428706
1428862
1429022
1429184
1429346
1429504
1429666
1429828
1429992
1430156
1430320
1430486
1430650
1430814
1430982
1431150
1431314
1431482
1431656
1431818
1431986
1432160
1432326
1432490
1432662
1432832
1432998
1433174
1433344
1433512
1433686
1433858
1434028
1434204
1434382
1434556
1434734
1434910
1435080
1435256
1435440
1435612
1435792
1435974
1436148
1436334
1436518
1436694
1436888
1437084
1437274
1437474
1437672
1437860
1438056
1438246
1438434
1438636
1438840
1439036
1439232
1439420
1439604
1439788
1439964
1440138
1440314
1440488
1440652
1440822
1441000
1441162
1441336
1441514
1441680
1441854
1442034
1442204
1442372
1442546
1442722
1442890
1443066
1443250
1443416
1443594
1443772
1443945
1444118
1444296
1444468
1444636
1444808
1444984
1445150
1445326
1445500
1445674
1445850
1446022
1446196
1446378
1446546
1446724
1446906
1447076
1447252
1447432
1447596
1447770
1447948
1448116
1448286
1448464
1448642
1448812
1448982
1449148
1449326
1449496
1449670
1449848
1450026
1450198
1450380
1450562
1450736
1450920
1451102
1451282
1451470
1451654
1451838
1452032
1452214
1452400
1452592
1452774
1452962
1453144
1453326
1453508
1453686
1453864
1454043
1454219
1454401
1454570
1454742
1454920
1455096
1455276
1455452
1455634
1455812
1455992
1456176
1456354
1456534
1456714
1456888
1457070
1457248
1457420
1457596
1457772
1457946
1458118
1458294
1458468
1458642
1458814
1458992
1459170
1459352
1459530
1459708
1459882
1460060
1460238
1460412
1460588
1460766
1460942
1461114
1461286
1461464
1461644
1461818
1461988
1462166
1462336
1462506
1462678
1462850
1463022
1463196
1463368
1463542
1463716
1463888
1464064
1464244
1464414
1464590
1464762
1464936
1465114
1465294
1465464
1465640
1465820
1465994
1466166
1466344
1466520
1466694
1466874
1467052
1467222
1467398
1467578
1467748
1467916
1468090
1468266
1468440
1468616
1468800
1468970
1469150
1469330
1469516
1469706
1469890
1470072
1470258
1470440
1470634
1470826
1471010
1471194
1471388
1471578
1471764
1471950
1472138
1472332
1472524
1472712
1472898
1473098
1473298
1473488
1473678
1473878
1474080
1474274
1474464
1474666
1474874
1475068
1475264
1475470
1475674
1475870
1476070
1476276
1476478
1476674
1476864
1477064
1477264
1477454
1477642
1477834
1478032
1478220
1478406
1478606
1478806
1478996
1479190
1479390
1479586
1479776
1479970
1480172
1480364
1480554
1480756
1480958
1481152
1481346
1481550
1481748
1481938
1482140
1482350
1482544
1482738
1482942
1483142
1483338
1483540
1483750
1483946
1484146
1484352
1484554
1484748
1484948
1485152
1485342
1485532
1485728
1485920
1486110
1486302
1486494
1486684
1486880
1487084
1487280
1487474
1487676
1487888
1488082
1488288
1488502
1488710
1488910
1489122
1489334
1489534
1489736
1489948
1490158
1490360
1490568
1490784
1490990
1491190
1491404
1491618
1491818
1492024
1492240
1492448
1492648
1492858
1493076
1493278
1493486
1493698
1493908
1494106
1494314
1494528
1494728
1494926
1495136
1495348
1495546
1495746
1495950
1496166
1496364
1496562
1496770
1496974
1497170
1497372
1497580
1497784
1497980
1498188
1498400
1498600
1498802
1499012
1499218
1499418
1499622
1499832
1500028
1500224
1500432
1500638
1500834
1501034
1501240
1501442
1501636
1501840
1502048
1502242
1502436
1502640
1502846
1503038
1503236
1503438
1503642
1503834
1504028
1504228
1504430
1504622
1504818
1505024
1505218
1505408
1505610
1505816
1506010
1506206
1506412
1506616
1506812
1507014
1507222
1507422
1507618
1507824
1508032
1508230
1508426
1508630
1508832
1509028
1509226
1509430
1509630
1509824
1510026
1510232
1510426
1510626
1510830
1511036
1511232
1511430
1511636
1511838
1512030
1512234
1512438
1512638
1512834
1513038
1513246
1513444
1513646
1513850
1514054
1514252
1514452
1514656
1514858
1515054
1515258
1515470
1515670
1515872
1516084
1516294
1516496
1516704
1516918
1517126
1517332
1517542
1517756
1517958
1518168
1518378
1518582
1518776
1518982
1519192
1519404
1519604
1519806
1520016
1520228
1520428
1520636
1520848
1521056
1521256
1521470
1521684
1521888
1522094
1522302
1522514
1522726
1522930
1523136
1523350
1523564
1523766
1523970
1524180
1524392
1524590
1524794
1525004
1525214
1525412
1525618
1525826
1526030
1526228
1526432
1526642
1526840
1527038
1527242
1527446
1527642
1527844
1528052
1528260
1528460
1528664
1528874
1529074
1529278
1529490
1529700
1529902
1530108
1530318
1530524
1530724
1530928
1531136
1531334
1531530
1531738
1531942
1532140
1532342
1532552
1532758
1532958
1533164
1533374
1533578
1533776
1533978
1534184
1534380
1534574
1534778
1534984
1535178
1535376
1535580
1535782
1535978
1536176
1536382
1536580
1536778
1536980
1537182
1537378
1537580
1537788
1537984
1538182
1538386
1538592
1538790
1538990
1539194
1539394
1539590
1539788
1539994
1540200
1540396
1540594
1540798
1541004
1541206
1541406
1541608
1541814
1542018
1542216
1542420
1542628
1542832
1543030
1543236
1543446
1543642
1543840
1544046
1544256
1544458
1544660
1544868
1545078
1545282
1545488
1545700
1545906
1546110
1546316
1546534
1546740
1546942
1547156
1547368
1547572
1547778
1547988
1548200
1548402
1548606
1548814
1549024
1549220
1549420
1549624
1549826
1550022
1550222
1550426
1550628
1550822
1551026
1551232
1551436
1551634
1551836
1552040
1552236
1552430
1552632
1552834
1553032
1553224
1553426
1553630
1553826
1554022
1554222
1554422
1554618
1554814
1555014
1555212
1555400
1555596
1555796
1555984
1556170
1556368
1556568
1556758
1556950
1557148
1557348
1557540
1557734
1557930
1558124
1558308
1558500
1558688
1558872
1559054
1559236
1559418
1559596
1559786
1559978
1560168
1560358
1560552
1560752
1560952
1561146
1561344
1561548
1561750
1561948
1562146
1562352
1562560
1562760
1562962
1563172
1563384
1563586
1563788
1563998
1564210
1564412
1564620
1564832
1565042
1565246
1565456
1565670
1565880
1566086
1566296
1566510
1566718
1566916
1567128
1567346
1567552
1567758
1567976
1568196
1568404
1568614
1568828
1569044
1569250
1569458
1569676
1569896
1570104
1570314
1570528
1570738
1570938
1571146
1571354
1571558
1571756
1571960
1572168
1572378
1572578
1572778
1572988
1573200
1573400
1573600
1573806
1574018
1574218
1574418
1574626
1574840
1575040
1575238
1575446
1575660
1575862
1576062
1576272
1576482
1576690
1576890
1577094
1577304
1577512
1577712
1577914
1578118
1578326
1578524
1578722
1578928
1579138
1579340
1579542
1579750
1579958
1580158
1580358
1580562
1580768
1580964
1581160
1581362
1581562
1581756
1581954
1582162
1582356
1582550
1582750
1582958
1583156
1583354
1583554
1583760
1583956
1584156
1584362
1584568
1584768
1584970
1585174
1585378
1585576
1585774
1585978
1586176
1586372
1586570
1586776
1586978
1587176
1587380
1587584
1587784
1587976
1588176
1588380
1588574
1588766
1588968
1589172
1589366
1589564
1589766
1589966
1590160
1590356
1590556
1590758
1590956
1591150
1591352
1591556
1591752
1591954
1592160
1592366
1592562
1592768
1592976
1593180
1593380
1593588
1593802
1594004
1594204
1594416
1594634
1594836
1595040
1595252
1595468
1595670
1595868
1596076
1596284
1596488
1596688
1596894
1597104
1597312
1597512
1597714
1597922
1598128
1598328
1598534
1598746
1598956
1599160
1599370
1599586
1599798
1600002
1600208
1600422
1600634
1600840
1601046
1601258
1601472
1601676
1601884
1602094
1602304
1602504
1602708
1602916
1603124
1603322
1603524
1603730
1603934
1604134
1604336
1604544
1604752
1604952
1605152
1605358
1605566
1605766
1605966
1606172
1606380
1606580
1606780
1606986
1607196
1607394
1607594
1607798
1608008
1608210
1608412
1608622
1608832
1609034
1609238
1609450
1609660
1609862
1610066
1610276
1610486
1610688
1610890
1611098
1611304
1611506
1611708
1611922
1612122
1612322
1612526
1612730
1612930
1613130
1613334
1613534
1613730
1613936
1614144
1614342
1614542
1614748
1614954
1615156
1615356
1615562
1615770
1615974
1616176
1616388
1616604
1616806
1617006
1617212
1617420
1617626
1617828
1618030
1618236
1618442
1618642
1618840
1619042
1619242
1619434
1619636
1619836
1620032
1620224
1620424
1620624
1620816
1621010
1621210
1621408
1621602
1621796
1621996
1622194
1622386
1622580
1622778
1622976
1623166
1623356
1623554
1623752
1623942
1624132
1624328
1624520
1624708
1624896
1625088
1625276
1625462
1625654
1625854
1626050
1626246
1626444
1626652
1626856
1627056
1627256
1627466
1627664
1627860
1628064
1628272
1628470
1628668
1628874
1629082
1629280
1629480
1629688
1629894
1630092
1630296
1630504
1630710
1630912
1631116
1631328
1631540
1631744
1631948
1632160
1632372
1632578
1632784
1632994
1633204
1633410
1633618
1633830
1634044
1634250
1634456
1634666
1634874
1635078
1635280
1635486
1635692
1635894
1636096
1636306
1636510
1636708
1636908
1637112
1637318
1637520
1637716
1637924
1638130
1638342
1638548
1638754
1638968
1639182
1639388
1639590
1639802
1640012
1640216
1640418
1640628
1640842
1641050
1641260
1641474
1641684
1641886
1642092
1642302
1642508
1642706
1642914
1643124
1643330
1643530
1643736
1643946
1644154
1644352
1644558
1644768
1644972
1645170
1645376
1645584
1645790
1645988
1646196
1646406
1646606
1646806
1647014
1647226
1647430
1647636
1647848
1648058
1648262
1648476
1648694
1648906
1649110
1649324
1649538
1649750
1649952
1650164
1650374
1650582
1650782
1650992
1651204
1651412
1651610
1651816
1652024
1652232
1652432
1652636
1652842
1653048
1653246
1653452
1653660
1653862
1654060
1654262
1654468
1654670
1654866
1655072
1655282
1655484
1655686
1655896
1656108
1656312
1656514
1656724
1656934
1657136
1657336
1657542
1657750
1657946
1658144
1658348
1658554
1658752
1658946
1659146
1659350
1659552
1659746
1659942
1660144
1660352
1660550
1660750
1660956
1661162
1661364
1661560
1661764
1661970
1662168
1662364
1662568
1662776
1662976
1663176
1663382
1663592
1663792
1663994
1664202
1664412
1664610
1664808
1665012
1665216
1665414
1665608
1665812
1666016
1666220
1666418
1666620
1666826
1667030
1667228
1667432
1667638
1667842
1668042
1668242
1668448
1668652
1668852
1669056
1669264
1669470
1669668
1669874
1670084
1670288
1670488
1670688
1670894
1671094
1671286
1671478
1671660
1671850
1672042
1672232
1672420
1672618
1672820
1673020
1673218
1673426
1673630
1673834
1674030
1674234
1674436
1674638
1674834
1675032
1675234
1675438
1675634
1675834
1676038
1676244
1676442
1676642
1676846
1677054
1677256
1677456
1677666
1677876
1678084
1678284
1678494
1678706
1678918
1679120
1679334
1679548
1679756
1679960
1680174
1680392
1680608
1680814
1681020
1681232
1681446
1681654
1681858
1682064
1682278
1682490
1682694
1682898
1683108
1683316
1683518
1683716
1683926
1684136
1684340
1684542
1684750
1684962
1685170
1685368
1685578
1685790
1685994
1686192
1686400
1686606
1686808
1687008
1687214
1687424
1687624
1687826
1688036
1688244
1688442
1688644
1688850
1689052
1689250
1689450
1689656
1689852
1690048
1690250
1690456
1690652
1690848
1691052
1691258
1691458
1691652
1691854
1692056
1692254
1692448
1692648
1692856
1693052
1693248
1693452
1693656
1693854
1694052
1694256
1694466
1694664
1694864
1695074
1695282
1695484
1695686
1695892
1696098
1696298
1696500
1696708
1696914
1697116
1697320
1697528
1697738
1697936
1698136
1698342
1698548
1698746
1698948
1699154
1699360
1699558
1699758
1699968
1700178
1700378
1700576
1700780
1700988
1701186
1701382
1701586
1701794
1701994
1702194
1702400
1702608
1702814
1703014
1703222
1703432
1703636
1703836
1704044
1704248
1704454
1704652
1704854
1705058
1705264
1705462
1705656
1705856
1706054
1706250
1706438
1706634
1706834
1707032
1707228
1707424
1707628
1707834
1708034
1708232
1708438
1708646
1708844
1709044
1709248
1709456
1709652
1709854
1710060
1710268
1710466
1710666
1710870
1711074
1711270
1711470
1711674
1711876
1712072
1712272
1712476
1712680
1712878
1713078
1713284
1713488
1713688
1713890
1714098
1714306
1714506
1714708
1714918
1715124
1715320
1715524
1715728
1715932
1716130
1716328
1716536
1716740
1716938
1717140
1717348
1717556
1717754
1717960
1718170
1718376
1718578
1718784
1718992
1719202
1719402
1719606
1719814
1720026
1720228
1720428
1720634
1720840
1721034
1721224
1721422
1721626
1721818
1722010
1722210
1722414
1722606
1722796
1722994
1723194
1723390
1723582
1723780
1723980
1724180
1724376
1724578
1724788
1724986
1725182
1725388
1725592
1725798
1725994
1726192
1726398
1726608
1726808
1727006
1727214
1727426
1727626
1727828
1728034
1728242
1728440
1728636
1728834
1729032
1729224
1729418
1729618
1729820
1730018
1730220
1730428
1730636
1730838
1731042
1731254
1731466
1731670
1731880
1732096
1732310
1732512
1732718
1732924
1733128
1733322
1733524
1733730
1733928
1734130
1734338
1734544
1734746
1734950
1735160
1735360
1735558
1735762
1735970
1736168
1736370
1736576
1736782
1736982
1737186
1737394
1737604
1737804
1738010
1738224
1738434
1738636
1738840
1739050
1739250
1739448
1739654
1739860
1740058
1740258
1740464
1740670
1740864
1741064
1741266
1741460
1741662
1741864
1742064
1742258
1742458
1742660
1742858
1743052
1743252
1743444
1743638
1743836
1744044
1744242
1744440
1744646
1744854
1745058
1745256
1745462
1745672
1745876
1746076
1746278
1746488
1746692
1746892
1747098
1747312
1747512
1747714
1747924
1748136
1748338
1748546
1748760
1748972
1749180
1749390
1749606
1749820
1750026
1750234
1750448
1750660
1750864
1751072
1751284
1751500
1751706
1751914
1752128
1752346
1752548
1752752
1752964
1753174
1753376
1753582
1753792
1754006
1754210
1754416
1754630
1754842
1755044
1755248
1755458
1755670
1755870
1756068
1756276
1756484
1756688
1756892
1757104
1757318
1757522
1757728
1757940
1758158
1758364
1758570
1758784
1759002
1759208
1759414
1759628
1759840
1760046
1760246
1760454
1760664
1760870
1761072
1761274
1761484
1761690
1761892
1762094
1762302
1762508
1762708
1762914
1763126
1763334
1763504
1763744
1763954
1764168
1764372
1764578
1764792
1765004
1765208
1765416
1765632
1765846
1766054
1766266
1766484
1766696
1766906
1767122
1767338
1767546
1767752
1767966
1768178
1768384
1768592
1768806
1769016
1769218
1769430
1769640
1769848
1770046
1770256
1770462
1770666
1770870
1771078
1771288
1771492
1771700
1771912
1772124
1772328
1772536
1772750
1772960
1773166
1773374
1773586
1773796
1774000
1774204
1774412
1774620
1774820
1775022
1775232
1775438
1775638
1775838
1776042
1776250
1776450
1776648
1776854
1777064
1777264
1777460
1777666
1777872
1778078
1778278
1778478
1778686
1778890
1779090
1779286
1779490
1779692
1779892
1780086
1780286
1780490
1780694
1780888
1781092
1781300
1781510
1781710
1781908
1782116
1782326
1782526
1782726
1782932
1783142
1783344
1783544
1783752
1783962
1784160
1784358
1784554
1784756
1784960
1785154
1785348
1785550
1785756
1785954
1786150
1786356
1786562
1786760
1786962
1787164
1787370
1787570
1787770
1787976
1788178
1788378
1788580
1788788
1788992
1789190
1789396
1789606
1789806
1790004
1790210
1790418
1790616
1790816
1791022
1791230
1791430
1791628
1791832
1792036
1792230
1792426
1792630
1792830
1793026
1793220
1793422
1793624
1793820
1794016
1794218
1794418
1794612
1794814
1795018
1795220
1795416
1795620
1795830
1796030
1796230
1796438
1796648
1796852
1797052
1797260
1797468
1797672
1797870
1798078
1798286
1798492
1798694
1798900
1799110
1799318
1799520
1799724
1799934
