peaks
130
325
522
720
916
1110
1300
1494
1686
1880
2070
2260
2456
2654
2856
3058
3258
3460
3660
3860
4052
4246
4440
4636
4834
5030
5230
5434
5636
5840
6038
6240
6444
6648
6852
7054
7250
7450
7646
7846
8042
8236
8434
8628
8826
9022
9216
9414
9614
9818
10022
10228
10438
10646
10858
11066
11272
11480
11690
11900
12106
12310
12514
12720
12920
13122
13324
13524
13724
13924
14126
14332
14542
14750
14962
15180
15392
15608
15826
16040
16256
16472
16688
16898
17102
17312
17518
17720
17920
18124
18328
18532
18734
18934
19138
19340
19544
19740
19938
20138
20340
20544
20748
20952
21164
21382
21594
21804
22014
22224
22428
22632
22836
23040
23244
23446
23648
23854
24054
24254
24456
24658
24862
25062
25266
25472
25678
25880
26086
26292
26498
26700
26906
27112
27318
27524
27730
27940
28150
28356
28566
28776
28984
29188
29394
29600
29802
30008
30214
30418
30620
30824
31030
31234
31438
31644
31854
32056
32258
32460
32660
32856
33050
33246
33440
33634
33826
34022
34220
34420
34616
34816
35022
35228
35432
35640
35848
36056
36258
36462
36664
36864
37058
37254
37450
37646
37842
38040
38238
38436
38632
38832
39034
39236
39434
39638
39846
40052
40256
40464
40668
40868
41070
41270
41466
41664
41862
42056
42250
42442
42636
42830
43024
43220
43416
43610
43804
44002
44202
44400
44600
44798
44998
45202
45402
45602
45802
46006
46204
46402
46600
46796
46986
47178
47370
47560
47748
47938
48128
48320
48510
48700
48892
49086
49276
49472
49666
49860
50052
50246
50438
50628
50818
51010
51202
51394
51582
51776
51968
52156
52348
52538
52728
52916
53104
53292
53474
53662
53848
54034
54218
54402
54594
54788
54984
55182
55384
55588
55794
55998
56204
56410
56612
56810
57010
57208
57402
57592
57788
57980
58172
58360
58550
58740
58934
59124
59312
59506
59698
59890
60082
60278
60478
60680
60880
61088
61300
61508
61716
61924
62126
62328
62526
62726
62918
63112
63304
63494
63682
63870
64056
64242
64426
64608
64792
64978
65160
65344
65530
65714
65898
66084
66272
66460
66648
66838
67028
67220
67410
67598
67788
67978
68168
68356
68544
68732
68922
69108
69296
69486
69674
69862
70046
70234
70422
70606
70788
70972
71156
71338
71518
71700
71880
72060
72242
72422
72608
72792
72978
73160
73348
73534
73720
73900
74086
74272
74456
74636
74822
75008
75192
75374
75558
75742
75928
76112
76298
76486
76674
76862
77048
77236
77424
77610
77802
77990
78178
78364
78556
78744
78930
79114
79302
79492
79680
79870
80056
80246
80434
80622
80806
80994
81182
81368
81550
81732
81916
82102
82288
82470
82656
82844
83030
83218
83404
83592
83780
83970
84154
84344
84534
84724
84914
85102
85294
85486
85678
85870
86060
86254
86446
86636
86830
87022
87212
87402
87592
87780
87966
88154
88340
88522
88708
88894
89078
89260
89442
89628
89814
89996
90180
90362
90546
90734
90922
91108
91300
91494
91690
91884
92076
92272
92468
92660
92848
93040
93226
93412
93594
93774
93960
94144
94334
94522
94712
94906
95102
95296
95492
95690
95888
96082
96278
96474
96668
96862
97052
97246
97440
97634
97822
98012
98206
98400
98592
98782
98976
99170
99368
99560
99756
99950
100142
100332
100520
100710
100898
101084
101268
101452
101638
101828
102024
102218
102414
102614
102812
103008
103200
103394
103582
103770
103954
104136
104320
104500
104682
104862
105040
105216
105396
105578
105764
105956
106152
106354
106562
106776
106990
107198
107412
107628
107844
108056
108270
108484
108698
108908
109116
109326
109532
109740
109942
110140
110340
110540
110738
110936
111132
111328
111526
111724
111924
112120
112320
112522
112726
112932
113134
113336
113542
113748
113952
114158
114364
114574
114784
114990
115192
115398
115606
115818
116022
116226
116430
116638
116844
117046
117250
117456
117660
117866
118068
118270
118472
118676
118880
119082
119286
119492
119700
119904
120104
120304
120506
120708
120910
121110
121312
121514
121714
121914
122116
122320
122520
122720
122918
123118
123312
123508
123702
123898
124092
124288
124484
124684
124884
125082
125286
125490
125692
125892
126094
126294
126494
126690
126886
127088
127288
127486
127688
127888
128086
128282
128478
128676
128874
129072
129266
129464
129662
129854
130050
130248
130444
130636
130832
131030
131230
131428
131628
131828
132032
132234
132432
132636
132838
133038
133236
133430
133626
133824
134022
134218
134416
134614
134806
134998
135190
135378
135568
135758
135948
136142
136336
136530
136728
136924
137126
137326
137530
137734
137936
138138
138344
138544
138746
138950
139152
139354
139552
139752
139950
140148
140344
140544
140744
140944
141144
141346
141548
141748
141950
142152
142356
142558
142756
142958
143160
143360
143558
143758
143960
144158
144356
144548
144746
144942
145142
145340
145536
145734
145936
146138
146336
146534
146732
146928
147122
147316
147510
147702
147894
148080
148264
148452
148636
148822
149008
149190
149374
149560
149748
149940
150132
150320
150514
150704
150894
151084
151270
151452
151636
151822
152006
152188
152370
152550
152732
152912
153094
153276
153458
153646
153842
154042
154250
154462
154680
154892
155106
155318
155528
155734
155938
156138
156336
156528
156714
156904
157090
157282
157474
157668
157862
158064
158270
158480
158692
158902
159114
159332
159550
159758
159972
160190
160404
160614
160828
161044
161258
161468
161680
161890
162096
162302
162506
162710
162914
163114
163318
163524
163734
163940
164144
164352
164562
164774
164980
165190
165402
165616
165826
166032
166240
166450
166660
166864
167068
167274
167484
167686
167886
168088
168292
168496
168698
168900
169106
169308
169510
169708
169910
170116
170320
170520
170718
170920
171122
171324
171522
171720
171918
172116
172316
172516
172716
172916
173116
173318
173516
173712
173904
174096
174284
174474
174662
174848
175034
175216
175400
175584
175768
175954
176142
176328
176522
176720
176922
177124
177330
177536
177742
177946
178148
178352
178556
178756
178952
179150
179344
179538
179728
179916
180106
180298
180492
180682
180876
181070
181266
181460
181648
181844
182036
182230
182424
182614
182810
183008
183210
183410
183608
183812
184018
184226
184438
184646
184856
185066
185270
185478
185682
185886
186084
186282
186478
186670
186860
187052
187244
187438
187630
187822
188018
188216
188418
188624
188830
189040
189252
189464
189668
189876
190086
190294
190494
190698
190902
191100
191296
191492
191686
191880
192074
192268
192464
192662
192862
193060
193258
193456
193652
193850
194048
194248
194448
194646
194842
195042
195244
195446
195644
195844
196044
196242
196442
196642
196842
197044
197250
197454
197656
197860
198066
198272
198470
198672
198872
199070
199268
199466
199664
199864
200060
200256
200452
200652
200850
201046
201246
201448
201652
201854
202054
202258
202464
202666
202868
203070
203274
203472
203668
203866
204062
204256
204450
204642
204838
205036
205232
205428
205628
205830
206028
206226
206428
206626
206824
207016
207214
207408
207604
207796
207984
208180
208378
208578
208776
208978
209182
209390
209592
209796
210004
210208
210410
210612
210814
211012
211210
211406
211604
211798
211992
212188
212384
212578
212768
212964
213160
213360
213556
213750
213948
214148
214348
214546
214742
214946
215154
215366
215570
215774
215980
216184
216386
216590
216792
216992
217198
217400
217602
217804
218004
218202
218398
218592
218784
218980
219172
219362
219554
219750
219946
220142
220342
220548
220758
220964
221170
221376
221580
221780
221984
222188
222388
222588
222788
222990
223194
223398
223596
223800
224010
224222
224430
224636
224850
225064
225280
225486
225702
225914
226122
226322
226528
226730
226930
227128
227328
227526
227726
227922
228116
228314
228508
228706
228900
229100
229300
229498
229694
229894
230096
230296
230490
230686
230880
231072
231262
231454
231648
231842
232032
232224
232418
232612
232806
232998
233192
233386
233582
233776
233972
234170
234372
234572
234770
234972
235174
235374
235576
235776
235974
236170
236366
236562
236754
236944
237138
237328
237516
237700
237884
238070
238256
238440
238626
238808
238996
239184
239370
239558
239744
239936
240128
240320
240514
240702
240892
241086
241278
241470
241664
241856
242050
242242
242440
242634
242826
243018
243210
243404
243598
243788
243976
244164
244352
244538
244724
244908
245092
245276
245460
245642
245822
246006
246192
246378
246568
246758
246952
247148
247350
247554
247754
247958
248160
248360
248558
248756
248952
249148
249340
249528
249720
249910
250100
250288
250478
250668
250860
251052
251246
251440
251636
251836
252036
252234
252434
252636
252840
253038
253238
253442
253644
253846
254044
254238
254434
254630
254826
255016
255206
255400
255592
255786
255978
256168
256360
256554
256746
256936
257126
257318
257510
257702
257892
258086
258280
258474
258666
258860
259052
259242
259434
259622
259810
259994
260182
260366
260550
260734
260916
261106
261298
261492
261686
261882
262082
262284
262482
262682
262878
263074
263268
263460
263654
263844
264034
264222
264412
264602
264790
264978
265170
265366
265564
265766
265966
266164
266366
266572
266780
266986
267186
267388
267588
267786
267978
268172
268366
268556
268744
268932
269120
269310
269502
269696
269886
270084
270280
270476
270672
270868
271064
271264
271460
271656
271854
272052
272252
272446
272640
272836
273036
273232
273428
273626
273822
274016
274212
274406
274606
274800
274994
275192
275388
275584
275780
275978
276180
276384
276586
276792
276998
277204
277400
277600
277800
277996
278188
278382
278572
278762
278952
279138
279326
279516
279706
279900
280090
280280
280478
280680
280886
281094
281300
281510
281720
281930
282132
282338
282546
282748
282950
283148
283348
283546
283742
283938
284128
284318
284510
284698
284886
285072
285256
285438
285620
285802
285982
286164
286344
286532
286716
286904
287092
287278
287470
287666
287872
288084
288294
288496
288704
288912
289118
289322
289524
289722
289920
290114
290308
290498
290684
290872
291062
291250
291434
291618
291800
291984
292166
292350
292532
292718
292910
293104
293306
293506
293712
293918
294128
294332
294542
294748
294952
295152
295344
295534
295722
295910
296100
296290
296480
296672
296866
297062
297256
297452
297644
297834
298026
298214
298402
298592
298780
298974
299170
299372
299574
299772
299974
300174
300372
300564
300752
300940
301128
301316
301502
301686
301872
302062
302252
302446
302636
302828
303024
303220
303418
303614
303810
304002
304198
304392
304584
304774
304966
305156
305346
305536
305724
305916
306108
306302
306498
306696
306894
307092
307290
307488
307680
307874
308066
308254
308440
308626
308812
308998
309184
309372
309562
309754
309944
310136
310330
310522
310714
310906
311096
311284
311472
311658
311844
312028
312212
312402
312598
312794
312986
313182
313380
313582
313780
313976
314168
314362
314556
314746
314936
315124
315312
315498
315682
315866
316046
316228
316412
316598
316784
316968
317152
317340
317530
317724
317916
318110
318306
318502
318700
318894
319090
319284
319480
319676
319868
320062
320250
320434
320622
320812
321000
321188
321374
321562
321752
321944
322134
322326
322512
322698
322882
323064
323242
323420
323596
323776
323946
324118
324288
324458
324626
324792
324958
325122
325282
325440
325600
325758
325916
326072
326228
326382
326536
326688
326842
326998
327160
327326
327500
327674
327852
328038
328230
328426
328620
328812
329004
329196
329386
329578
329770
329968
330162
330356
330552
330744
330938
331130
331324
331516
331702
331890
332076
332264
332452
332640
332824
333010
333196
333384
333572
333760
333948
334138
334330
334520
334710
334898
335086
335270
335454
335632
335814
335998
336182
336366
336550
336738
336930
337122
337316
337508
337692
337880
338068
338254
338438
338622
338802
338982
339164
339344
339528
339714
339896
340076
340260
340444
340630
340816
340996
341180
341362
341544
341724
341902
342076
342252
342424
342594
342764
342934
343106
343276
343448
343624
343804
343990
344176
344358
344540
344726
344910
345092
345272
345446
345622
345800
345976
346150
346322
346494
346668
346838
347010
347182
347354
347526
347696
347870
348044
348216
348394
348574
348760
348950
349144
349332
349524
349718
349914
350108
350298
350494
350688
350884
351078
351268
351462
351656
351850
352042
352232
352426
352622
352822
353024
353220
353418
353618
353816
354014
354208
354394
354584
354772
354958
355142
355324
355508
355696
355886
356078
356270
356458
356648
356836
357026
357218
357404
357594
357786
357978
358170
358360
358552
358746
358940
359134
359328
359518
359708
359898
360088
360276
360460
360648
360834
361020
361206
361388
361572
361754
361940
362124
362308
362488
362672
362858
363044
363232
363418
363604
363792
363978
364166
364352
364538
364720
364898
365078
365254
365426
365600
365774
365950
366128
366306
366484
366662
366840
367020
367194
367366
367542
367716
367890
368064
368234
368406
368580
368754
368928
369102
369276
369444
369614
369788
369960
370132
370308
370484
370662
370844
371026
371212
371404
371588
371772
371960
372148
372338
372528
372718
372910
373104
373292
373484
373680
373876
374074
374274
374472
374666
374864
375060
375258
375454
375646
375834
376030
376224
376418
376604
376790
376980
377170
377360
377544
377730
377916
378100
378276
378450
378628
378802
378976
379148
379322
379494
379674
379854
380042
380236
380432
380624
380824
381026
381228
381432
381636
381840
382042
382242
382442
382644
382844
383044
383244
383444
383636
383834
384030
384230
384430
384630
384828
385020
385218
385414
385610
385802
385990
386184
386378
386572
386764
386952
387144
387336
387526
387714
387898
388086
388272
388458
388642
388822
389006
389192
389378
389568
389754
389942
390132
390322
390516
390708
390898
391090
391282
391474
391664
391856
392046
392232
392416
392600
392784
392970
393154
393338
393520
393704
393890
394080
394270
394462
394650
394834
395022
395210
395400
395588
395774
395960
396144
396328
396516
396704
396896
397086
397274
397462
397654
397846
398038
398230
398418
398608
398800
398994
399188
399384
399574
399766
399960
400152
400346
400534
400718
400906
401090
401274
401458
401638
401822
402008
402196
402386
402572
402760
402950
403140
403330
403514
403700
403890
404080
404272
404462
404650
404842
405034
405226
405422
405614
405804
405994
406186
406378
406570
406764
406952
407144
407336
407530
407728
407924
408116
408312
408508
408708
408906
409106
409302
409498
409690
409884
410076
410270
410460
410646
410832
411020
411208
411398
411582
411766
411952
412140
412324
412506
412688
412872
413056
413242
413424
413610
413804
413996
414188
414376
414568
414760
414954
415144
415334
415524
415716
415904
416092
416278
416464
416652
416842
417032
417224
417410
417598
417788
417978
418170
418362
418550
418742
418934
419126
419320
419512
419704
419894
420088
420284
420480
420678
420874
421070
421264
421458
421654
421852
422050
422244
422434
422628
422820
423012
423200
423382
423568
423756
423946
424134
424318
424506
424696
424886
425074
425260
425450
425640
425830
426018
426202
426388
426578
426766
426956
427142
427330
427520
427712
427904
428094
428286
428480
428676
428872
429070
429262
429456
429648
429838
430026
430210
430392
430572
430752
430932
431110
431284
431458
431632
431808
431984
432158
432334
432510
432688
432868
433046
433226
433410
433594
433776
433958
434138
434320
434500
434678
434860
435042
435224
435408
435594
435782
435976
436168
436356
436542
436730
436920
437110
437300
437492
437680
437868
438056
438244
438434
438624
438808
438994
439180
439366
439552
439740
439924
440108
440290
440462
440632
440802
440978
441160
441356
441554
441750
441946
442136
442322
442504
442678
442856
443030
443204
443382
443557
443735
443892
444060
444230
444396
444562
444730
444894
445062
445232
445404
445582
445764
445950
446138
446322
446506
446694
446878
447062
447244
447424
447604
447780
447954
448126
448300
448476
448654
448838
449026
449218
449412
449604
449802
449998
450196
450388
450578
450770
450960
451150
451336
451524
451714
451904
452094
452282
452472
452664
452856
453046
453238
453432
453624
453816
454008
454200
454392
454584
454776
454968
455160
455350
455544
455738
455934
456128
456322
456514
456710
456906
457100
457294
457488
457678
457868
458058
458248
458440
458630
458818
459010
459202
459396
459590
459784
459976
460168
460362
460558
460752
460944
461138
461334
461534
461730
461926
462124
462320
462516
462710
462902
463096
463286
463476
463660
463846
464032
464216
464400
464582
464768
464954
465136
465318
465502
465690
465874
466058
466242
466432
466622
466812
467002
467196
467388
467582
467776
467966
468160
468354
468548
468742
468934
469124
469318
469508
469698
469888
470074
470264
470452
470640
470828
471016
471202
471392
471582
471774
471966
472160
472352
472548
472742
472938
473130
473322
473514
473706
473896
474082
474270
474458
474646
474832
475018
475204
475394
475582
475770
475956
476146
476336
476522
476708
476894
477082
477270
477458
477644
477836
478028
478220
478414
478608
478804
479002
479198
479392
479584
479776
479968
480158
480346
480532
480716
480900
481084
481264
481446
481628
481808
481992
482176
482360
482546
482732
482918
483110
483300
483488
483678
483864
484054
484242
484434
484624
484812
485002
485192
485382
485574
485762
485950
486142
486334
486526
486714
486904
487096
487286
487476
487662
487852
488042
488230
488418
488606
488794
488984
489172
489360
489548
489738
489930
490120
490312
490502
490694
490888
491082
491272
491462
491654
491844
492034
492220
492404
492592
492780
492968
493154
493338
493528
493714
493902
494090
494278
494470
494662
494854
495046
495242
495436
495630
495822
496014
496208
496402
496594
496786
496978
497170
497362
497554
497748
497940
498136
498330
498524
498718
498912
499102
499296
499488
499684
499874
500066
500256
500448
500640
500832
501022
501214
501408
501602
501796
501990
502186
502382
502578
502774
502970
503164
503358
503552
503744
503934
504124
504314
504506
504698
504890
505084
505278
505470
505664
505854
506044
506238
506432
506626
506820
507014
507212
507410
507610
507810
508010
508212
508414
508614
508810
509004
509198
509390
509582
509772
509960
510150
510338
510526
510712
510898
511086
511276
511466
511656
511850
512046
512244
512444
512642
512838
513038
513238
513440
513638
513836
514034
514234
514434
514634
514836
515034
515230
515428
515622
515814
516004
516200
516396
516594
516794
516992
517190
517386
517582
517776
517966
518156
518350
518540
518730
518918
519110
519304
519498
519692
519888
520080
520272
520464
520656
520844
521028
521218
521406
521594
521778
521964
522152
522342
522534
522724
522918
523112
523306
523498
523686
523880
524068
524254
524440
524624
524810
524996
525180
525368
525556
525744
525934
526124
526316
526506
526698
526888
527076
527262
527446
527630
527812
527990
528166
528342
528516
528688
528862
529034
529208
529380
529556
529734
529914
530096
530280
530464
530648
530834
531022
531210
531400
531590
531780
531972
532164
532358
532548
532740
532934
533128
533318
533508
533698
533886
534074
534260
534450
534642
534832
535026
535218
535412
535604
535798
535990
536186
536382
536578
536770
536958
537148
537334
537522
537710
537900
538094
538288
538480
538672
538858
539046
539230
539412
539598
539780
539964
540146
540332
540516
540704
540892
541082
541272
541460
541648
541838
542024
542208
542390
542572
542758
542944
543130
543318
543508
543698
543888
544074
544258
544440
544626
544812
545004
545198
545396
545600
545808
546018
546226
546434
546636
546834
547030
547222
547414
547600
547788
547974
548166
548358
548552
548750
548948
549142
549338
549532
549720
549908
550092
550276
550456
550638
550826
551014
551206
551398
551590
551784
551978
552170
552360
552554
552748
552942
553134
553324
553516
553708
553894
554078
554266
554450
554630
554810
554986
555160
555334
555508
555680
555852
556026
556196
556366
556534
556704
556874
557044
557218
557392
557572
557756
557940
558130
558324
558520
558716
558916
559118
559324
559534
559752
559970
560190
560408
560626
560846
561062
561276
561486
561694
561904
562108
562310
562514
562718
562920
563122
563320
563518
563718
563914
564108
564304
564504
564706
564908
565112
565320
565536
565756
565976
566194
566414
566636
566858
567078
567296
567512
567728
567944
568158
568374
568586
568798
569010
569226
569444
569662
569878
570096
570310
570528
570746
570964
571180
571394
571608
571826
572042
572258
572474
572686
572900
573114
573324
573532
573736
573942
574150
574356
574560
574762
574970
575172
575372
575574
575776
575982
576184
576388
576594
576800
577008
577220
577434
577648
577864
578080
578298
578516
578732
578946
579162
579376
579590
579802
580016
580230
580442
580658
580872
581084
581294
581502
581710
581914
582120
582330
582538
582746
582956
583164
583372
583580
583784
583990
584200
584412
584626
584840
585050
585258
585466
585672
585876
586080
586286
586492
586696
586900
587110
587322
587534
587748
587964
588182
588396
588610
588822
589034
589248
589458
589668
589880
590090
590300
590508
590716
590922
591128
591332
591536
591740
591944
592152
592360
592566
592774
592986
593202
593418
593636
593860
594080
594300
594518
594732
594946
595162
595376
595590
595804
596016
596228
596438
596646
596854
597062
597272
597478
597684
597892
598100
598310
598516
598724
598934
599148
599358
599570
599778
599986
600196
600406
600620
600832
601042
601254
601466
601678
601888
602100
602314
602526
602740
602950
603164
603376
603590
603802
604012
604220
604430
604638
604840
605046
605252
605456
605660
605860
606066
606276
606488
606700
606912
607126
607340
607556
607772
607986
608200
608412
608622
608828
609034
609240
609446
609648
609852
610056
610264
610474
610686
610900
611120
611338
611558
611772
611990
612208
612430
612646
612866
613088
613304
613522
613736
613948
614158
614370
614578
614784
614992
615200
615406
615608
615808
616008
616206
616402
616598
616794
616986
617176
617364
617554
617740
617924
618104
618286
618464
618644
618824
619004
619186
619370
619552
619738
619924
620112
620304
620498
620692
620888
621084
621278
621466
621654
621842
622024
622206
622386
622562
622734
622904
623072
623238
623402
623568
623730
623890
624050
624210
624366
624522
624676
624832
624984
625136
625290
625442
625596
625748
625904
626062
626222
626388
626562
626746
626938
627142
627346
627544
627738
627928
628114
628298
628480
628660
628840
629022
629204
629384
629564
629744
629920
630094
630266
630434
630604
630768
630930
631090
631252
631412
631576
631746
631922
632104
632286
632478
632668
632856
633042
633228
633412
633594
633778
633958
634138
634314
634490
634664
634836
635006
635178
635352
635532
635712
635894
636082
636270
636456
636642
636826
637008
637194
637380
637568
637756
637942
638132
638322
638510
638696
638884
639072
639258
639444
639630
639820
640010
640202
640394
640586
640778
640974
641172
641362
641554
641744
641932
642112
642294
642472
642650
642824
642996
643168
643342
643514
643686
643862
644034
644198
644366
644534
644700
644868
645036
645208
645378
645554
645730
645908
646084
646260
646436
646608
646780
646948
647118
647286
647454
647622
647796
647980
648174
648372
648588
648816
649044
649268
649478
649686
649888
650084
650274
650462
650646
650826
651004
651182
651358
651532
651708
651882
652054
652226
652400
652574
652748
652926
653102
653280
653458
653636
653812
653986
654158
654326
654496
654660
654826
654990
655150
655312
655476
655636
655796
655958
656120
656284
656448
656612
656780
656948
657120
657290
657464
657638
657812
657984
658158
658332
658506
658680
658852
659022
659192
659362
659526
659692
659854
660016
660176
660338
660496
660656
660816
660974
661134
661290
661448
661604
661762
661922
662080
662236
662396
662556
662720
662884
663050
663216
663384
663550
663716
663880
664046
664208
664370
664530
664690
664848
665010
665176
665342
665510
665674
665844
666012
666176
666338
666498
666660
666820
666980
667138
667298
667456
667614
667772
667928
668086
668242
668398
668554
668708
668864
669022
669176
669330
669486
669640
669794
669948
670102
670258
670412
670566
670718
670872
671024
671174
671326
671478
671628
671780
671934
672090
672250
672416
672584
672752
672918
673084
673252
673416
673582
673744
673908
674072
674234
674396
674556
674718
674876
675034
675196
675354
675514
675672
675830
675990
676146
676302
676460
676616
676774
676928
677082
677236
677388
677542
677688
677840
677990
678136
678284
678436
678586
678736
678888
679040
679194
679350
679508
679670
679834
679996
680154
680330
680504
680672
680840
681010
681178
681346
681512
681680
681844
682010
682172
682334
682494
682654
682810
682966
683124
683278
683430
683584
683736
683886
684036
684186
684334
684482
684626
684772
684918
685064
685206
685352
685498
685646
685796
685952
686088
686270
686438
686612
686788
686968
687138
687316
687488
687660
687822
687970
688146
688310
688472
688612
688780
688938
689096
689256
689416
689570
689726
689884
690040
690200
690356
690518
690674
690828
690986
691146
691306
691468
691630
691796
691962
692128
692294
692456
692618
692778
692940
693098
693260
693420
693580
693740
693898
694054
694212
694372
694532
694690
694852
695018
695182
695344
695508
695672
695838
695998
696158
696318
696478
696634
696786
696940
697094
697250
697408
697564
697730
697898
698072
698244
698420
698592
698762
698932
699100
699266
699426
699584
699744
699900
700058
700214
700372
700530
700688
700842
700998
701156
701314
701474
701630
701786
701942
702098
702252
702402
702556
702710
702866
703024
703182
703340
703502
703666
703832
703994
704158
704324
704492
704660
704826
704996
705164
705336
705506
705680
705852
706026
706194
706364
706532
706700
706868
707030
707192
707352
707510
707666
707826
707988
708148
708310
708472
708638
708804
708970
709134
709300
709466
709632
709798
709962
710128
710290
710454
710618
710782
710946
711114
711284
711458
711634
711810
711980
712152
712322
712488
712652
712814
712976
713136
713296
713456
713614
713774
713930
714086
714242
714394
714546
714698
714850
715002
715154
715304
715458
715612
715768
715924
716086
716246
716406
716568
716728
716888
717046
717200
717352
717500
717629
717786
717936
718090
718252
718428
718616
718812
719010
719210
719398
719584
719766
719942
720114
720282
720448
720614
720778
720942
721104
721264
721426
721588
721748
721908
722066
722224
722382
722536
722690
722842
722994
723144
723294
723442
723590
723734
723880
724024
724170
724314
724458
724602
724746
724892
725036
725178
725322
725464
725608
725750
725892
726034
726178
726322
726466
726610
726756
726902
727048
727196
727346
727494
727646
727796
727946
728096
728244
728392
728538
728686
728832
728976
729120
729264
729408
729558
729708
729860
730012
730164
730318
730470
730622
730772
730920
731066
731212
731356
731500
731644
731786
731928
732072
732218
732366
732514
732658
732806
732954
733104
733256
733406
733558
733708
733858
734012
734164
734318
734474
734632
734794
734952
735112
735270
735426
735582
735738
735890
736040
736190
736340
736490
736638
736784
736932
737080
737230
737382
737532
737682
737834
737984
738136
738288
738440
738594
738750
738908
739064
739218
739376
739532
739690
739850
740010
740168
740326
740482
740638
740792
740946
741098
741254
741408
741560
741712
741870
742026
742182
742342
742500
742662
742826
742992
743158
743322
743488
743656
743822
743988
744152
744318
744484
744648
744810
744972
745132
745294
745452
745612
745774
745936
746100
746266
746434
746606
746776
746946
747110
747276
747440
747602
747764
747926
748090
748254
748418
748580
748740
748898
749058
749220
749384
749536
749694
749854
750018
750182
750350
750520
750696
750876
751058
751240
751416
751592
751762
751936
752106
752278
752452
752626
752804
752982
753164
753350
753538
753728
753908
754088
754266
754440
754616
754788
754956
755120
755284
755448
755616
755784
755956
756142
756346
756562
756782
756998
757208
757410
757606
757796
757980
758160
758336
758510
758680
758850
759020
759194
759366
759540
759724
759922
760140
760362
760582
760784
760984
761174
761358
761542
761728
761908
762088
762266
762444
762624
762804
762980
763152
763326
763502
763690
763894
764106
764318
764538
764758
764972
765186
765392
765586
765780
765974
766166
766352
766542
766736
766924
767118
767318
767522
767720
767926
768126
768322
768522
768720
768914
769104
769302
769508
769718
769922
770124
770330
770532
770726
770924
771124
771324
771522
771730
771942
772158
772388
772612
772834
773056
773274
773484
773680
773876
774070
774260
774444
774628
774814
775004
775198
775392
775584
775778
775970
776160
776342
776518
776694
776866
777038
777206
777374
777538
777700
777860
778022
778184
778350
778518
778692
778872
779054
779234
779420
779608
779782
779966
780154
780340
780540
780750
780956
781170
781398
781628
781842
782046
782240
782428
782610
782786
782958
783128
783298
783468
783642
783820
784014
784228
784442
784660
784878
785092
785298
785494
785686
785870
786050
786228
786404
786580
786756
786928
787100
787280
787464
787652
787838
788022
788208
788394
788576
788758
788936
789116
789292
789470
789644
789816
789986
790158
790328
790502
790680
790862
791052
791250
791446
791642
791832
792028
792222
792414
792598
792776
792952
793130
793304
793482
793656
793834
794016
794200
794380
794564
794754
794948
795132
795316
795498
795678
795862
796046
796234
796426
796608
796796
796978
797164
797346
797534
797720
797910
798104
798298
798506
798714
798920
799126
799332
799534
799734
799926
800116
800300
800482
800658
800834
801012
801190
801374
801566
801784
801992
802118
802348
802542
802724
802908
803094
803284
803482
803680
803886
804088
804284
804472
804658
804840
805018
805196
805372
805544
805722
805898
806072
806256
806438
806626
806806
806992
807178
807366
807552
807738
807940
808152
808362
808576
808800
809028
809242
809466
809686
809902
810110
810322
810524
810724
810924
811124
811336
811552
811772
811984
812198
812408
812602
812806
813008
813218
813430
813638
813860
814082
814308
814528
814752
814980
815210
815438
815670
815906
816134
816368
816604
816840
817066
817286
817510
817738
817956
818170
818404
818636
818872
819096
819320
819536
819748
819958
820178
820404
820636
820870
821116
821362
821596
821832
822066
822290
822514
822744
822976
823204
823438
823674
823918
824162
824402
824644
824886
825122
825344
825554
825762
825966
826168
826374
826588
826822
827076
827328
827576
827824
828076
828322
828556
828778
829002
829224
829450
829674
829900
830132
830362
830596
830824
831068
831312
831556
831794
832026
832248
832460
832664
832872
833088
833314
833538
833754
833984
834204
834414
834628
834842
835048
835268
835490
835706
835916
836134
836352
836568
836786
837020
837272
837520
837766
838018
838264
838500
838736
838970
839192
839422
839640
839852
840052
840254
840460
840662
840860
841056
841252
841452
841650
841844
842050
842262
842478
842696
842908
843118
843324
843530
843736
843942
844146
844342
844540
844750
844968
845196
845430
845658
845882
846098
846304
846504
846708
846916
847128
847338
847558
847780
847988
848200
848418
848640
848862
849076
849286
849490
849692
849890
850092
850294
850490
850688
850894
851104
851322
851542
851768
851992
852210
852424
852630
852828
853022
853216
853410
853606
853812
854026
854248
854478
854708
854938
855166
855388
855606
855828
856054
856284
856510
856734
856960
857196
857436
857672
857906
858144
858380
858618
858842
859060
859278
859488
859694
859898
860098
860290
860486
860680
860872
861062
861250
861438
861630
861828
862030
862236
862446
862658
862880
863102
863324
863544
863766
863984
864200
864418
864636
864858
865078
865300
865526
865748
865966
866178
866394
866602
866804
867012
867226
867436
867654
867878
868106
868330
868552
868776
868998
869218
869432
869650
869864
870076
870284
870496
870710
870924
871132
871344
871558
871772
871982
872196
872410
872626
872830
873036
873238
873440
873640
873840
874036
874236
874438
874640
874834
875030
875230
875424
875614
875804
875990
876174
876358
876540
876724
876908
877096
877280
877466
877648
877832
878016
878200
878380
878558
878736
878912
879088
879258
879430
879604
879774
879948
880129
880302
880480
880664
880844
881028
881210
881386
881562
881728
881900
882070
882238
882406
882568
882730
882894
883054
883214
883376
883538
883700
883860
884024
884190
884356
884520
884692
884864
885044
885222
885398
885576
885752
885930
886104
886270
886436
886606
886764
886928
887094
887264
887438
887608
887780
887952
888126
888298
888466
888640
888810
888976
889138
889304
889462
889626
889784
889940
890094
890248
890402
890556
890708
890864
891020
891176
891338
891494
891656
891826
891994
892162
892330
892494
892656
892820
892984
893148
893316
893488
893664
893846
894030
894218
894406
894592
894772
894956
895142
895332
895528
895726
895916
896110
896304
896498
896692
896880
897062
897250
897434
897616
897792
897970
898148
898328
898508
898684
898862
899042
899222
899402
899580
899758
899940
900122
900308
900488
900676
900864
901050
901248
901448
901652
901862
902066
902268
902472
902672
902870
903060
903254
903452
903652
903848
904042
904244
904442
904640
904830
905022
905216
905410
905600
905786
905978
906172
906368
906564
906762
906966
907170
907378
907578
907786
907994
908200
908402
908604
908808
909014
909218
909414
909616
909818
910018
910216
910414
910612
910814
911012
911208
911408
911608
911806
912000
912200
912398
912600
912798
912996
913198
913402
913606
913804
914006
914208
914410
914608
914804
915004
915204
915408
915604
915796
915994
916188
916384
916580
916770
916960
917156
917352
917550
917746
917940
918136
918336
918538
918740
918936
919134
919334
919532
919726
919922
920110
920302
920490
920682
920874
921062
921246
921436
921626
921816
922006
922190
922380
922570
922760
922948
923132
923322
923512
923704
923894
924078
924264
924456
924644
924836
925030
925218
925408
925596
925788
925976
926160
926344
926530
926718
926906
927092
927274
927460
927646
927830
928016
928194
928376
928558
928742
928928
929114
929298
929484
929674
929864
930056
930244
930434
930624
930818
931010
931200
931386
931576
931766
931956
932146
932332
932520
932706
932892
933080
933266
933448
933628
933812
933990
934174
934356
934536
934714
934896
935082
935266
935450
935632
935816
935998
936184
936368
936550
936732
936914
937096
937278
937462
937642
937824
938008
938192
938378
938560
938738
938920
939100
939282
939460
939638
939818
940000
940180
940364
940546
940726
940908
941092
941274
941460
941644
941826
942008
942190
942372
942554
942734
942912
943092
943272
943454
943636
943814
943994
944174
944352
944528
944706
944880
945058
945236
945412
945590
945766
945942
946120
946300
946478
946656
946832
947014
947194
947376
947560
947740
947924
948108
948294
948480
948664
948846
949032
949216
949398
949580
949758
949936
950114
950290
950466
950640
950818
950994
951170
951344
951520
951696
951872
952048
952224
952396
952568
952740
952912
953084
953260
953438
953614
953790
953964
954142
954318
954492
954668
954844
955020
955194
955368
955542
955714
955888
956062
956238
956416
956594
956772
956950
957132
957314
957496
957678
957858
958040
958226
958414
958604
958792
958980
959168
959354
959542
959730
959914
960096
960280
960464
960648
960832
961014
961192
961376
961556
961736
961918
962096
962276
962454
962632
962812
962990
963170
963350
963534
963718
963900
964082
964268
964456
964646
964830
965016
965202
965390
965578
965762
965940
966120
966302
966482
966664
966840
967018
967198
967378
967556
967736
967916
968094
968274
968452
968634
968810
968988
969164
969342
969522
969704
969886
970070
970248
970430
970612
970794
970976
971156
971338
971520
971708
971894
972080
972262
972444
972626
972808
972988
973166
973344
973522
973702
973882
974060
974230
974406
974580
974756
974930
975104
975278
975454
975630
975806
975982
976154
976334
976514
976696
976876
977056
977236
977416
977596
977778
977960
978140
978322
978504
978686
978868
979052
979230
979412
979596
979780
979964
980146
980324
980504
980686
980864
981044
981224
981404
981586
981770
981954
982138
982322
982506
982692
982880
983066
983250
983432
983614
983794
983976
984156
984332
984508
984684
984864
985042
985222
985396
985574
985750
985928
986106
986284
986460
986638
986818
987002
987184
987364
987542
987722
987906
988090
988274
988456
988636
988818
989002
989186
989370
989554
989734
989914
990094
990274
990452
990630
990806
990980
991152
991326
991500
991674
991850
992024
992194
992368
992544
992722
992904
993082
993262
993442
993624
993806
993988
994168
994344
994524
994704
994884
995064
995242
995418
995592
995768
995946
996122
996298
996466
996638
996810
996980
997150
997320
997492
997658
997830
998000
998170
998342
998516
998688
998858
999030
999202
999376
999552
999728
999902
1000074
1000248
1000420
1000596
1000768
1000944
1001118
1001290
1001464
1001640
1001816
1001990
1002164
1002336
1002508
1002678
1002850
1003022
1003192
1003362
1003532
1003704
1003872
1004040
1004206
1004370
1004534
1004702
1004870
1005038
1005210
1005380
1005552
1005726
1005900
1006076
1006250
1006424
1006596
1006768
1006938
1007104
1007270
1007438
1007604
1007772
1007940
1008108
1008276
1008446
1008616
1008786
1008952
1009118
1009286
1009456
1009626
1009796
1009964
1010132
1010302
1010472
1010642
1010812
1010986
1011158
1011332
1011508
1011684
1011858
1012034
1012210
1012380
1012548
1012718
1012886
1013056
1013224
1013388
1013554
1013718
1013882
1014046
1014208
1014370
1014534
1014698
1014862
1015026
1015190
1015354
1015520
1015688
1015858
1016028
1016198
1016370
1016544
1016716
1016890
1017060
1017232
1017404
1017576
1017750
1017922
1018094
1018264
1018438
1018608
1018778
1018950
1019122
1019292
1019464
1019636
1019806
1019978
1020150
1020322
1020488
1020658
1020826
1020996
1021166
1021334
1021500
1021666
1021836
1022004
1022174
1022342
1022510
1022680
1022852
1023024
1023196
1023366
1023534
1023704
1023874
1024046
1024218
1024392
1024564
1024734
1024908
1025082
1025254
1025426
1025594
1025766
1025936
1026110
1026282
1026456
1026630
1026802
1026974
1027146
1027316
1027484
1027650
1027816
1027984
1028148
1028312
1028478
1028646
1028816
1028984
1029156
1029328
1029500
1029670
1029844
1030016
1030188
1030356
1030522
1030692
1030862
1031030
1031200
1031366
1031534
1031700
1031868
1032036
1032200
1032364
1032530
1032698
1032866
1033034
1033204
1033372
1033542
1033710
1033880
1034048
1034220
1034388
1034560
1034730
1034902
1035072
1035242
1035410
1035578
1035748
1035918
1036088
1036260
1036428
1036592
1036758
1036924
1037088
1037252
1037418
1037582
1037746
1037910
1038074
1038236
1038400
1038562
1038722
1038884
1039046
1039212
1039376
1039544
1039714
1039880
1040048
1040216
1040384
1040554
1040722
1040894
1041066
1041236
1041404
1041574
1041740
1041908
1042076
1042242
1042406
1042572
1042738
1042902
1043068
1043232
1043394
1043558
1043720
1043884
1044048
1044212
1044372
1044534
1044696
1044858
1045020
1045180
1045340
1045500
1045660
1045822
1045984
1046148
1046310
1046472
1046634
1046794
1046958
1047120
1047280
1047444
1047606
1047770
1047932
1048096
1048258
1048418
1048580
1048740
1048902
1049062
1049224
1049382
1049542
1049702
1049862
1050020
1050176
1050334
1050490
1050648
1050808
1050970
1051130
1051290
1051452
1051614
1051776
1051940
1052102
1052262
1052426
1052588
1052750
1052910
1053072
1053230
1053390
1053548
1053704
1053862
1054020
1054172
1054328
1054482
1054636
1054788
1054942
1055094
1055244
1055398
1055550
1055706
1055864
1056020
1056176
1056334
1056494
1056654
1056814
1056976
1057134
1057298
1057460
1057624
1057788
1057950
1058112
1058274
1058436
1058596
1058758
1058918
1059076
1059232
1059390
1059546
1059702
1059856
1060012
1060166
1060320
1060474
1060628
1060786
1060942
1061096
1061252
1061406
1061560
1061716
1061870
1062028
1062180
1062336
1062492
1062650
1062808
1062966
1063124
1063280
1063438
1063596
1063754
1063912
1064066
1064220
1064380
1064536
1064694
1064850
1065004
1065160
1065316
1065472
1065630
1065790
1065946
1066102
1066256
1066412
1066568
1066722
1066876
1067028
1067178
1067332
1067486
1067642
1067796
1067950
1068102
1068258
1068414
1068570
1068726
1068882
1069040
1069196
1069356
1069514
1069672
1069834
1069994
1070154
1070312
1070472
1070632
1070790
1070948
1071104
1071264
1071422
1071580
1071740
1071902
1072062
1072220
1072380
1072540
1072698
1072858
1073014
1073170
1073324
1073478
1073632
1073784
1073934
1074088
1074240
1074392
1074542
1074692
1074840
1074988
1075138
1075286
1075432
1075580
1075728
1075874
1076018
1076164
1076310
1076456
1076598
1076742
1076886
1077026
1077168
1077312
1077456
1077600
1077742
1077884
1078026
1078172
1078316
1078462
1078610
1078756
1078902
1079048
1079200
1079350
1079500
1079650
1079804
1079958
1080108
1080260
1080416
1080570
1080724
1080882
1081038
1081194
1081350
1081502
1081660
1081816
1081970
1082126
1082282
1082436
1082588
1082742
1082896
1083048
1083200
1083350
1083502
1083650
1083800
1083952
1084102
1084252
1084402
1084548
1084694
1084844
1084990
1085138
1085286
1085432
1085578
1085730
1085880
1086032
1086184
1086336
1086488
1086642
1086796
1086950
1087106
1087262
1087420
1087574
1087730
1087886
1088044
1088202
1088358
1088514
1088666
1088822
1088980
1089134
1089286
1089440
1089592
1089744
1089898
1090050
1090202
1090354
1090506
1090656
1090810
1090964
1091118
1091272
1091428
1091584
1091736
1091892
1092048
1092204
1092360
1092514
1092668
1092822
1092978
1093130
1093282
1093432
1093584
1093736
1093888
1094044
1094196
1094346
1094502
1094656
1094812
1094966
1095118
1095274
1095428
1095582
1095736
1095888
1096038
1096192
1096346
1096500
1096654
1096806
1096960
1097116
1097272
1097430
1097586
1097738
1097896
1098052
1098208
1098364
1098516
1098672
1098830
1098986
1099144
1099300
1099454
1099606
1099764
1099918
1100070
1100222
1100372
1100520
1100672
1100822
1100972
1101120
1101266
1101416
1101566
1101714
1101862
1102010
1102158
1102306
1102456
1102604
1102754
1102904
1103052
1103204
1103356
1103506
1103660
1103810
1103962
1104118
1104272
1104426
1104582
1104738
1104892
1105050
1105206
1105364
1105522
1105680
1105838
1105996
1106154
1106310
1106468
1106622
1106776
1106932
1107088
1107242
1107398
1107552
1107702
1107856
1108008
1108160
1108312
1108462
1108614
1108764
1108916
1109066
1109218
1109370
1109522
1109674
1109826
1109980
1110134
1110288
1110444
1110598
1110754
1110908
1111064
1111220
1111376
1111526
1111680
1111834
1111988
1112140
1112292
1112440
1112590
1112742
1112892
1113042
1113192
1113338
1113484
1113634
1113784
1113934
1114084
1114232
1114384
1114536
1114688
1114840
1114992
1115142
1115292
1115446
1115602
1115754
1115908
1116062
1116214
1116370
1116524
1116678
1116832
1116984
1117136
1117288
1117440
1117594
1117748
1117900
1118052
1118202
1118354
1118508
1118662
1118814
1118966
1119118
1119270
1119424
1119578
1119732
1119888
1120040
1120196
1120352
1120510
1120666
1120822
1120980
1121138
1121296
1121454
1121612
1121772
1121932
1122088
1122248
1122406
1122564
1122722
1122880
1123034
1123188
1123342
1123496
1123650
1123804
1123954
1124104
1124258
1124410
1124562
1124714
1124862
1125014
1125166
1125318
1125472
1125628
1125782
1125934
1126092
1126250
1126406
1126564
1126720
1126876
1127032
1127192
1127350
1127508
1127668
1127828
1127986
1128144
1128302
1128464
1128624
1128782
1128940
1129098
1129256
1129412
1129568
1129722
1129876
1130028
1130184
1130340
1130494
1130648
1130802
1130952
1131104
1131256
1131406
1131556
1131706
1131856
1132010
1132160
1132312
1132466
1132620
1132774
1132926
1133080
1133234
1133388
1133544
1133694
1133848
1134004
1134158
1134314
1134470
1134624
1134776
1134932
1135086
1135240
1135396
1135548
1135700
1135856
1136012
1136166
1136320
1136474
1136628
1136780
1136936
1137090
1137244
1137400
1137552
1137708
1137862
1138016
1138172
1138326
1138478
1138634
1138788
1138944
1139098
1139250
1139404
1139498
1139579
1139655
1139731
1139804
1139874
1140034
1140178
1140328
1140480
1140632
1140784
1140936
1141088
1141240
1141392
1141544
1141688
1141852
1142006
1142160
1142314
1142470
1142626
1142780
1142934
1143090
1143246
1143404
1143560
1143718
1143874
1144030
1144188
1144346
1144504
1144660
1144816
1144972
1145130
1145288
1145448
1145608
1145768
1145926
1146084
1146244
1146402
1146560
1146714
1146872
1147026
1147182
1147336
1147490
1147640
1147794
1147948
1148100
1148254
1148404
1148552
1148704
1148856
1149010
1149164
1149320
1149474
1149628
1149786
1149944
1150104
1150266
1150430
1150590
1150752
1150914
1151074
1151236
1151394
1151554
1151712
1151870
1152028
1152184
1152340
1152494
1152646
1152800
1152954
1153108
1153264
1153416
1153568
1153724
1153880
1154036
1154192
1154346
1154498
1154654
1154810
1154966
1155124
1155282
1155440
1155598
1155756
1155914
1156072
1156228
1156384
1156542
1156698
1156854
1157010
1157164
1157318
1157464
1157626
1157780
1157900
1158086
1158238
1158390
1158542
1158694
1158848
1158930
1159152
1159306
1159460
1159612
1159762
1159912
1160066
1160220
1160376
1160536
1160692
1160848
1161006
1161166
1161324
1161480
1161636
1161792
1161948
1162106
1162262
1162418
1162574
1162730
1162884
1163038
1163194
1163346
1163502
1163654
1163808
1163962
1164116
1164268
1164420
1164572
1164724
1164878
1165034
1165188
1165344
1165500
1165654
1165810
1165966
1166120
1166276
1166430
1166586
1166742
1166900
1167058
1167216
1167374
1167530
1167692
1167852
1168014
1168174
1168336
1168498
1168662
1168822
1168984
1169144
1169304
1169464
1169622
1169776
1169932
1170088
1170242
1170396
1170546
1170698
1170848
1170996
1171146
1171296
1171444
1171594
1171746
1171898
1172048
1172200
1172354
1172508
1172662
1172818
1172974
1173130
1173286
1173446
1173608
1173768
1173928
1174088
1174244
1174406
1174564
1174724
1174882
1175040
1175200
1175360
1175520
1175678
1175836
1175992
1176148
1176304
1176458
1176614
1176770
1176922
1177076
1177230
1177384
1177538
1177688
1177842
1177994
1178148
1178304
1178458
1178610
1178764
1178918
1179072
1179228
1179382
1179534
1179690
1179846
1180002
1180162
1180318
1180474
1180630
1180786
1180942
1181098
1181254
1181408
1181564
1181722
1181878
1182034
1182190
1182344
1182500
1182654
1182808
1182960
1183112
1183266
1183422
1183578
1183732
1183888
1184040
1184198
1184354
1184510
1184668
1184824
1184978
1185136
1185294
1185450
1185608
1185762
1185916
1186072
1186226
1186382
1186536
1186690
1186842
1186996
1187148
1187302
1187456
1187608
1187758
1187910
1188064
1188218
1188372
1188528
1188680
1188834
1188988
1189144
1189300
1189454
1189610
1189764
1189916
1190074
1190230
1190386
1190542
1190698
1190856
1191012
1191168
1191322
1191478
1191636
1191792
1191950
1192106
1192264
1192420
1192578
1192736
1192892
1193052
1193210
1193368
1193526
1193680
1193836
1193992
1194146
1194300
1194454
1194608
1194762
1194916
1195070
1195224
1195378
1195532
1195688
1195840
1195996
1196150
1196306
1196464
1196620
1196778
1196938
1197096
1197256
1197414
1197572
1197728
1197886
1198044
1198202
1198356
1198512
1198668
1198822
1198978
1199128
1199280
1199432
1199584
1199736
1199888
1200038
1200188
1200338
1200488
1200636
1200786
1200938
1201090
1201244
1201398
1201554
1201710
1201866
1202026
1202184
1202344
1202504
1202662
1202822
1202982
1203144
1203304
1203460
1203620
1203778
1203936
1204090
1204244
1204400
1204554
1204710
1204866
1205020
1205176
1205330
1205484
1205638
1205792
1205946
1206102
1206260
1206416
1206572
1206728
1206884
1207042
1207200
1207358
1207514
1207668
1207826
1207986
1208146
1208304
1208460
1208620
1208780
1208940
1209100
1209260
1209420
1209582
1209744
1209904
1210064
1210222
1210378
1210534
1210686
1210838
1210988
1211138
1211290
1211442
1211594
1211746
1211898
1212050
1212206
1212360
1212514
1212668
1212824
1212984
1213142
1213302
1213458
1213616
1213776
1213936
1214094
1214254
1214412
1214570
1214730
1214890
1215048
1215206
1215360
1215516
1215672
1215824
1215978
1216130
1216282
1216436
1216588
1216742
1216894
1217048
1217202
1217356
1217512
1217668
1217824
1217982
1218140
1218300
1218458
1218618
1218776
1218936
1219094
1219254
1219414
1219576
1219736
1219896
1220056
1220218
1220380
1220542
1220704
1220862
1221024
1221186
1221348
1221508
1221670
1221828
1221988
1222148
1222306
1222464
1222622
1222780
1222938
1223094
1223250
1223406
1223562
1223716
1223870
1224024
1224180
1224336
1224492
1224650
1224806
1224964
1225124
1225280
1225436
1225592
1225748
1225906
1226064
1226220
1226376
1226534
1226692
1226850
1227008
1227166
1227322
1227480
1227636
1227794
1227952
1228106
1228262
1228422
1228578
1228736
1228892
1229050
1229206
1229364
1229522
1229678
1229834
1229994
1230154
1230312
1230470
1230628
1230786
1230946
1231106
1231268
1231428
1231590
1231748
1231908
1232070
1232228
1232388
1232548
1232706
1232864
1233024
1233182
1233340
1233498
1233654
1233810
1233968
1234126
1234282
1234438
1234594
1234750
1234906
1235064
1235220
1235376
1235532
1235690
1235846
1236004
1236164
1236324
1236482
1236640
1236800
1236958
1237116
1237274
1237432
1237592
1237752
1237914
1238072
1238230
1238392
1238552
1238712
1238870
1239028
1239184
1239342
1239500
1239656
1239812
1239968
1240120
1240276
1240428
1240580
1240734
1240884
1241036
1241190
1241342
1241494
1241648
1241800
1241952
1242104
1242258
1242410
1242560
1242716
1242870
1243024
1243178
1243332
1243490
1243648
1243806
1243964
1244124
1244282
1244444
1244604
1244766
1244926
1245086
1245244
1245400
1245556
1245714
1245868
1246024
1246180
1246338
1246492
1246648
1246800
1246954
1247108
1247260
1247412
1247564
1247716
1247866
1248014
1248162
1248312
1248460
1248610
1248760
1248908
1249060
1249210
1249358
1249494
1249652
1249800
1249946
1250092
1250236
1250380
1250524
1250666
1250808
1250950
1251090
1251230
1251370
1251510
1251650
1251788
1251928
1252066
1252204
1252344
1252484
1252624
1252766
1252908
1253050
1253194
1253338
1253482
1253628
1253774
1253922
1254070
1254218
1254368
1254518
1254668
1254820
1254970
1255120
1255272
1255424
1255576
1255730
1255882
1256038
1256196
1256352
1256512
1256674
1256834
1256998
1257160
1257324
1257488
1257652
1257818
1257984
1258148
1258312
1258476
1258642
1258806
1258972
1259138
1259306
1259474
1259640
1259810
1259978
1260146
1260316
1260486
1260656
1260826
1260996
1261166
1261336
1261506
1261674
1261842
1262008
1262172
1262336
1262500
1262662
1262824
1262988
1263154
1263318
1263486
1263652
1263818
1263984
1264148
1264314
1264480
1264646
1264810
1264978
1265144
1265310
1265476
1265640
1265808
1265976
1266144
1266312
1266480
1266648
1266816
1266982
1267148
1267314
1267480
1267646
1267812
1267978
1268146
1268314
1268480
1268648
1268812
1268978
1269142
1269306
1269468
1269630
1269794
1269958
1270120
1270282
1270444
1270606
1270768
1270934
1271096
1271260
1271424
1271588
1271752
1271916
1272078
1272242
1272406
1272572
1272738
1272904
1273072
1273238
1273406
1273574
1273744
1273914
1274080
1274248
1274414
1274584
1274754
1274924
1275094
1275266
1275436
1275606
1275778
1275948
1276118
1276286
1276454
1276622
1276790
1276956
1277120
1277286
1277452
1277620
1277788
1277954
1278120
1278286
1278454
1278622
1278786
1278950
1279114
1279278
1279442
1279604
1279766
1279926
1280086
1280244
1280402
1280560
1280718
1280876
1281036
1281194
1281354
1281514
1281676
1281838
1282002
1282168
1282334
1282502
1282674
1282846
1283020
1283194
1283368
1283540
1283714
1283884
1284058
1284230
1284402
1284576
1284748
1284920
1285092
1285260
1285430
1285600
1285770
1285940
1286108
1286276
1286444
1286610
1286774
1286936
1287098
1287258
1287420
1287582
1287742
1287904
1288066
1288228
1288392
1288554
1288714
1288876
1289036
1289198
1289362
1289522
1289684
1289844
1290006
1290164
1290322
1290480
1290638
1290798
1290963
1291116
1291268
1291424
1291580
1291732
1291886
1292040
1292196
1292352
1292508
1292662
1292820
1292976
1293130
1293284
1293436
1293588
1293738
1293888
1294040
1294190
1294338
1294486
1294632
1294780
1294926
1295072
1295214
1295358
1295502
1295644
1295784
1295926
1296066
1296206
1296346
1296484
1296620
1296756
1296894
1297030
1297166
1297302
1297440
1297574
1297712
1297852
1297990
1298132
1298274
1298418
1298560
1298702
1298844
1298986
1299128
1299270
1299412
1299556
1299698
1299842
1299986
1300130
1300272
1300416
1300560
1300704
1300848
1300992
1301138
1301280
1301422
1301566
1301708
1301852
1301992
1302132
1302274
1302414
1302554
1302694
1302834
1302972
1303110
1303248
1303384
1303522
1303658
1303794
1303930
1304068
1304204
1304340
1304476
1304612
1304748
1304884
1305020
1305154
1305290
1305426
1305560
1305696
1305830
1305968
1306108
1306252
1306394
1306542
1306692
1306846
1307000
1307154
1307310
1307466
1307622
1307778
1307934
1308086
1308236
1308386
1308534
1308684
1308832
1308978
1309124
1309270
1309414
1309558
1309700
1309842
1309980
1310120
1310258
1310394
1310532
1310666
1310802
1310938
1311072
1311208
1311342
1311478
1311612
1311748
1311882
1312018
1312154
1312292
1312428
1312566
1312706
1312846
1312984
1313122
1313262
1313398
1313536
1313672
1313806
1313942
1314078
1314214
1314348
1314482
1314616
1314748
1314880
1315010
1315142
1315272
1315402
1315534
1315664
1315796
1315936
1316080
1316238
1316402
1316574
1316748
1316920
1317088
1317252
1317410
1317570
1317726
1317882
1318034
1318184
1318334
1318482
1318628
1318772
1318918
1319062
1319206
1319348
1319490
1319628
1319768
1319904
1320040
1320176
1320312
1320446
1320580
1320712
1320844
1320976
1321108
1321238
1321368
1321498
1321628
1321758
1321886
1322014
1322144
1322274
1322404
1322534
1322664
1322794
1322924
1323054
1323186
1323314
1323444
1323576
1323710
1323846
1323984
1324124
1324262
1324402
1324542
1324684
1324822
1324962
1325100
1325238
1325376
1325512
1325650
1325786
1325922
1326058
1326190
1326324
1326456
1326588
1326720
1326850
1326982
1327112
1327244
1327374
1327506
1327634
1327764
1327892
1328022
1328148
1328276
1328402
1328530
1328658
1328784
1328912
1329038
1329166
1329292
1329420
1329548
1329678
1329806
1329932
1330062
1330192
1330322
1330452
1330584
1330716
1330846
1330976
1331106
1331236
1331366
1331496
1331626
1331756
1331884
1332014
1332146
1332278
1332408
1332540
1332670
1332802
1332934
1333066
1333194
1333324
1333454
1333582
1333712
1333842
1333972
1334102
1334232
1334362
1334494
1334624
1334754
1334886
1335018
1335150
1335282
1335412
1335546
1335678
1335810
1335940
1336072
1336200
1336330
1336460
1336590
1336718
1336846
1336974
1337104
1337234
1337364
1337492
1337624
1337754
1337888
1338026
1338166
1338310
1338448
1338604
1338752
1338902
1339052
1339200
1339348
1339494
1339640
1339784
1339926
1340070
1340214
1340356
1340500
1340644
1340786
1340926
1341068
1341210
1341348
1341488
1341624
1341764
1341902
1342042
1342180
1342316
1342452
1342586
1342720
1342854
1342988
1343118
1343248
1343378
1343508
1343636
1343766
1343892
1344020
1344146
1344272
1344400
1344526
1344652
1344778
1344902
1345028
1345152
1345278
1345404
1345532
1345658
1345784
1345912
1346040
1346168
1346298
1346426
1346554
1346684
1346814
1346944
1347074
1347206
1347336
1347466
1347598
1347728
1347858
1347992
1348124
1348254
1348386
1348518
1348652
1348786
1348920
1349054
1349188
1349320
1349452
1349586
1349716
1349850
1349980
1350110
1350242
1350372
1350504
1350632
1350760
1350890
1351018
1351148
1351276
1351402
1351530
1351656
1351784
1351912
1352040
1352168
1352296
1352424
1352552
1352678
1352806
1352932
1353058
1353184
1353312
1353440
1353570
1353698
1353828
1353954
1354084
1354212
1354340
1354468
1354596
1354724
1354850
1354976
1355104
1355232
1355360
1355486
1355612
1355740
1355866
1355994
1356122
1356248
1356376
1356502
1356628
1356754
1356884
1357012
1357140
1357268
1357394
1357522
1357650
1357780
1357908
1358036
1358164
1358292
1358422
1358550
1358680
1358810
1358940
1359070
1359200
1359330
1359460
1359590
1359720
1359850
1359980
1360108
1360238
1360368
1360496
1360624
1360752
1360882
1361008
1361138
1361264
1361390
1361516
1361642
1361768
1361894
1362020
1362148
1362274
1362400
1362526
1362652
1362778
1362904
1363030
1363156
1363282
1363412
1363540
1363672
1363800
1363930
1364060
1364192
1364322
1364454
1364586
1364716
1364846
1364976
1365108
1365240
1365368
1365496
1365624
1365754
1365882
1366008
1366138
1366264
1366390
1366516
1366642
1366770
1366896
1367022
1367148
1367272
1367398
1367522
1367646
1367770
1367894
1368016
1368140
1368262
1368388
1368512
1368636
1368760
1368886
1369010
1369134
1369260
1369386
1369512
1369636
1369762
1369888
1370016
1370144
1370270
1370398
1370524
1370652
1370778
1370904
1371032
1371160
1371286
1371414
1371542
1371670
1371800
1371928
1372058
1372186
1372314
1372440
1372568
1372692
1372818
1372940
1373064
1373188
1373312
1373436
1373560
1373684
1373806
1373930
1374054
1374176
1374300
1374422
1374544
1374666
1374786
1374910
1375034
1375156
1375278
1375400
1375522
1375646
1375770
1375894
1376018
1376142
1376268
1376392
1376518
1376646
1376772
1376900
1377026
1377154
1377280
1377408
1377534
1377660
1377786
1377910
1378034
1378160
1378282
1378406
1378530
1378654
1378778
1378900
1379022
1379144
1379266
1379390
1379514
1379634
1379758
1379882
1380006
1380130
1380254
1380378
1380502
1380626
1380750
1380876
1381000
1381124
1381248
1381372
1381496
1381620
1381744
1381870
1381994
1382116
1382240
1382364
1382488
1382610
1382734
1382856
1382980
1383104
1383226
1383350
1383472
1383596
1383718
1383840
1383962
1384084
1384206
1384328
1384450
1384570
1384692
1384814
1384936
1385058
1385180
1385302
1385424
1385546
1385670
1385794
1385916
1386038
1386160
1386284
1386408
1386532
1386656
1386780
1386906
1387028
1387152
1387278
1387404
1387528
1387654
1387778
1387902
1388026
1388150
1388274
1388400
1388524
1388648
1388772
1388896
1389022
1389146
1389270
1389394
1389516
1389640
1389764
1389888
1390012
1390134
1390258
1390380
1390502
1390624
1390748
1390870
1390990
1391112
1391234
1391356
1391476
1391598
1391720
1391844
1391966
1392090
1392212
1392336
1392460
1392584
1392708
1392834
1392958
1393086
1393212
1393340
1393468
1393596
1393724
1393854
1393984
1394114
1394244
1394372
1394500
1394630
1394760
1394888
1395016
1395144
1395270
1395398
1395524
1395652
1395776
1395902
1396024
1396150
1396274
1396398
1396522
1396648
1396776
1396904
1397034
1397166
1397304
1397440
1397578
1397716
1397854
1397990
1398130
1398268
1398406
1398542
1398676
1398814
1398948
1399084
1399220
1399352
1399486
1399618
1399750
1399882
1400014
1400144
1400274
1400404
1400534
1400664
1400792
1400920
1401048
1401176
1401302
1401428
1401556
1401682
1401808
1401934
1402060
1402186
1402316
1402446
1402578
1402712
1402846
1402984
1403122
1403260
1403398
1403538
1403678
1403816
1403956
1404094
1404230
1404366
1404502
1404638
1404772
1404906
1405040
1405172
1405302
1405436
1405568
1405698
1405828
1405960
1406092
1406226
1406360
1406498
1406638
1406776
1406916
1407058
1407198
1407338
1407478
1407614
1407752
1407890
1408026
1408162
1408298
1408432
1408566
1408702
1408834
1408968
1409102
1409234
1409368
1409502
1409636
1409768
1409902
1410036
1410172
1410304
1410438
1410572
1410706
1410840
1410974
1411106
1411238
1411370
1411502
1411634
1411764
1411896
1412024
1412154
1412282
1412410
1412538
1412664
1412790
1412916
1413042
1413166
1413290
1413416
1413540
1413666
1413790
1413914
1414038
1414160
1414284
1414408
1414530
1414652
1414776
1414900
1415026
1415150
1415276
1415402
1415528
1415656
1415784
1415912
1416040
1416168
1416296
1416424
1416552
1416682
1416812
1416940
1417068
1417196
1417326
1417454
1417582
1417712
1417840
1417968
1418098
1418228
1418360
1418492
1418624
1418754
1418884
1419014
1419142
1419272
1419400
1419528
1419658
1419784
1419914
1420042
1420170
1420302
1420430
1420560
1420690
1420818
1420948
1421076
1421204
1421334
1421462
1421592
1421720
1421850
1421978
1422108
1422236
1422368
1422496
1422627
1422754
1422884
1423014
1423144
1423274
1423406
1423538
1423670
1423806
1423942
1424078
1424218
1424358
1424496
1424636
1424774
1424916
1425058
1425200
1425344
1425486
1425630
1425772
1425916
1426058
1426200
1426344
1426486
1426628
1426770
1426912
1427054
1427194
1427338
1427478
1427620
1427764
1427908
1428052
1428196
1428340
1428484
1428632
1428776
1428922
1429068
1429212
1429354
1429496
1429638
1429780
1429922
1430064
1430204
1430346
1430488
1430630
1430774
1430918
1431064
1431212
1431364
1431514
1431668
1431822
1431976
1432130
1432286
1432442
1432600
1432758
1432916
1433078
1433238
1433396
1433556
1433714
1433874
1434032
1434188
1434346
1434502
1434658
1434816
1434974
1435132
1435288
1435444
1435602
1435756
1435908
1436060
1436212
1436364
1436516
1436668
1436818
1436968
1437120
1437272
1437424
1437574
1437728
1437880
1438034
1438190
1438344
1438502
1438658
1438816
1438974
1439132
1439290
1439448
1439608
1439768
1439928
1440086
1440246
1440406
1440568
1440728
1440886
1441044
1441204
1441362
1441522
1441680
1441840
1441998
1442154
1442312
1442470
1442624
1442780
1442936
1443094
1443252
1443408
1443562
1443718
1443874
1444028
1444182
1444338
1444492
1444648
1444804
1444962
1445120
1445276
1445432
1445590
1445746
1445902
1446056
1446210
1446368
1446524
1446680
1446836
1446992
1447146
1447302
1447460
1447616
1447772
1447930
1448088
1448246
1448406
1448564
1448722
1448880
1449038
1449194
1449350
1449506
1449662
1449820
1449978
1450136
1450296
1450456
1450614
1450774
1450936
1451096
1451258
1451422
1451584
1451746
1451906
1452066
1452228
1452388
1452548
1452706
1452866
1453026
1453184
1453342
1453498
1453654
1453808
1453962
1454116
1454268
1454420
1454576
1454732
1454886
1455040
1455194
1455350
1455506
1455660
1455816
1455972
1456130
1456288
1456446
1456604
1456762
1456920
1457082
1457240
1457400
1457558
1457718
1457876
1458036
1458194
1458352
1458508
1458664
1458820
1458976
1459130
1459284
1459438
1459592
1459746
1459900
1460054
1460208
1460362
1460516
1460668
1460820
1460972
1461124
1461276
1461428
1461580
1461732
1461886
1462040
1462196
1462350
1462504
1462660
1462818
1462974
1463132
1463288
1463446
1463604
1463762
1463920
1464076
1464232
1464388
1464546
1464704
1464862
1465018
1465176
1465334
1465492
1465650
1465806
1465962
1466120
1466276
1466432
1466588
1466742
1466898
1467054
1467208
1467362
1467516
1467672
1467828
1467982
1468138
1468294
1468450
1468608
1468764
1468922
1469078
1469234
1469392
1469552
1469710
1469868
1470028
1470188
1470348
1470506
1470664
1470820
1470978
1471134
1471290
1471446
1471598
1471754
1471910
1472066
1472222
1472376
1472534
1472692
1472850
1473006
1473164
1473324
1473482
1473640
1473800
1473960
1474122
1474284
1474448
1474612
1474774
1474936
1475100
1475262
1475426
1475588
1475750
1475912
1476074
1476234
1476392
1476548
1476704
1476860
1477012
1477166
1477316
1477470
1477622
1477776
1477930
1478084
1478236
1478392
1478548
1478704
1478860
1479016
1479174
1479336
1479496
1479658
1479820
1479984
1480148
1480312
1480476
1480638
1480802
1480964
1481126
1481286
1481446
1481606
1481764
1481922
1482080
1482236
1482396
1482554
1482714
1482872
1483032
1483194
1483354
1483514
1483676
1483836
1483994
1484156
1484318
1484478
1484638
1484796
1484956
1485114
1485272
1485428
1485584
1485740
1485898
1486056
1486214
1486370
1486528
1486686
1486844
1487002
1487160
1487320
1487478
1487638
1487798
1487958
1488116
1488276
1488436
1488596
1488754
1488914
1489074
1489236
1489400
1489562
1489726
1489888
1490050
1490212
1490372
1490530
1490690
1490848
1491008
1491168
1491326
1491486
1491648
1491808
1491972
1492134
1492296
1492460
1492624
1492788
1492950
1493112
1493272
1493432
1493592
1493748
1493906
1494066
1494222
1494378
1494534
1494688
1494840
1494994
1495144
1495292
1495440
1495588
1495736
1495886
1496034
1496184
1496334
1496484
1496638
1496792
1496946
1497100
1497258
1497416
1497576
1497738
1497900
1498062
1498228
1498392
1498558
1498722
1498888
1499056
1499222
1499388
1499552
1499716
1499878
1500040
1500200
1500360
1500520
1500680
1500840
1501000
1501158
1501316
1501476
1501634
1501792
1501950
1502106
1502264
1502426
1502586
1502748
1502910
1503072
1503234
1503396
1503556
1503714
1503874
1504032
1504192
1504350
1504506
1504662
1504818
1504974
1505130
1505284
1505440
1505594
1505752
1505908
1506062
1506218
1506376
1506534
1506692
1506850
1507008
1507164
1507320
1507474
1507630
1507784
1507940
1508096
1508254
1508410
1508566
1508726
1508888
1509050
1509216
1509378
1509542
1509702
1509864
1510024
1510182
1510338
1510494
1510652
1510808
1510964
1511118
1511274
1511430
1511584
1511738
1511892
1512046
1512202
1512358
1512516
1512672
1512828
1512984
1513142
1513296
1513452
1513608
1513766
1513922
1514080
1514238
1514398
1514558
1514720
1514878
1515038
1515196
1515354
1515514
1515674
1515834
1515992
1516152
1516312
1516470
1516628
1516786
1516944
1517102
1517262
1517420
1517578
1517736
1517892
1518050
1518204
1518358
1518514
1518668
1518826
1518984
1519144
1519304
1519466
1519630
1519792
1519958
1520120
1520282
1520446
1520608
1520768
1520928
1521086
1521246
1521406
1521564
1521722
1521880
1522038
1522196
1522356
1522516
1522676
1522838
1522998
1523156
1523316
1523474
1523632
1523786
1523942
1524098
1524252
1524406
1524560
1524714
1524866
1525020
1525172
1525324
1525478
1525630
1525782
1525934
1526088
1526242
1526394
1526550
1526704
1526858
1527016
1527172
1527330
1527488
1527648
1527810
1527970
1528130
1528290
1528448
1528606
1528764
1528922
1529078
1529234
1529390
1529546
1529702
1529856
1530010
1530164
1530318
1530472
1530626
1530780
1530936
1531090
1531248
1531404
1531562
1531718
1531874
1532028
1532184
1532340
1532498
1532654
1532810
1532966
1533122
1533280
1533438
1533594
1533750
1533906
1534064
1534218
1534372
1534526
1534676
1534828
1534980
1535132
1535282
1535430
1535580
1535730
1535882
1536034
1536188
1536344
1536502
1536664
1536824
1536988
1537150
1537314
1537482
1537648
1537814
1537980
1538144
1538310
1538472
1538636
1538800
1538964
1539126
1539290
1539454
1539616
1539780
1539940
1540102
1540262
1540420
1540574
1540730
1540884
1541038
1541190
1541342
1541494
1541646
1541798
1541952
1542108
1542264
1542422
1542580
1542740
1542902
1543066
1543230
1543394
1543560
1543724
1543890
1544056
1544218
1544382
1544542
1544702
1544862
1545024
1545188
1545350
1545512
1545676
1545838
1546002
1546164
1546324
1546484
1546646
1546804
1546962
1547120
1547278
1547436
1547590
1547746
1547900
1548054
1548210
1548364
1548522
1548680
1548840
1549002
1549164
1549330
1549494
1549660
1549824
1549988
1550152
1550316
1550476
1550636
1550796
1550958
1551116
1551276
1551434
1551592
1551750
1551908
1552068
1552224
1552382
1552540
1552694
1552852
1553008
1553162
1553316
1553468
1553618
1553770
1553920
1554070
1554218
1554364
1554510
1554654
1554798
1554942
1555084
1555226
1555368
1555510
1555654
1555796
1555940
1556082
1556224
1556368
1556512
1556654
1556792
1556930
1557070
1557208
1557352
1557490
1557628
1557766
1557908
1558052
1558194
1558336
1558478
1558622
1558764
1558908
1559050
1559192
1559334
1559476
1559618
1559762
1559908
1560052
1560198
1560346
1560494
1560644
1560792
1560942
1561092
1561240
1561386
1561534
1561680
1561824
1561968
1562110
1562256
1562396
1562540
1562680
1562820
1562960
1563098
1563236
1563372
1563510
1563646
1563784
1563920
1564054
1564190
1564324
1564458
1564592
1564724
1564856
1564988
1565118
1565250
1565380
1565512
1565644
1565774
1565906
1566038
1566168
1566300
1566432
1566562
1566692
1566822
1566952
1567084
1567216
1567348
1567478
1567608
1567740
1567872
1568002
1568134
1568264
1568394
1568524
1568654
1568784
1568912
1569040
1569168
1569294
1569422
1569548
1569674
1569798
1569924
1570048
1570172
1570296
1570420
1570544
1570668
1570790
1570912
1571036
1571158
1571280
1571402
1571524
1571644
1571764
1571886
1572008
1572130
1572250
1572370
1572492
1572612
1572736
1572858
1572982
1573106
1573232
1573360
1573490
1573622
1573756
1573890
1574026
1574162
1574298
1574436
1574574
1574710
1574846
1574980
1575114
1575250
1575384
1575518
1575650
1575782
1575914
1576044
1576176
1576306
1576434
1576562
1576690
1576818
1576946
1577074
1577200
1577326
1577452
1577576
1577702
1577826
1577952
1578076
1578198
1578322
1578444
1578568
1578690
1578814
1578934
1579056
1579178
1579300
1579420
1579542
1579664
1579784
1579904
1580024
1580146
1580268
1580390
1580512
1580634
1580756
1580876
1580996
1581118
1581238
1581358
1581478
1581598
1581718
1581838
1581958
1582076
1582196
1582316
1582434
1582554
1582674
1582794
1582912
1583032
1583152
1583272
1583392
1583512
1583632
1583752
1583872
1583992
1584112
1584232
1584352
1584472
1584590
1584710
1584828
1584946
1585066
1585186
1585304
1585424
1585544
1585662
1585782
1585900
1586020
1586138
1586256
1586372
1586488
1586606
1586724
1586840
1586958
1587076
1587194
1587310
1587428
1587546
1587664
1587780
1587898
1588014
1588130
1588246
1588362
1588480
1588596
1588714
1588830
1588948
1589066
1589184
1589304
1589422
1589542
1589658
1589776
1589894
1590014
1590134
1590254
1590374
1590494
1590616
1590736
1590856
1590976
1591096
1591216
1591334
1591454
1591574
1591694
1591814
1591936
1592056
1592176
1592296
1592416
1592536
1592654
1592774
1592892
1593008
1593124
1593242
1593360
1593476
1593592
1593706
1593822
1593938
1594054
1594168
1594284
1594398
1594514
1594630
1594744
1594860
1594976
1595094
1595212
1595330
1595448
1595566
1595686
1595806
1595926
1596046
1596168
1596288
1596410
1596532
1596656
1596782
1596908
1597034
1597160
1597286
1597412
1597540
1597666
1597794
1597918
1598044
1598170
1598296
1598424
1598550
1598676
1598804
1598930
1599058
1599184
1599312
1599440
1599568
1599694
1599822
1599948
1600078
1600206
1600334
1600464
1600592
1600724
1600856
1600988
1601120
1601252
1601386
1601518
1601652
1601786
1601920
1602054
1602190
1602324
1602458
1602592
1602726
1602858
1602988
1603118
1603250
1603380
1603508
1603636
1603764
1603892
1604018
1604144
1604272
1604396
1604520
1604646
1604770
1604894
1605020
1605146
1605270
1605396
1605522
1605650
1605776
1605904
1606030
1606156
1606284
1606410
1606538
1606666
1606794
1606922
1607050
1607178
1607306
1607436
1607564
1607692
1607818
1607946
1608072
1608198
1608326
1608452
1608578
1608704
1608830
1608956
1609082
1609208
1609332
1609456
1609582
1609706
1609828
1609952
1610076
1610198
1610320
1610442
1610564
1610688
1610808
1610930
1611050
1611172
1611290
1611410
1611530
1611650
1611770
1611890
1612012
1612134
1612256
1612382
1612506
1612632
1612758
1612886
1613014
1613142
1613270
1613398
1613526
1613654
1613782
1613910
1614036
1614162
1614288
1614410
1614534
1614658
1614782
1614906
1615030
1615152
1615274
1615396
1615518
1615640
1615760
1615880
1616000
1616120
1616238
1616358
1616476
1616596
1616716
1616836
1616954
1617074
1617192
1617312
1617432
1617550
1617668
1617786
1617904
1618022
1618140
1618260
1618378
1618496
1618612
1618730
1618848
1618966
1619086
1619206
1619326
1619446
1619566
1619686
1619808
1619930
1620052
1620176
1620298
1620422
1620546
1620668
1620794
1620924
1621052
1621184
1621314
1621446
1621578
1621710
1621842
1621974
1622106
1622236
1622366
1622496
1622624
1622752
1622880
1623008
1623134
1623262
1623392
1623524
1623654
1623786
1623920
1624054
1624190
1624326
1624464
1624602
1624740
1624878
1625016
1625152
1625288
1625424
1625560
1625694
1625826
1625956
1626084
1626212
1626338
1626466
1626594
1626724
1626862
1627016
1627196
1627380
1627566
1627748
1627922
1628092
1628258
1628420
1628578
1628732
1628886
1629038
1629186
1629334
1629484
1629630
1629776
1629922
1630068
1630212
1630358
1630502
1630646
1630788
1630932
1631074
1631216
1631358
1631500
1631642
1631782
1631924
1632066
1632206
1632348
1632488
1632626
1632766
1632902
1633038
1633172
1633308
1633442
1633574
1633706
1633836
1633968
1634098
1634228
1634358
1634488
1634622
1634754
1634888
1635022
1635156
1635292
1635428
1635564
1635698
1635834
1635970
1636106
1636238
1636372
1636506
1636640
1636776
1636910
1637044
1637180
1637314
1637450
1637584
1637718
1637850
1637982
1638114
1638246
1638378
1638508
1638638
1638768
1638896
1639028
1639158
1639286
1639419
1639548
1639680
1639816
1639950
1640084
1640214
1640354
1640490
1640626
1640762
1640894
1641028
1641160
1641292
1641424
1641558
1641690
1641822
1641954
1642088
1642218
1642352
1642482
1642612
1642738
1642866
1642996
1643124
1643252
1643380
1643506
1643634
1643762
1643888
1644014
1644140
1644266
1644394
1644524
1644650
1644768
1644904
1645034
1645162
1645290
1645416
1645542
1645668
1645796
1645924
1646050
1646176
1646302
1646428
1646554
1646680
1646806
1646932
1647060
1647184
1647314
1647450
1647572
1647694
1647822
1647950
1648080
1648208
1648336
1648466
1648594
1648722
1648850
1648978
1649104
1649230
1649356
1649480
1649606
1649732
1649858
1649986
1650116
1650244
1650376
1650508
1650638
1650770
1650902
1651034
1651168
1651300
1651434
1651568
1651700
1651832
1651964
1652098
1652232
1652368
1652502
1652638
1652772
1652908
1653046
1653184
1653322
1653462
1653602
1653744
1653886
1654030
1654176
1654320
1654464
1654610
1654756
1654902
1655050
1655196
1655344
1655490
1655636
1655780
1655928
1656074
1656220
1656368
1656516
1656662
1656808
1656956
1657104
1657250
1657398
1657546
1657692
1657838
1657984
1658130
1658278
1658426
1658574
1658724
1658874
1659024
1659176
1659328
1659482
1659638
1659798
1659956
1660114
1660274
1660434
1660596
1660758
1660918
1661082
1661246
1661412
1661578
1661746
1661912
1662080
1662246
1662412
1662576
1662740
1662904
1663068
1663234
1663398
1663560
1663722
1663886
1664050
1664214
1664380
1664546
1664714
1664884
1665052
1665222
1665388
1665556
1665722
1665888
1666052
1666214
1666376
1666538
1666700
1666860
1667018
1667176
1667336
1667496
1667656
1667816
1667976
1668136
1668294
1668450
1668606
1668762
1668914
1669064
1669212
1669360
1669510
1669656
1669804
1669950
1670100
1670248
1670398
1670552
1670712
1670878
1671048
1671226
1671408
1671592
1671776
1671960
1672144
1672326
1672502
1672678
1672856
1673032
1673206
1673380
1673550
1673722
1673892
1674062
1674232
1674402
1674572
1674740
1674910
1675078
1675246
1675414
1675582
1675752
1675924
1676096
1676268
1676446
1676620
1676794
1676970
1677146
1677322
1677498
1677674
1677850
1678026
1678204
1678382
1678558
1678734
1678908
1679082
1679254
1679424
1679596
1679766
1679936
1680104
1680274
1680444
1680612
1680778
1680946
1681114
1681278
1681444
1681610
1681776
1681942
1682108
1682272
1682436
1682602
1682768
1682936
1683102
1683268
1683436
1683602
1683770
1683938
1684104
1684272
1684440
1684608
1684776
1684944
1685112
1685280
1685448
1685614
1685778
1685946
1686114
1686282
1686450
1686616
1686784
1686954
1687122
1687290
1687458
1687628
1687796
1687966
1688136
1688304
1688472
1688640
1688808
1688976
1689142
1689306
1689472
1689640
1689806
1689972
1690140
1690306
1690474
1690642
1690810
1690978
1691146
1691316
1691484
1691652
1691818
1691984
1692150
1692316
1692480
1692644
1692808
1692972
1693138
1693302
1693468
1693636
1693802
1693970
1694138
1694306
1694474
1694644
1694812
1694980
1695148
1695318
1695488
1695656
1695824
1695992
1696162
1696330
1696498
1696664
1696828
1696994
1697158
1697322
1697484
1697646
1697808
1697968
1698128
1698288
1698450
1698610
1698772
1698934
1699098
1699262
1699424
1699592
1699758
1699926
1700092
1700258
1700424
1700590
1700758
1700922
1701090
1701256
1701424
1701590
1701756
1701924
1702090
1702256
1702420
1702586
1702748
1702910
1703072
1703236
1703396
1703556
1703716
1703878
1704038
1704198
1704360
1704520
1704682
1704842
1705004
1705166
1705328
1705490
1705652
1705814
1705978
1706142
1706306
1706470
1706636
1706802
1706968
1707134
1707298
1707464
1707630
1707794
1707958
1708122
1708286
1708448
1708612
1708774
1708936
1709096
1709258
1709420
1709580
1709738
1709896
1710056
1710214
1710374
1710534
1710694
1710856
1711020
1711184
1711346
1711510
1711676
1711840
1712006
1712172
1712336
1712500
1712668
1712832
1712998
1713162
1713326
1713490
1713654
1713818
1713982
1714146
1714310
1714476
1714638
1714802
1714966
1715130
1715294
1715460
1715624
1715788
1715952
1716120
1716288
1716454
1716620
1716788
1716956
1717122
1717290
1717458
1717628
1717798
1717968
1718136
1718302
1718470
1718638
1718804
1718968
1719130
1719296
1719460
1719622
1719784
1719944
1720104
1720266
1720428
1720588
1720748
1720910
1721072
1721236
1721398
1721560
1721722
1721884
1722046
1722208
1722370
1722532
1722696
1722862
1723024
1723190
1723356
1723524
1723690
1723856
1724022
1724188
1724358
1724524
1724692
1724860
1725028
1725198
1725368
1725536
1725704
1725874
1726042
1726210
1726378
1726544
1726710
1726874
1727038
1727202
1727364
1727526
1727688
1727852
1728014
1728178
1728340
1728504
1728670
1728834
1729000
1729164
1729332
1729500
1729668
1729836
1730004
1730172
1730340
1730506
1730674
1730842
1731012
1731178
1731344
1731510
1731676
1731840
1732004
1732166
1732330
1732494
1732660
1732822
1732984
1733148
1733310
1733474
1733634
1733796
1733958
1734124
1734290
1734458
1734628
1734798
1734968
1735140
1735312
1735478
1735646
1735816
1735984
1736150
1736314
1736478
1736642
1736806
1736968
1737130
1737290
1737450
1737612
1737774
1737932
1738094
1738256
1738420
1738584
1738746
1738910
1739074
1739236
1739402
1739566
1739730
1739894
1740058
1740224
1740388
1740554
1740724
1740892
1741062
1741234
1741406
1741578
1741748
1741918
1742086
1742252
1742416
1742582
1742748
1742912
1743076
1743242
1743408
1743570
1743734
1743898
1744064
1744226
1744388
1744548
1744710
1744870
1745028
1745186
1745340
1745496
1745650
1745806
1745962
1746118
1746274
1746430
1746584
1746740
1746896
1747052
1747210
1747368
1747530
1747690
1747854
1748020
1748186
1748352
1748520
1748686
1748856
1749026
1749194
1749366
1749536
1749710
1749884
1750056
1750228
1750400
1750576
1750750
1750922
1751098
1751270
1751442
1751614
1751784
1751954
1752124
1752294
1752464
1752632
1752802
1752972
1753142
1753312
1753480
1753652
1753826
1753998
1754170
1754344
1754516
1754686
1754860
1755030
1755198
1755364
1755532
1755700
1755868
1756034
1756200
1756366
1756530
1756696
1756862
1757028
1757196
1757364
1757536
1757708
1757884
1758060
1758234
1758410
1758586
1758762
1758936
1759110
1759284
1759458
1759630
1759802
1759970
1760136
1760304
1760470
1760638
1760804
1760970
1761136
1761304
1761470
1761636
1761804
1761968
1762136
1762304
1762470
1762638
1762808
1762976
1763146
1763316
1763484
1763656
1763826
1763998
1764170
1764344
1764516
1764690
1764864
1765034
1765206
1765378
1765548
1765720
1765888
1766056
1766222
1766388
1766552
1766716
1766878
1767042
1767208
1767372
1767538
1767702
1767870
1768036
1768200
1768366
1768530
1768696
1768860
1769028
1769194
1769360
1769528
1769696
1769868
1770038
1770210
1770382
1770556
1770730
1770904
1771078
1771252
1771422
1771594
1771764
1771934
1772102
1772270
1772436
1772602
1772770
1772936
1773100
1773262
1773426
1773590
1773752
1773916
1774080
1774244
1774410
1774578
1774744
1774910
1775074
1775242
1775408
1775576
1775744
1775910
1776076
1776240
1776406
1776572
1776736
1776898
1777062
1777222
1777382
1777542
1777702
1777864
1778024
1778184
1778344
1778506
1778668
1778832
1778998
1779164
1779332
1779502
1779670
1779836
1780004
1780172
1780340
1780508
1780676
1780846
1781016
1781184
1781356
1781528
1781700
1781872
1782044
1782216
1782388
1782558
1782730
1782898
1783066
1783234
1783400
1783566
1783732
1783896
1784060
1784222
1784386
1784550
1784710
1784870
1785032
1785192
1785354
1785514
1785676
1785840
1786004
1786172
1786340
1786508
1786672
1786838
1787004
1787170
1787336
1787504
1787668
1787834
1788000
1788166
1788332
1788496
1788660
1788828
1788996
1789162
1789330
1789496
1789662
1789828
1789996
1790160
1790326
1790490
1790654
1790818
1790978
1791140
1791300
1791460
1791620
1791782
1791942
1792102
1792266
1792432
1792598
1792762
1792928
1793094
1793260
1793428
1793596
1793766
1793932
1794102
1794272
1794440
1794608
1794774
1794942
1795108
1795276
1795442
1795608
1795774
1795942
1796110
1796276
1796442
1796608
1796772
1796940
1797106
1797274
1797440
1797606
1797772
1797940
1798110
1798276
1798442
1798608
1798776
1798942
1799106
1799270
1799432
1799594
1799756
1799918
