peaks
199
484
790
1084
1362
1662
1940
2222
2516
2804
3062
3340
3630
3894
4166
4450
4734
4996
5276
5560
5828
6084
6354
6626
6882
7156
7448
7700
7962
8236
8492
8788
9090
9360
9666
9956
10232
10534
10828
11098
11394
11688
11962
12260
12556
12818
13092
13384
13656
13942
14230
14506
14782
15076
15358
15610
15882
16164
16428
16708
17002
17276
17546
17840
18122
18380
18656
18940
19196
19470
19746
20004
20284
20568
20842
21138
21430
21694
21982
22268
22534
22820
23108
23370
23642
23930
24190
24460
24744
25002
25272
25554
25822
26086
26372
26674
26946
27232
27532
27814
28094
28394
28686
28948
29230
29506
29768
30046
30322
30590
30876
31152
31416
31706
32000
32270
32550
32832
33096
33376
33664
33928
34196
34472
34738
34994
35268
35546
35800
36078
36362
36622
36910
37216
37494
37798
38112
38400
38680
38964
39252
39518
39802
40098
40368
40662
40962
41238
41518
41810
42086
42340
42616
42896
43152
43424
43706
43970
44238
44524
44806
45066
45330
45604
45856
46112
46374
46640
46894
47190
47504
47784
48078
48392
48680
48968
49272
49552
49828
50112
50378
50636
50910
51192
51456
51736
52028
52298
52594
52900
53180
53470
53774
54048
54344
54656
54922
55196
55478
55748
56024
56312
56592
56856
57146
57436
57704
58000
58296
58566
58862
59158
59428
59712
60008
60276
60580
60884
61150
61432
61718
61978
62254
62540
62798
63070
63364
63648
63914
64208
64508
64782
65076
65360
65624
65896
66178
66448
66726
67014
67278
67598
67910
68192
68498
68792
69056
69328
69620
69902
70162
70448
70746
71026
71314
71622
71910
72198
72492
72760
73022
73302
73580
73842
74118
74402
74662
74936
75220
75482
75766
76068
76338
76628
76916
77174
77442
77722
77992
78270
78578
78870
79158
79468
79760
80034
80322
80604
80872
81162
81458
81726
82016
82302
82564
82840
83120
83388
83650
83920
84188
84440
84702
84972
85232
85486
85766
86056
86318
86600
86886
87144
87428
87720
87980
88258
88554
88820
89106
89406
89678
89966
90268
90544
90842
91138
91406
91696
91982
92256
92544
92826
93092
93376
93660
93918
94192
94476
94742
95024
95308
95566
95840
96126
96392
96676
96968
97236
97520
97810
98070
98358
98658
98928
99214
99504
99768
100056
100340
100600
100878
101168
101428
101710
102010
102282
102580
102886
103162
103448
103730
104012
104268
104540
104820
105080
105362
105660
105938
106238
106544
106822
107088
107370
107648
107902
108188
108506
108782
109086
109400
109676
109982
110288
110562
110860
111154
111424
111724
112020
112286
112574
112840
113116
113384
113658
113950
114232
114490
114764
115060
115332
115596
115874
116140
116418
116710
116976
117258
117540
117804
118082
118374
118646
118922
119224
119524
119796
120092
120392
120662
120944
121240
121510
121796
122088
122358
122636
122928
123208
123476
123768
124050
124328
124616
124892
125162
125456
125756
126030
126322
126632
126914
127202
127504
127788
128058
128344
128624
128892
129180
129464
129724
129998
130264
130542
130842
131120
131404
131704
131982
132262
132560
132850
133110
133396
133690
133958
134250
134546
134818
135112
135398
135658
135930
136210
136468
136744
137012
137266
137550
137850
138122
138416
138706
138972
139258
139558
139826
140098
140384
140656
140918
141200
141490
141760
142054
142342
142606
142886
143180
143446
143708
143988
144270
144530
144810
145114
145394
145696
146002
146286
146570
146870
147148
147444
147742
148010
148292
148582
148850
149132
149428
149702
149984
150266
150526
150794
151052
151304
151542
151792
152038
152280
152514
152762
152996
153224
153456
153700
153956
154206
154446
154670
154894
155112
155326
155540
155758
156006
156290
156580
156848
157122
157396
157672
157978
158288
158566
158822
159090
159342
159570
159796
160006
160220
160430
160640
160854
161082
161340
161610
161886
162186
162492
162774
163080
163388
163678
163948
164232
164530
164820
165102
165386
165672
165944
166206
166476
166740
166980
167244
167508
167770
168014
168270
168528
168774
169012
169262
169516
169748
169988
170242
170502
170742
170990
171238
171484
171718
171958
172208
172452
172686
172938
173194
173444
173688
173954
174220
174462
174716
174988
175244
175502
175766
176040
176286
176548
176816
177074
177312
177560
177814
178048
178286
178536
178776
179014
179266
179528
179766
180022
180288
180544
180786
181050
181312
181566
181814
182090
182352
182598
182868
183146
183394
183648
183928
184206
184470
184774
185074
185336
185610
185894
186160
186404
186670
186946
187196
187454
187744
188014
188290
188576
188848
189088
189326
189552
189772
189988
190196
190406
190640
190934
191170
191396
191624
191848
192068
192278
192488
192698
192908
193114
193320
193538
193778
194042
194286
194552
194840
195132
195406
195704
195998
196250
196508
196776
197038
197290
197526
197752
197970
198178
198398
198630
198882
199128
199438
199744
200028
200352
200692
200990
201252
201554
201874
202174
202434
202722
203010
203304
203562
203852
204144
204416
204666
204934
205220
205476
205760
206056
206320
206592
206878
207166
207424
207698
207992
208260
208550
208810
209090
209388
209668
209952
210268
210564
210826
211114
211416
211700
211976
212262
212550
212828
213142
213460
213746
214066
214362
214630
214930
215238
215510
215796
216100
216392
216680
216986
217278
217528
217796
218080
218338
218622
218930
219218
219512
219824
220116
220414
220734
221030
221338
221650
221926
222220
222516
222784
223074
223372
223640
223910
224186
224448
224694
224974
225250
225514
225804
226088
226368
226664
226946
227220
227520
227820
228094
228388
228672
228934
229230
229522
229798
230102
230400
230676
230992
231284
231560
231864
232162
232440
232732
233036
233298
233568
233852
234118
234376
234660
234932
235186
235450
235720
235978
236256
236524
236794
237074
237356
237616
237878
238164
238442
238756
239070
239350
239650
239956
240232
240528
240820
241086
241388
241694
241972
242272
242576
242846
243124
243412
243696
243944
244198
244478
244744
245016
245336
245630
245918
246220
246506
246780
247062
247350
247626
247902
248170
248450
248756
249060
249342
249670
249986
250282
250602
250908
251188
251494
251802
252076
252370
252664
252936
253232
253536
253802
254084
254382
254650
254936
255222
255490
255774
256074
256352
256642
256934
257210
257454
257714
257982
258230
258496
258782
259072
259376
259682
259974
260250
260546
260824
261090
261382
261670
261934
262224
262516
262784
263068
263354
263614
263878
264136
264404
264668
264942
265198
265450
265724
266032
266306
266610
266932
267222
267532
267846
268120
268394
268684
268960
269244
269546
269820
270116
270426
270714
270994
271286
271546
271818
272106
272368
272642
272928
273200
273464
273750
274020
274276
274552
274826
275098
275410
275704
276002
276298
276580
276852
277150
277430
277686
277932
278202
278492
278764
279062
279358
279644
279928
280223
280462
280748
281050
281320
281598
281892
282176
282472
282764
283044
283316
283574
283856
284132
284402
284700
284982
285242
285532
285820
286094
286394
286690
286966
287258
287538
287794
288076
288376
288640
288926
289214
289480
289766
290074
290342
290622
290908
291172
291448
291742
292012
292302
292616
292902
293200
293500
293774
294062
294362
294644
294916
295206
295490
295744
296014
296296
296556
296844
297152
297422
297710
298024
298298
298588
298894
299164
299442
299728
300002
300262
300546
300812
301098
301380
301638
301918
302200
302462
302738
303022
303288
303574
303870
304142
304416
304702
304978
305246
305526
305790
306060
306342
306618
306876
307148
307426
307676
307946
308228
308494
308762
309046
309320
309582
309874
310168
310432
310712
310996
311254
311530
311818
312084
312358
312648
312924
313216
313522
313806
314096
314398
314680
314964
315256
315534
315802
316090
316370
316636
316918
317194
317450
317720
317992
318258
318560
318842
319100
319380
319668
319926
320198
320484
320750
321046
321332
321590
321874
322164
322430
322712
322992
323248
323522
323794
324060
324362
324646
324930
325228
325526
325794
326092
326390
326660
326954
327258
327522
327810
328104
328372
328646
328926
329180
329446
329718
329974
330252
330530
330788
331086
331380
331640
331924
332220
332496
332786
333088
333372
333654
333944
334222
334488
334780
335068
335330
335620
335900
336170
336454
336724
337000
337274
337540
337794
338060
338322
338606
338912
339196
339498
339790
340064
340362
340654
340922
341188
341462
341724
342002
342296
342564
342854
343132
343416
343704
343970
344240
344536
344820
345090
345378
345666
345930
346218
346512
346790
347086
347362
347642
347940
348220
348504
348796
349068
349316
349576
349854
350112
350408
350712
350982
351274
351568
351844
352148
352452
352728
353028
353322
353592
353876
354148
354400
354682
354978
355242
355524
355808
356070
356354
356640
356906
357200
357490
357752
358026
358292
358546
358832
359126
359394
359700
360004
360280
360582
360868
361126
361402
361684
361942
362224
362508
362760
363024
363314
363580
363872
364174
364446
364738
365024
365290
365588
365868
366112
366356
366584
366808
367036
367274
367520
367748
367976
368198
368420
368638
368854
369070
369290
369530
369786
370056
370310
370594
370888
371186
371478
371804
372112
372386
372682
372984
373244
373492
373746
373994
374252
374534
374814
375080
375384
375680
375972
376280
376584
376858
377142
377432
377714
377974
378272
378564
378864
379182
379490
379758
380044
380328
380582
380852
381146
381418
381676
381960
382234
382498
382780
383060
383320
383596
383888
384168
384440
384732
385010
385266
385546
385806
386052
386322
386620
386888
387178
387494
387770
388064
388360
388628
388904
389206
389492
389808
390108
390374
390636
390922
391206
391468
391748
392028
392298
392590
392876
393140
393424
393724
393994
394292
394598
394878
395184
395490
395760
396060
396362
396630
396924
397224
397492
397794
398100
398366
398660
398942
399204
399494
399778
400056
400354
400628
400896
401178
401466
401728
402016
402312
402582
402878
403180
403450
403728
404018
404292
404574
404872
405148
405432
405726
405996
406278
406584
406876
407150
407446
407722
407994
408288
408560
408820
409106
409392
409658
409954
410256
410526
410826
411130
411396
411682
411976
412242
412520
412796
413060
413348
413610
413862
414140
414444
414712
414990
415288
415566
415840
416128
416406
416672
416930
417180
417456
417758
418034
418334
418652
418938
419238
419544
419832
420108
420402
420702
420952
421220
421496
421754
422022
422320
422598
422876
423178
423456
423740
424052
424354
424634
424944
425234
425498
425784
426066
426326
426606
426892
427158
427452
427746
428004
428272
428548
428796
429060
429344
429606
429880
430172
430458
430748
431056
431342
431618
431906
432178
432458
432736
432996
433274
433538
433792
434068
434340
434596
434870
435148
435404
435674
435950
436206
436474
436752
437024
437280
437558
437848
438116
438408
438710
438984
439268
439562
439832
440100
440376
440644
440890
441158
441420
441678
441950
442214
442464
442734
443004
443258
443516
443792
444056
444316
444592
444870
445118
445386
445664
445922
446194
446468
446724
446996
447272
447534
447796
448070
448332
448576
448834
449098
449348
449610
449882
450144
450406
450688
450956
451208
451476
451746
451988
452240
452496
452736
452986
453236
453490
453728
453970
454212
454438
454656
454870
455076
455282
455488
455684
455876
456064
456252
456440
456628
456810
457000
457180
457364
457548
457732
457916
458104
458284
458468
458648
458828
459012
459194
459376
459560
459740
459930
460116
460312
460516
460736
460946
461154
461360
461572
461782
461986
462186
462390
462592
462800
463006
463214
463438
463690
463956
464208
464470
464742
465000
465272
465554
465842
466106
466402
466702
466982
467230
467484
467726
467956
468182
468414
468628
468846
469070
469342
469580
469834
470130
470424
470702
471020
471320
471594
471890
472208
472472
472746
473032
473298
473562
473828
474076
474312
474560
474822
475090
475344
475638
475940
476196
476464
476748
477012
477282
477570
477836
478134
478418
478688
478936
479214
479506
479768
480072
480382
480652
480926
481214
481478
481726
482000
482282
482536
482810
483090
483358
483622
483918
484184
484442
484734
485058
485336
485630
485940
486212
486506
486798
487062
487336
487648
487948
488228
488552
488858
489166
489466
489746
490010
490298
490554
490826
491096
491396
491698
491968
492208
492450
492678
492900
493126
493348
493560
493788
494020
494272
494514
494818
495090
495340
495590
495832
496060
496284
496514
496758
497032
497348
497690
498000
498318
498640
498938
499256
499564
499850
500156
500454
500698
500946
501192
501420
501652
501906
502126
502358
502592
502828
503066
503310
503550
503796
504032
504260
504492
504722
504950
505174
505394
505608
505822
506034
506242
506446
506654
506862
507072
507284
507502
507722
507956
508188
508438
508714
508996
509290
509560
509822
510112
510422
510744
511056
511362
511668
511966
512290
512616
512914
513164
513424
513692
513926
514160
514420
514752
515038
515330
515688
516024
516356
516696
517026
517328
517638
517942
518218
518486
518738
519016
519316
519596
519924
520262
520578
520916
521248
521560
521886
522194
522486
522792
523090
523366
523658
523950
524226
524536
524842
525114
525400
525696
525974
526266
526568
526844
527140
527466
527778
528062
528380
528690
528988
529292
529578
529854
530146
530440
530712
530986
531264
531536
531798
532086
532366
532632
532918
533210
533486
533780
534080
534362
534660
534964
535240
535554
535868
536160
536484
536796
537086
537386
537674
537934
538200
538480
538754
539048
539362
539650
539948
540264
540556
540850
541148
541430
541716
542014
542298
542572
542862
543134
543396
543686
543976
544256
544558
544868
545146
545446
545748
546020
546314
546614
546906
547208
547514
547804
548106
548406
548680
548962
549260
549546
549852
550170
550462
550760
551080
551382
551674
551968
552262
552536
552836
553128
553400
553672
553958
554240
554562
554864
555152
555458
555764
556050
556366
556672
556954
557234
557518
557792
558090
558404
558684
558998
559316
559616
559940
560258
560560
560874
561174
561448
561738
562028
562302
562600
562908
563192
563490
563802
564082
564374
564680
564966
565264
565582
565868
566160
566456
566732
567038
567352
567648
567956
568268
568558
568870
569176
569448
569734
570024
570304
570598
570904
571194
571492
571784
572058
572358
572660
572934
573234
573554
573848
574152
574476
574776
575076
575386
575682
575966
576272
576560
576862
577178
577454
577724
577998
578258
578522
578814
579100
579380
579684
579974
580254
580552
580852
581148
581452
581746
582032
582330
582616
582908
583222
583522
583828
584132
584414
584714
585022
585314
585612
585926
586218
586522
586836
587120
587410
587710
588000
588278
588574
588864
589146
589446
589742
590016
590314
590628
590906
591204
591514
591788
592082
592374
592654
592956
593256
593536
593832
594126
594404
594712
595020
595302
595594
595882
596146
596426
596700
596964
597244
597528
597806
598102
598406
598680
598974
599280
599570
599872
600180
600464
600762
601070
601362
601666
601978
602264
602554
602848
603126
603414
603704
603980
604270
604560
604840
605138
605420
605710
606014
606298
606590
606896
607176
607466
607764
608046
608344
608648
608922
609214
609510
609790
610084
610382
610664
610962
611254
611534
611836
612120
612390
612678
612972
613248
613534
613824
614098
614410
614720
615016
615338
615648
615942
616258
616558
616846
617154
617448
617740
618044
618340
618630
618932
619216
619508
619812
620106
620404
620710
621002
621310
621614
621896
622192
622512
622798
623106
623404
623672
623960
624254
624528
624816
625114
625394
625696
626006
626294
626598
626896
627178
627484
627786
628070
628374
628676
628982
629302
629602
629898
630192
630470
630766
631064
631338
631624
631908
632174
632460
632748
633032
633336
633638
633938
634252
634558
634848
635148
635442
635726
636028
636312
636610
636920
637196
637486
637784
638066
638336
638636
638934
639218
639528
639830
640124
640430
640726
641026
641334
641628
641930
642234
642514
642810
643114
643390
643688
643984
644270
644576
644870
645148
645456
645760
646050
646352
646642
646954
647276
647560
647868
648174
648464
648776
649088
649374
649682
649990
650274
650588
650900
651180
651486
651776
652060
652372
652668
652958
653278
653580
653896
654216
654506
654810
655120
655402
655700
656004
656286
656570
656870
657152
657454
657758
658038
658318
658600
658874
659182
659492
659792
660128
660442
660742
661064
661362
661672
661978
662270
662582
662884
663180
663482
663764
664066
664344
664636
664952
665244
665532
665832
666112
666396
666700
666982
667270
667572
667866
668168
668484
668778
669088
669396
669682
669990
670302
670586
670898
671216
671508
671828
672138
672410
672702
672982
673248
673538
673818
674086
674382
674680
674978
675306
675616
675920
676246
676550
676836
677142
677432
677720
678026
678314
678592
678900
679206
679512
679828
680128
680408
680714
681010
681294
681604
681914
682194
682486
682786
683064
683364
683684
683972
684276
684596
684892
685202
685524
685812
686128
686436
686714
687014
687314
687586
687884
688176
688444
688726
689024
689294
689578
689870
690148
690438
690718
690998
691294
691584
691864
692164
692446
692720
693008
693292
693564
693856
694148
694416
694704
694996
695274
695572
695862
696144
696444
696736
697036
697342
697626
697918
698218
698506
698798
699098
699388
699668
699958
700244
700520
700816
701098
701368
701642
701902
702172
702452
702716
703000
703296
703568
703848
704138
704424
704696
704978
705258
705520
705796
706080
706338
706604
706888
707154
707426
707704
707968
708236
708518
708794
709060
709338
709602
709870
710146
710422
710686
710966
711244
711518
711804
712080
712354
712638
712906
713166
713424
713684
713934
714192
714456
714704
714978
715246
715496
715758
716026
716282
716538
716800
717064
717322
717598
717872
718136
718414
718702
718972
719250
719536
719796
720064
720342
720600
720864
721136
721398
721658
721936
722202
722456
722730
723004
723258
723534
723814
724068
724340
724618
724890
725166
725452
725728
725992
726286
726586
726860
727150
727444
727720
728012
728304
728582
728862
729162
729444
729720
729998
730270
730534
730826
731112
731398
731704
731990
732284
732582
732848
733120
733410
733690
733970
734262
734548
734842
735152
735446
735744
736048
736324
736612
736924
737214
737496
737804
738104
738388
738690
738980
739250
739544
739828
740112
740436
740746
741028
741332
741626
741900
742202
742490
742772
743074
743366
743640
743940
744246
744534
744822
745100
745368
745666
745968
746246
746548
746856
747138
747430
747722
747992
748284
748570
748842
749138
749436
749712
750014
750308
750606
750920
751212
751520
751844
752132
752426
752726
753006
753306
753610
753886
754188
754500
754782
755082
755386
755668
755952
756254
756530
756822
757120
757390
757682
757986
758262
758568
758864
759154
759458
759736
760010
760308
760604
760872
761168
761476
761754
762044
762344
762626
762952
763262
763548
763840
764130
764398
764692
764984
765256
765560
765866
766178
766496
766796
767104
767400
767678
767970
768266
768552
768860
769156
769438
769738
770028
770316
770624
770914
771204
771514
771798
772098
772416
772700
773006
773314
773602
773904
774232
774532
774842
775160
775446
775728
776034
776326
776604
776892
777178
777442
777730
778032
778304
778600
778888
779168
779462
779756
780040
780340
780630
780926
781236
781534
781828
782130
782426
782716
783032
783338
783622
783928
784238
784508
784802
785096
785366
785670
785964
786266
786572
786854
787160
787460
787734
788032
788310
788596
788888
789162
789442
789726
790006
790302
790612
790920
791218
791534
791832
792120
792436
792732
793032
793340
793624
793920
794240
794530
794814
795108
795392
795688
795986
796264
796568
796844
797134
797402
797698
798002
798282
798582
798876
799136
799422
799714
799996
800316
800618
800916
801232
801524
801806
802098
802384
802666
802974
803262
803558
803864
804152
804444
804752
805054
805338
805644
805936
806214
806528
806822
807098
807402
807696
807974
808260
808552
808822
809114
809378
809646
809934
810210
810474
810764
811070
811360
811668
811960
812232
812516
812804
813074
813366
813664
813936
814228
814502
814782
815056
815366
815668
815952
816262
816564
816840
817132
817424
817694
817978
818258
818532
818830
819132
819406
819706
820002
820274
820558
820856
821132
821414
821690
821936
822192
822444
822688
822952
823190
823420
823648
823872
824088
824300
824508
824718
824918
825120
825318
825512
825712
825908
826102
826296
826486
826676
826864
827054
827246
827440
827648
827854
828076
828326
828594
828800
829066
829326
829588
829828
830062
830300
830524
830742
830960
831200
831512
831786
832044
832360
832678
832950
833286
833608
833884
834210
834496
834780
835082
835380
835646
835934
836230
836510
836778
837106
837406
837660
837930
838242
838524
838824
839134
839418
839718
840038
840332
840628
840938
841220
841504
841804
842084
842338
842628
842910
843180
843480
843774
844040
844340
844680
844978
845294
845612
845910
846182
846490
846778
847048
847342
847614
847894
848200
848510
848784
849086
849410
849702
850012
850334
850632
850910
851218
851524
851788
852066
852374
852636
852930
853246
853544
853846
854174
854476
854766
855094
855398
855698
856034
856340
856612
856902
857202
857474
857788
858078
858354
858658
858960
859230
859534
859846
860132
860436
860756
861048
861310
861618
861928
862202
862520
862830
863104
863430
863730
864026
864342
864628
864922
865238
865546
865828
866140
866448
866730
867042
867352
867642
867970
868272
868568
868898
869206
869508
869828
870132
870408
870736
871058
871356
871688
872000
872302
872618
872912
873200
873520
873808
874116
874430
874716
875012
875322
875608
875932
876264
876556
876864
877184
877474
877758
878040
878302
878588
878890
879168
879460
879784
880080
880372
880696
880994
881296
881598
881886
882188
882518
882824
883136
883458
883750
884060
884378
884662
884960
885282
885568
885874
886176
886452
886772
887092
887380
887704
887992
888264
888584
888902
889186
889492
889830
890130
890446
890774
891058
891340
891640
891936
892232
892568
892886
893200
893524
893826
894122
894432
894746
895028
895344
895646
895934
896234
896522
896828
897134
897426
897712
898018
898308
898604
898922
899206
899498
899810
900112
900374
900664
900970
901254
901594
901920
902206
902530
902848
903154
903464
903764
904026
904328
904648
904930
905258
905584
905878
906198
906524
906814
907144
907450
907766
908092
908378
908672
908982
909266
909544
909844
910134
910412
910714
911004
911298
911614
911908
912206
912526
912822
913128
913448
913742
914018
914334
914648
914924
915232
915542
915804
916078
916378
916668
916976
917318
917634
917960
918300
918610
918926
919256
919548
919848
920152
920440
920714
921024
921330
921624
921944
922252
922548
922854
923162
923432
923736
924036
924316
924634
924934
925232
925552
925854
926166
926484
926778
927090
927408
927700
928024
928340
928624
928944
929256
929540
929858
930178
930460
930762
931074
931366
931652
931954
932242
932526
932846
933148
933446
933766
934060
934380
934712
935004
935282
935588
935888
936174
936494
936800
937090
937404
937714
937998
938318
938634
938918
939234
939546
939822
940130
940434
940708
941014
941318
941598
941898
942192
942462
942716
942974
943244
943532
943804
944124
944464
944770
945104
945436
945758
946098
946418
946730
947054
947360
947664
947972
948260
948564
948872
949172
949476
949780
950068
950384
950698
950980
951308
951640
951928
952242
952552
952832
953160
953458
953738
954048
954346
954624
954930
955238
955518
955830
956122
956424
956736
957018
957316
957616
957902
958220
958522
958810
959096
959390
959680
960012
960330
960634
960956
961270
961570
961890
962182
962478
962796
963092
963398
963712
964004
964310
964634
964914
965210
965520
965810
966126
966452
966744
967066
967388
967668
967972
968286
968576
968878
969204
969504
969808
970136
970438
970748
971074
971360
971640
971952
972246
972528
972834
973130
973400
973710
974022
974306
974616
974920
975204
975510
975792
976066
976368
976674
976954
977272
977580
977892
978206
978502
978810
979124
979424
979714
980000
980278
980616
980948
981250
981596
981908
982246
982584
982884
983196
983520
983800
984112
984426
984706
985016
985332
985626
985938
986256
986538
986854
987178
987468
987790
988110
988386
988690
989026
989322
989640
989976
990272
990588
990916
991206
991508
991804
992078
992340
992628
992926
993206
993518
993838
994126
994428
994748
995040
995324
995634
995948
996256
996588
996912
997230
997536
997826
998138
998432
998716
999030
999324
999592
999880
1000164
1000428
1000700
1000978
1001248
1001508
1001778
1002074
1002340
1002612
1002908
1003190
1003452
1003722
1004018
1004298
1004584
1004896
1005194
1005476
1005796
1006090
1006372
1006652
1006922
1007176
1007450
1007736
1007994
1008260
1008536
1008794
1009050
1009318
1009588
1009842
1010100
1010366
1010618
1010870
1011140
1011426
1011686
1011956
1012222
1012492
1012788
1013092
1013370
1013640
1013928
1014252
1014536
1014800
1015088
1015404
1015712
1015990
1016306
1016622
1016908
1017210
1017526
1017838
1018142
1018454
1018752
1019062
1019380
1019700
1020036
1020344
1020656
1020966
1021246
1021552
1021844
1022118
1022420
1022706
1023000
1023304
1023576
1023846
1024128
1024396
1024646
1024890
1025140
1025388
1025656
1025962
1026232
1026482
1026752
1027032
1027294
1027546
1027788
1028024
1028254
1028484
1028712
1028966
1029212
1029500
1029814
1030096
1030392
1030706
1031006
1031284
1031574
1031884
1032186
1032464
1032772
1033082
1033390
1033674
1033988
1034324
1034632
1034980
1035318
1035634
1035982
1036304
1036628
1036982
1037290
1037606
1037888
1038146
1038418
1038692
1038948
1039220
1039510
1039796
1040052
1040328
1040614
1040868
1041146
1041442
1041702
1041962
1042246
1042520
1042786
1043072
1043372
1043666
1043988
1044288
1044586
1044858
1045140
1045438
1045710
1045994
1046284
1046550
1046828
1047112
1047358
1047612
1047882
1048134
1048388
1048656
1048938
1049206
1049498
1049790
1050058
1050304
1050544
1050788
1051038
1051292
1051596
1051912
1052194
1052480
1052776
1053066
1053352
1053654
1053952
1054224
1054506
1054812
1055090
1055380
1055666
1055956
1056224
1056512
1056806
1057098
1057394
1057716
1058018
1058342
1058658
1058966
1059286
1059562
1059854
1060128
1060388
1060674
1060970
1061250
1061556
1061840
1062134
1062436
1062720
1063028
1063334
1063624
1063952
1064248
1064538
1064826
1065080
1065332
1065582
1065824
1066064
1066300
1066526
1066754
1066984
1067236
1067484
1067756
1068044
1068308
1068610
1068914
1069186
1069476
1069778
1070076
1070362
1070666
1070976
1071262
1071562
1071870
1072180
1072466
1072762
1073054
1073316
1073592
1073870
1074130
1074406
1074702
1075004
1075296
1075608
1075904
1076180
1076466
1076720
1076976
1077256
1077536
1077796
1078066
1078338
1078602
1078878
1079156
1079414
1079660
1079912
1080162
1080410
1080680
1080962
1081228
1081518
1081800
1082086
1082412
1082722
1083028
1083342
1083624
1083916
1084208
1084480
1084750
1085028
1085306
1085568
1085842
1086118
1086384
1086638
1086894
1087160
1087434
1087718
1088004
1088260
1088510
1088794
1089090
1089356
1089640
1089936
1090236
1090520
1090818
1091108
1091384
1091678
1091980
1092262
1092558
1092844
1093128
1093424
1093708
1093986
1094272
1094570
1094860
1095170
1095452
1095750
1096048
1096334
1096644
1096932
1097242
1097552
1097824
1098108
1098384
1098640
1098908
1099194
1099470
1099764
1100066
1100356
1100688
1100980
1101280
1101582
1101890
1102206
1102514
1102822
1103120
1103444
1103746
1104060
1104346
1104664
1104934
1105208
1105488
1105746
1106008
1106272
1106528
1106814
1107100
1107358
1107634
1107894
1108166
1108476
1108752
1109044
1109328
1109626
1109922
1110212
1110492
1110778
1111060
1111328
1111618
1111904
1112168
1112450
1112716
1113002
1113284
1113556
1113838
1114102
1114366
1114628
1114882
1115134
1115394
1115644
1115898
1116154
1116394
1116634
1116870
1117098
1117328
1117556
1117778
1117998
1118216
1118434
1118650
1118864
1119074
1119286
1119500
1119716
1119930
1120154
1120386
1120628
1120870
1121130
1121402
1121672
1121936
1122214
1122502
1122778
1123072
1123366
1123656
1123918
1124200
1124492
1124786
1125070
1125368
1125666
1125954
1126240
1126532
1126814
1127088
1127370
1127664
1127938
1128212
1128498
1128780
1129072
1129382
1129698
1129994
1130264
1130546
1130828
1131094
1131362
1131638
1131904
1132174
1132442
1132716
1132990
1133276
1133560
1133840
1134100
1134360
1134630
1134878
1135118
1135350
1135574
1135794
1136018
1136262
1136528
1136790
1137072
1137362
1137646
1137920
1138208
1138498
1138776
1139060
1139372
1139668
1139950
1140242
1140526
1140780
1141046
1141314
1141588
1141872
1142148
1142428
1142686
1142932
1143172
1143418
1143668
1143908
1144154
1144422
1144706
1144970
1145254
1145554
1145844
1146128
1146424
1146728
1147014
1147308
1147600
1147876
1148164
1148448
1148718
1148994
1149270
1149532
1149792
1150050
1150306
1150558
1150798
1151032
1151258
1151476
1151688
1151892
1152096
1152292
1152496
1152688
1152878
1153070
1153264
1153464
1153666
1153874
1154086
1154308
1154546
1154800
1155052
1155312
1155578
1155824
1156076
1156338
1156602
1156846
1157082
1157306
1157534
1157766
1158018
1158278
1158558
1158852
1159152
1159430
1159710
1160004
1160296
1160570
1160838
1161118
1161402
1161654
1161904
1162160
1162422
1162684
1162990
1163294
1163590
1163874
1164188
1164492
1164770
1165060
1165356
1165640
1165904
1166184
1166462
1166726
1166988
1167264
1167534
1167798
1168050
1168304
1168576
1168852
1169116
1169400
1169686
1169954
1170200
1170448
1170698
1170940
1171192
1171478
1171772
1172052
1172358
1172660
1172940
1173242
1173532
1173804
1174078
1174368
1174646
1174912
1175186
1175478
1175768
1176032
1176316
1176616
1176916
1177206
1177506
1177806
1178088
1178356
1178636
1178926
1179190
1179448
1179722
1179998
1180250
1180512
1180778
1181032
1181282
1181528
1181780
1182032
1182288
1182544
1182802
1183052
1183300
1183560
1183830
1184082
1184338
1184618
1184890
1185154
1185430
1185708
1185972
1186234
1186518
1186798
1187068
1187352
1187654
1187952
1188220
1188494
1188774
1189054
1189322
1189636
1189956
1190262
1190552
1190864
1191168
1191456
1191756
1192044
1192312
1192602
1192896
1193162
1193450
1193756
1194024
1194270
1194510
1194746
1194982
1195216
1195450
1195680
1195908
1196134
1196384
1196660
1196932
1197218
1197528
1197828
1198108
1198390
1198690
1199004
1199288
1199586
1199898
1200206
1200498
1200812
1201128
1201408
1201704
1201996
1202274
1202558
1202858
1203142
1203418
1203724
1204008
1204278
1204564
1204854
1205120
1205404
1205696
1205966
1206256
1206550
1206826
1207110
1207400
1207678
1207974
1208300
1208576
1208858
1209130
1209398
1209676
1209970
1210240
1210526
1210804
1211096
1211380
1211652
1211942
1212218
1212484
1212766
1213062
1213338
1213640
1213918
1214176
1214460
1214734
1214996
1215264
1215538
1215810
1216084
1216358
1216618
1216880
1217140
1217410
1217672
1217952
1218210
1218450
1218692
1218924
1219140
1219376
1219614
1219848
1220100
1220370
1220618
1220874
1221140
1221394
1221648
1221918
1222172
1222430
1222692
1222946
1223216
1223486
1223736
1224002
1224280
1224554
1224832
1225116
1225382
1225652
1225932
1226194
1226458
1226716
1226970
1227222
1227480
1227748
1227996
1228238
1228480
1228728
1228974
1229238
1229504
1229754
1230018
1230292
1230546
1230826
1231124
1231396
1231690
1231994
1232276
1232574
1232850
1233138
1233420
1233680
1233954
1234218
1234480
1234752
1235010
1235268
1235534
1235792
1236042
1236322
1236590
1236848
1237132
1237398
1237664
1237932
1238184
1238442
1238704
1238962
1239226
1239478
1239728
1239992
1240254
1240508
1240774
1241028
1241284
1241546
1241800
1242058
1242326
1242586
1242852
1243120
1243378
1243638
1243896
1244146
1244398
1244656
1244904
1245152
1245404
1245644
1245894
1246146
1246388
1246638
1246900
1247156
1247414
1247676
1247938
1248198
1248454
1248696
1248938
1249180
1249440
1249700
1249946
1250202
1250462
1250714
1250968
1251210
1251450
1251684
1251930
1252172
1252404
1252644
1252884
1253120
1253356
1253602
1253870
1254130
1254400
1254682
1254958
1255220
1255496
1255774
1256044
1256298
1256564
1256834
1257092
1257356
1257626
1257902
1258162
1258438
1258708
1258962
1259234
1259510
1259774
1260034
1260314
1260590
1260850
1261130
1261412
1261680
1261960
1262248
1262518
1262798
1263080
1263348
1263646
1263912
1264186
1264452
1264704
1264970
1265240
1265492
1265766
1266042
1266308
1266598
1266896
1267172
1267448
1267708
1267954
1268218
1268474
1268728
1268988
1269226
1269468
1269734
1270000
1270256
1270530
1270796
1271060
1271352
1271628
1271904
1272186
1272454
1272736
1273012
1273272
1273546
1273814
1274070
1274338
1274604
1274860
1275122
1275394
1275656
1275916
1276188
1276462
1276722
1277004
1277288
1277556
1277834
1278108
1278372
1278650
1278938
1279216
1279506
1279776
1280044
1280334
1280616
1280908
1281218
1281526
1281818
1282110
1282438
1282710
1282994
1283272
1283528
1283802
1284072
1284336
1284606
1284866
1285130
1285406
1285662
1285914
1286176
1286432
1286688
1286950
1287220
1287472
1287750
1288018
1288282
1288558
1288834
1289102
1289386
1289642
1289910
1290172
1290428
1290696
1290954
1291204
1291460
1291716
1291962
1292214
1292466
1292716
1292972
1293232
1293494
1293772
1294026
1294288
1294544
1294788
1295052
1295308
1295556
1295826
1296084
1296344
1296616
1296894
1297190
1297490
1297762
1298036
1298298
1298570
1298846
1299102
1299372
1299656
1299924
1300198
1300468
1300744
1301016
1301272
1301538
1301796
1302052
1302318
1302584
1302842
1303120
1303388
1303646
1303912
1304164
1304422
1304676
1304920
1305164
1305418
1305678
1305938
1306186
1306448
1306710
1306964
1307224
1307480
1307732
1307990
1308256
1308512
1308782
1309046
1309302
1309570
1309834
1310088
1310346
1310588
1310838
1311086
1311324
1311570
1311822
1312072
1312312
1312568
1312828
1313074
1313330
1313592
1313858
1314118
1314386
1314646
1314896
1315152
1315406
1315654
1315912
1316176
1316424
1316688
1316956
1317218
1317472
1317732
1317992
1318244
1318502
1318762
1319014
1319278
1319550
1319810
1320082
1320358
1320614
1320876
1321146
1321402
1321660
1321926
1322188
1322442
1322708
1322978
1323236
1323512
1323792
1324064
1324326
1324588
1324838
1325106
1325370
1325618
1325884
1326150
1326398
1326648
1326908
1327184
1327442
1327698
1327978
1328240
1328506
1328782
1329052
1329318
1329590
1329856
1330118
1330400
1330678
1330930
1331196
1331468
1331722
1331972
1332226
1332474
1332712
1332968
1333226
1333472
1333734
1334004
1334252
1334522
1334788
1335044
1335304
1335566
1335822
1336072
1336340
1336614
1336868
1337138
1337402
1337660
1337920
1338182
1338440
1338708
1338972
1339230
1339494
1339756
1340010
1340276
1340544
1340804
1341068
1341332
1341588
1341870
1342148
1342406
1342680
1342940
1343204
1343472
1343734
1343996
1344266
1344520
1344780
1345046
1345296
1345560
1345826
1346084
1346358
1346634
1346890
1347164
1347432
1347692
1347966
1348224
1348478
1348722
1348970
1349218
1349474
1349734
1349976
1350224
1350476
1350720
1350976
1351242
1351510
1351780
1352058
1352324
1352604
1352868
1353130
1353384
1353652
1353920
1354188
1354438
1354692
1354952
1355216
1355466
1355724
1355990
1356236
1356506
1356776
1357032
1357302
1357570
1357820
1358086
1358342
1358588
1358842
1359088
1359320
1359562
1359802
1360048
1360286
1360536
1360794
1361036
1361280
1361540
1361792
1362044
1362308
1362570
1362812
1363062
1363332
1363604
1363858
1364128
1364392
1364636
1364882
1365132
1365368
1365616
1365884
1366152
1366404
1366670
1366940
1367194
1367462
1367736
1367994
1368252
1368522
1368796
1369062
1369330
1369628
1369912
1370176
1370444
1370704
1370952
1371212
1371480
1371730
1371990
1372268
1372528
1372802
1373084
1373390
1373668
1373956
1374248
1374516
1374790
1375058
1375322
1375598
1375876
1376136
1376408
1376676
1376958
1377252
1377520
1377806
1378082
1378346
1378626
1378894
1379152
1379418
1379686
1379942
1380212
1380492
1380756
1381036
1381324
1381594
1381866
1382158
1382440
1382704
1382986
1383274
1383532
1383800
1384078
1384336
1384596
1384860
1385118
1385368
1385624
1385886
1386130
1386370
1386604
1386832
1387062
1387290
1387538
1387788
1388056
1388352
1388616
1388878
1389162
1389460
1389736
1390042
1390374
1390688
1391008
1391336
1391632
1391908
1392204
1392508
1392784
1393076
1393370
1393664
1393944
1394256
1394562
1394840
1395132
1395436
1395708
1395988
1396288
1396590
1396864
1397162
1397452
1397724
1398026
1398330
1398618
1398928
1399220
1399502
1399796
1400084
1400372
1400666
1400942
1401212
1401518
1401842
1402146
1402480
1402800
1403106
1403434
1403722
1403992
1404268
1404538
1404796
1405072
1405356
1405614
1405894
1406168
1406422
1406686
1406960
1407196
1407436
1407664
1407882
1408100
1408310
1408518
1408728
1408932
1409140
1409350
1409572
1409806
1410026
1410246
1410468
1410684
1410896
1411106
1411310
1411514
1411722
1411934
1412144
1412352
1412566
1412792
1413028
1413280
1413556
1413842
1414108
1414396
1414696
1414980
1415260
1415556
1415850
1416134
1416420
1416718
1417024
1417304
1417580
1417872
1418164
1418432
1418716
1419016
1419308
1419562
1419842
1420128
1420392
1420664
1420944
1421224
1421484
1421746
1422016
1422294
1422562
1422842
1423122
1423384
1423648
1423906
1424152
1424392
1424638
1424902
1425170
1425444
1425742
1426038
1426314
1426602
1426900
1427188
1427496
1427812
1428124
1428408
1428692
1428962
1429224
1429478
1429754
1430046
1430328
1430606
1430894
1431174
1431438
1431710
1432002
1432306
1432586
1432856
1433130
1433418
1433698
1433978
1434266
1434560
1434854
1435164
1435470
1435758
1436054
1436350
1436632
1436926
1437210
1437498
1437814
1438148
1438452
1438758
1439064
1439358
1439646
1439926
1440198
1440490
1440782
1441070
1441370
1441668
1441968
1442290
1442592
1442888
1443188
1443478
1443782
1444092
1444370
1444670
1444986
1445278
1445596
1445918
1446212
1446534
1446852
1447142
1447430
1447688
1447940
1448210
1448500
1448764
1449056
1449386
1449680
1450000
1450310
1450608
1450866
1451152
1451478
1451766
1452072
1452390
1452710
1453048
1453392
1453708
1454046
1454374
1454676
1454994
1455314
1455606
1455882
1456162
1456438
1456706
1457002
1457298
1457580
1457866
1458166
1458456
1458744
1459038
1459314
1459586
1459866
1460146
1460408
1460690
1460998
1461270
1461562
1461864
1462152
1462440
1462730
1463010
1463260
1463524
1463806
1464100
1464412
1464724
1465008
1465306
1465606
1465896
1466192
1466504
1466786
1467072
1467368
1467666
1467944
1468250
1468568
1468874
1469160
1469460
1469772
1470096
1470416
1470746
1471054
1471336
1471640
1471916
1472176
1472428
1472682
1472942
1473214
1473554
1473878
1474172
1474488
1474786
1475074
1475392
1475700
1475992
1476302
1476624
1476914
1477218
1477528
1477820
1478110
1478424
1478762
1479056
1479360
1479654
1479962
1480250
1480526
1480810
1481080
1481320
1481556
1481792
1482032
1482270
1482526
1482832
1483124
1483444
1483770
1484072
1484402
1484726
1485018
1485338
1485660
1485968
1486274
1486582
1486886
1487172
1487472
1487776
1488090
1488390
1488684
1489000
1489322
1489622
1489936
1490244
1490512
1490776
1491024
1491264
1491504
1491734
1491964
1492198
1492488
1492810
1493126
1493460
1493790
1494094
1494416
1494748
1495060
1495368
1495698
1496018
1496312
1496636
1496962
1497262
1497564
1497878
1498188
1498480
1498790
1499112
1499424
1499714
1500034
1500350
1500636
1500932
1501248
1501560
1501842
1502136
1502432
1502716
1503012
1503306
1503592
1503862
1504148
1504432
1504720
1505028
1505312
1505600
1505912
1506212
1506486
1506774
1507080
1507362
1507652
1507972
1508286
1508578
1508884
1509176
1509452
1509752
1510068
1510340
1510624
1510908
1511184
1511504
1511804
1512096
1512414
1512726
1513006
1513294
1513594
1513864
1514124
1514406
1514702
1514970
1515260
1515580
1515874
1516134
1516410
1516666
1516912
1517164
1517440
1517748
1518030
1518338
1518650
1518956
1519282
1519610
1519914
1520254
1520592
1520914
1521198
1521500
1521806
1522080
1522358
1522646
1522936
1523218
1523510
1523796
1524080
1524360
1524666
1524966
1525254
1525564
1525870
1526150
1526444
1526754
1527060
1527344
1527642
1527958
1528254
1528546
1528854
1529154
1529434
1529728
1530014
1530276
1530558
1530850
1531128
1531400
1531684
1531986
1532260
1532544
1532822
1533098
1533366
1533634
1533890
1534136
1534386
1534664
1534936
1535236
1535566
1535860
1536154
1536474
1536776
1537076
1537382
1537674
1537972
1538280
1538582
1538882
1539204
1539516
1539810
1540114
1540420
1540710
1541008
1541310
1541608
1541894
1542192
1542492
1542770
1543060
1543364
1543670
1543956
1544238
1544528
1544802
1545076
1545364
1545640
1545898
1546176
1546470
1546748
1547068
1547368
1547652
1547968
1548270
1548564
1548878
1549154
1549430
1549702
1549974
1550260
1550552
1550816
1551086
1551368
1551642
1551926
1552214
1552488
1552776
1553064
1553334
1553594
1553868
1554166
1554430
1554706
1555010
1555310
1555578
1555866
1556174
1556460
1556764
1557080
1557358
1557632
1557928
1558226
1558520
1558822
1559126
1559416
1559678
1559960
1560248
1560516
1560812
1561122
1561394
1561674
1561968
1562244
1562524
1562810
1563102
1563382
1563664
1563960
1564238
1564516
1564822
1565102
1565396
1565704
1565990
1566288
1566582
1566858
1567144
1567442
1567730
1568016
1568324
1568628
1568912
1569210
1569504
1569784
1570074
1570386
1570682
1570970
1571268
1571564
1571840
1572138
1572438
1572716
1573008
1573316
1573614
1573928
1574254
1574564
1574862
1575186
1575470
1575758
1576074
1576370
1576656
1576954
1577254
1577528
1577816
1578104
1578382
1578676
1578980
1579266
1579562
1579858
1580132
1580424
1580724
1580998
1581274
1581554
1581822
1582082
1582348
1582626
1582904
1583198
1583494
1583770
1584056
1584346
1584620
1584912
1585222
1585500
1585782
1586068
1586352
1586620
1586898
1587184
1587456
1587738
1588046
1588344
1588622
1588916
1589208
1589482
1589786
1590090
1590386
1590672
1590974
1591280
1591570
1591838
1592102
1592404
1592684
1592942
1593214
1593502
1593770
1594048
1594344
1594618
1594882
1595176
1595492
1595774
1596074
1596390
1596684
1596986
1597290
1597598
1597880
1598192
1598512
1598800
1599082
1599372
1599686
1599974
1600294
1600620
1600910
1601196
1601504
1601826
1602132
1602436
1602748
1603044
1603344
1603646
1603936
1604202
1604494
1604780
1605054
1605316
1605608
1605914
1606206
1606508
1606818
1607110
1607398
1607708
1608008
1608284
1608584
1608904
1609188
1609478
1609802
1610110
1610398
1610698
1611004
1611280
1611562
1611866
1612162
1612430
1612720
1613016
1613292
1613578
1613884
1614184
1614472
1614782
1615098
1615388
1615688
1616000
1616312
1616596
1616906
1617226
1617524
1617824
1618146
1618456
1618730
1619024
1619326
1619610
1619898
1620192
1620484
1620762
1621052
1621352
1621624
1621912
1622202
1622470
1622740
1623034
1623320
1623610
1623912
1624200
1624482
1624784
1625088
1625366
1625662
1625962
1626254
1626550
1626858
1627160
1627436
1627738
1628042
1628316
1628590
1628872
1629154
1629424
1629708
1629994
1630264
1630544
1630828
1631098
1631358
1631644
1631940
1632216
1632504
1632806
1633088
1633380
1633686
1633974
1634254
1634550
1634854
1635132
1635412
1635700
1635984
1636256
1636548
1636834
1637104
1637392
1637686
1637964
1638242
1638538
1638828
1639102
1639384
1639668
1639944
1640210
1640492
1640776
1641044
1641328
1641622
1641906
1642176
1642468
1642754
1643032
1643334
1643620
1643908
1644214
1644510
1644784
1645072
1645358
1645642
1645940
1646234
1646506
1646794
1647086
1647352
1647620
1647906
1648194
1648462
1648756
1649050
1649322
1649618
1649914
1650192
1650480
1650776
1651062
1651322
1651572
1651826
1652084
1652344
1652660
1652990
1653290
1653608
1653902
1654190
1654486
1654822
1655118
1655424
1655748
1656060
1656342
1656644
1656950
1657224
1657520
1657836
1658114
1658402
1658696
1658972
1659262
1659562
1659856
1660142
1660454
1660746
1661040
1661356
1661664
1661952
1662260
1662574
1662850
1663148
1663456
1663736
1664044
1664366
1664652
1664968
1665290
1665582
1665888
1666198
1666474
1666772
1667066
1667356
1667664
1667980
1668274
1668584
1668872
1669172
1669488
1669784
1670060
1670368
1670676
1670952
1671246
1671560
1671854
1672146
1672456
1672748
1673040
1673368
1673674
1673962
1674268
1674570
1674846
1675152
1675444
1675724
1676034
1676346
1676632
1676946
1677250
1677524
1677846
1678158
1678466
1678792
1679114
1679412
1679752
1680072
1680356
1680688
1681012
1681300
1681616
1681934
1682222
1682516
1682812
1683084
1683356
1683654
1683960
1684248
1684566
1684886
1685188
1685510
1685824
1686104
1686402
1686706
1686978
1687268
1687574
1687870
1688172
1688482
1688780
1689068
1689370
1689666
1689952
1690262
1690562
1690870
1691212
1691526
1691828
1692160
1692488
1692784
1693100
1693416
1693702
1694002
1694286
1694578
1694882
1695180
1695466
1695804
1696110
1696396
1696726
1697044
1697346
1697678
1697986
1698284
1698598
1698912
1699194
1699504
1699824
1700112
1700422
1700720
1701006
1701322
1701632
1701914
1702218
1702544
1702828
1703130
1703444
1703742
1704028
1704342
1704636
1704944
1705262
1705546
1705850
1706164
1706456
1706762
1707056
1707348
1707668
1707962
1708250
1708564
1708854
1709150
1709458
1709742
1710054
1710362
1710636
1710938
1711266
1711560
1711876
1712208
1712504
1712838
1713180
1713484
1713796
1714120
1714414
1714722
1715036
1715322
1715608
1715922
1716222
1716514
1716852
1717160
1717452
1717782
1718092
1718382
1718698
1718996
1719302
1719612
1719900
1720214
1720536
1720822
1721116
1721426
1721728
1722022
1722330
1722632
1722938
1723246
1723532
1723832
1724142
1724426
1724744
1725072
1725358
1725684
1726004
1726288
1726616
1726950
1727252
1727540
1727834
1728120
1728470
1728786
1729078
1729420
1729724
1730042
1730374
1730678
1730990
1731320
1731630
1731916
1732234
1732552
1732838
1733154
1733462
1733752
1734062
1734366
1734660
1734978
1735282
1735564
1735872
1736154
1736426
1736726
1737030
1737306
1737606
1737890
1738160
1738440
1738730
1738996
1739292
1739598
1739878
1740204
1740528
1740836
1741176
1741500
1741806
1742148
1742470
1742770
1743096
1743414
1743694
1744010
1744330
1744618
1744920
1745208
1745494
1745808
1746106
1746398
1746702
1746998
1747284
1747592
1747880
1748150
1748422
1748710
1748982
1749298
1749614
1749896
1750218
1750522
1750816
1751120
1751406
1751694
1752012
1752308
1752606
1752902
1753178
1753504
1753830
1754152
1754500
1754826
1755154
1755472
1755786
1756076
1756398
1756698
1757000
1757314
1757612
1757902
1758224
1758524
1758826
1759160
1759464
1759746
1760048
1760344
1760606
1760894
1761202
1761482
1761788
1762104
1762384
1762678
1762996
1763284
1763564
1763858
1764144
1764478
1764814
1765120
1765476
1765812
1766104
1766434
1766764
1767062
1767400
1767720
1767996
1768290
1768588
1768860
1769144
1769440
1769728
1769998
1770310
1770618
1770904
1771214
1771508
1771808
1772116
1772406
1772678
1772974
1773276
1773560
1773862
1774182
1774482
1774778
1775092
1775386
1775682
1775994
1776286
1776572
1776878
1777166
1777442
1777724
1778018
1778292
1778614
1778928
1779226
1779558
1779850
1780138
1780448
1780748
1781066
1781400
1781706
1782024
1782348
1782642
1782958
1783266
1783550
1783832
1784128
1784428
1784714
1785034
1785350
1785642
1785974
1786284
1786590
1786916
1787218
1787490
1787800
1788106
1788386
1788714
1789036
1789336
1789660
1789966
1790266
1790580
1790878
1791144
1791430
1791730
1792006
1792310
1792610
1792888
1793204
1793518
1793800
1794118
1794416
1794718
1795016
1795334
1795624
1795954
1796264
1796548
1796870
1797180
1797474
1797786
1798076
1798354
1798666
1798974
1799254
1799584
1799916
