peaks
114
384
656
930
1200
1472
1748
2020
2284
2554
2822
3088
3352
3616
3874
4146
4418
4682
4946
5224
5496
5762
6032
6296
6556
6820
7094
7356
7634
7910
8176
8442
8714
8988
9252
9518
9790
10056
10322
10594
10854
11120
11388
11650
11920
12192
12456
12720
12994
13264
13528
13798
14070
14340
14612
14882
15158
15424
15700
15978
16248
16528
16806
17084
17368
17650
17918
18200
18472
18746
19020
19280
19544
19810
20070
20324
20586
20856
21116
21386
21658
21920
22190
22454
22714
22984
23250
23510
23778
24046
24306
24574
24840
25106
25376
25636
25908
26186
26452
26722
26984
27260
27534
27806
28078
28344
28610
28882
29138
29398
29662
29924
30186
30456
30726
30986
31258
31532
31800
32064
32334
32592
32848
33114
33382
33640
33908
34178
34438
34700
34968
35232
35488
35748
36004
36256
36520
36776
37028
37294
37560
37824
38094
38362
38628
38900
39168
39430
39696
39958
40222
40484
40748
41014
41280
41544
41822
42090
42360
42630
42892
43164
43438
43702
43982
44254
44522
44800
45070
45344
45620
45890
46154
46424
46688
46946
47216
47490
47750
48022
48296
48560
48822
49086
49358
49616
49880
50148
50414
50682
50958
51218
51480
51742
52008
52274
52544
52806
53070
53340
53598
53858
54124
54388
54644
54904
55168
55438
55712
55982
56248
56524
56796
57056
57326
57590
57854
58124
58388
58654
58930
59204
59470
59748
60026
60298
60572
60846
61110
61378
61642
61896
62160
62422
62678
62940
63206
63468
63736
64008
64272
64546
64820
65084
65344
65608
65882
66144
66404
66668
66930
67188
67458
67728
67998
68262
68524
68796
69060
69334
69608
69866
70132
70392
70646
70904
71160
71410
71672
71938
72200
72470
72750
73020
73294
73570
73838
74102
74370
74634
74888
75156
75424
75682
75948
76212
76478
76746
77004
77268
77540
77806
78068
78332
78600
78858
79126
79394
79650
79918
80180
80436
80710
80976
81242
81516
81792
82062
82338
82604
82864
83130
83398
83656
83926
84198
84458
84728
85006
85274
85546
85826
86096
86364
86640
86906
87172
87432
87688
87946
88212
88476
88744
89020
89292
89554
89826
90090
90350
90618
90882
91142
91410
91682
91944
92204
92470
92732
92994
93266
93530
93796
94068
94334
94598
94874
95140
95412
95688
95954
96224
96492
96752
97022
97284
97558
97830
98098
98374
98648
98920
99192
99460
99722
99992
100264
100526
100788
101058
101322
101592
101870
102142
102412
102682
102950
103208
103472
103740
104002
104270
104542
104802
105068
105336
105598
105862
106130
106390
106658
106930
107204
107468
107736
108006
108268
108530
108794
109054
109310
109568
109832
110092
110358
110622
110884
111148
111418
111684
111948
112218
112486
112744
113010
113276
113530
113794
114062
114324
114596
114868
115136
115410
115684
115948
116220
116488
116746
117016
117276
117542
117810
118074
118342
118612
118874
119138
119396
119662
119918
120168
120422
120674
120924
121186
121452
121710
121968
122226
122476
122734
122996
123260
123520
123792
124056
124322
124588
124846
125110
125366
125618
125874
126132
126388
126650
126910
127168
127424
127674
127914
128148
128380
128610
128836
129060
129282
129502
129720
129934
130148
130356
130564
130772
130976
131182
131386
131590
131794
132002
132212
132426
132640
132856
133072
133286
133500
133716
133932
134150
134372
134594
134818
135050
135288
135534
135784
136050
136318
136584
136854
137132
137400
137662
137942
138230
138496
138770
139022
139268
139510
139772
140040
140304
140578
140854
141136
141412
141698
141986
142264
142548
142840
143120
143404
143682
143958
144238
144520
144796
145078
145362
145636
145916
146204
146484
146764
147044
147322
147590
147864
148140
148420
148702
148972
149256
149536
149810
150082
150356
150624
150906
151180
151446
151716
151992
152258
152518
152786
153058
153328
153600
153874
154144
154424
154690
154966
155240
155512
155778
156056
156326
156596
156868
157140
157400
157676
157952
158216
158488
158760
159024
159294
159566
159832
160092
160368
160634
160894
161162
161434
161700
161966
162234
162504
162764
163028
163294
163552
163812
164072
164320
164560
164794
165026
165254
165484
165710
165936
166158
166380
166598
166818
167036
167260
167496
167736
167976
168216
168456
168688
168926
169164
169408
169648
169892
170140
170382
170626
170876
171136
171390
171656
171932
172202
172462
172722
172978
173230
173492
173760
174026
174294
174564
174828
175094
175370
175644
175906
176174
176448
176712
176968
177232
177494
177754
178018
178290
178556
178824
179104
179376
179654
179934
180206
180476
180746
181014
181282
181554
181810
182070
182330
182590
182852
183122
183390
183650
183916
184184
184444
184714
184986
185252
185518
185784
186044
186306
186572
186832
187094
187366
187632
187896
188170
188436
188702
188980
189252
189508
189774
190038
190292
190554
190820
191070
191316
191564
191812
192060
192308
192554
192794
193028
193254
193480
193704
193926
194152
194376
194602
194828
195056
195292
195534
195786
196038
196288
196546
196800
197050
197298
197540
197778
198016
198266
198516
198776
199048
199322
199588
199864
200144
200414
200700
200992
201270
201556
201848
202122
202410
202700
202976
203262
203550
203828
204118
204408
204682
204956
205240
205516
205784
206048
206324
206602
206866
207140
207410
207672
207946
208216
208476
208742
209012
209278
209510
209798
210064
210326
210592
210872
211150
211420
211704
211984
212264
212552
212838
213116
213402
213680
213966
214246
214524
214806
215076
215350
215620
215884
216156
216430
216696
216966
217248
217516
217790
218058
218320
218586
218852
219108
219368
219628
219884
220148
220414
220676
220940
221204
221464
221728
221984
222252
222518
222784
223052
223322
223584
223850
224112
224374
224632
224904
225168
225428
225696
225962
226238
226506
226788
227070
227336
227608
227890
228154
228420
228692
228956
229220
229498
229776
230054
230328
230598
230868
231132
231398
231662
231922
232178
232442
232704
232956
233220
233482
233738
234002
234272
234534
234806
235080
235352
235628
235906
236172
236434
236704
236972
237236
237516
237782
238060
238334
238602
238882
239154
239430
239696
239972
240244
240508
240788
241052
241312
241580
241858
242128
242406
242684
242958
243238
243516
243778
244042
244302
244558
244818
245072
245324
245578
245832
246094
246352
246616
246888
247152
247424
247692
247958
248228
248492
248754
249018
249270
249528
249784
250038
250296
250556
250810
251072
251324
251584
251848
252112
252382
252662
252942
253218
253492
253770
254040
254304
254570
254838
255102
255368
255634
255898
256154
256416
256678
256938
257202
257466
257722
257986
258250
258510
258774
259040
259300
259570
259834
260104
260372
260634
260902
261174
261440
261712
261988
262246
262514
262778
263042
263312
263578
263836
264102
264370
264638
264906
265180
265454
265724
266002
266272
266536
266808
267078
267340
267612
267882
268146
268422
268696
268956
269224
269488
269750
270020
270280
270540
270794
271060
271320
271576
271836
272096
272356
272626
272888
273154
273420
273680
273938
274200
274460
274726
274988
275242
275500
275762
276018
276280
276546
276812
277082
277352
277616
277880
278140
278398
278664
278930
279194
279450
279710
279970
280230
280488
280758
281024
281290
281566
281834
282110
282380
282648
282912
283182
283450
283712
283980
284244
284518
284790
285060
285338
285610
285878
286154
286424
286696
286962
287224
287492
287766
288024
288292
288560
288820
289090
289358
289620
289894
290160
290426
290702
290970
291238
291508
291774
292034
292304
292564
292816
293072
293338
293588
293842
294104
294360
294616
294880
295144
295416
295690
295952
296214
296478
296738
297000
297272
297534
297800
298074
298340
298596
298852
299106
299364
299620
299876
300132
300396
300660
300920
301190
301452
301716
301982
302244
302498
302760
303020
303280
303548
303818
304082
304352
304628
304896
305168
305438
305702
305962
306224
306488
306744
307006
307270
307528
307794
308052
308314
308568
308820
309060
309296
309524
309746
309976
310198
310424
310646
310870
311092
311316
311536
311754
311972
312188
312400
312614
312826
313034
313242
313446
313650
313856
314056
314250
314444
314642
314838
315038
315232
315428
315620
315814
316012
316210
316410
316612
316812
317016
317220
317430
317650
317880
318116
318360
318610
318870
319132
319384
319638
319900
320154
320414
320688
320960
321224
321496
321754
322016
322284
322566
322850
323126
323412
323690
323968
324252
324550
324840
325122
325396
325664
325938
326224
326504
326772
327048
327334
327612
327884
328158
328424
328674
328918
329164
329406
329640
329868
330096
330320
330544
330762
330982
331214
331464
331726
331992
332274
332546
332800
333060
333334
333598
333880
334164
334434
334722
335010
335292
335554
335806
336056
336310
336574
336832
337110
337394
337672
337956
338242
338528
338798
339066
339338
339618
339902
340184
340452
340734
341016
341290
341574
341850
342124
342404
342674
342940
343210
343468
343732
343994
344248
344512
344774
345032
345290
345556
345826
346094
346364
346626
346884
347140
347382
347630
347882
348132
348402
348670
348928
349206
349488
349774
350058
350336
350602
350884
351160
351438
351714
351992
352274
352550
352832
353108
353380
353664
353938
354222
354506
354780
355056
355324
355588
355862
356128
356390
356658
356922
357202
357474
357726
357974
358222
358464
358710
358958
359208
359460
359714
359960
360196
360428
360660
360896
361138
361394
361664
361922
362184
362452
362718
362980
363248
363508
363776
364036
364292
364568
364844
365126
365410
365684
365954
366236
366504
366784
367062
367340
367626
367902
368178
368456
368724
369000
369276
369548
369826
370108
370380
370666
370944
371226
371512
371798
372062
372328
372596
372864
373144
373420
373694
373974
374248
374516
374782
375038
375288
375552
375816
376078
376344
376616
376876
377154
377422
377702
377978
378250
378536
378800
379054
379298
379538
379774
380016
380258
380496
380732
380968
381198
381424
381646
381868
382082
382302
382522
382740
382958
383176
383392
383612
383828
384048
384262
384478
384688
384908
385116
385332
385542
385752
385966
386186
386412
386646
386890
387140
387386
387638
387888
388142
388400
388668
388936
389196
389450
389706
389964
390220
390480
390742
391002
391262
391526
391784
392036
392282
392534
392784
393036
393290
393534
393774
394008
394240
394468
394694
394918
395148
395390
395636
395894
396160
396424
396690
396958
397220
397490
397762
398028
398290
398562
398822
399074
399324
399572
399818
400066
400324
400586
400846
401116
401390
401654
401928
402204
402472
402736
403012
403284
403548
403820
404092
404356
404630
404908
405184
405464
405754
406030
406308
406582
406842
407108
407372
407634
407910
408184
408444
408710
408974
409248
409522
409792
410066
410344
410612
410886
411154
411416
411686
411956
412212
412476
412744
413012
413276
413548
413816
414090
414358
414640
414918
415188
415456
415726
415992
416252
416518
416780
417046
417316
417578
417844
418108
418364
418622
418876
419128
419392
419664
419926
420194
420452
420710
420982
421250
421512
421772
422036
422304
422570
422836
423114
423392
423662
423922
424178
424440
424704
424956
425218
425484
425752
426026
426298
426570
426834
427110
427374
427634
427894
428148
428406
428678
428938
429204
429472
429736
429994
430266
430542
430814
431094
431366
431640
431904
432172
432444
432706
432978
433246
433510
433788
434050
434308
434568
434828
435088
435356
435628
435896
436158
436422
436690
436954
437208
437468
437736
437998
438256
438516
438770
439038
439316
439582
439856
440132
440404
440682
440952
441216
441494
441766
442022
442282
442550
442816
443086
443368
443642
443908
444172
444430
444690
444960
445226
445492
445766
446030
446302
446572
446838
447114
447380
447640
447914
448190
448462
448744
449034
449312
449596
449866
450132
450390
450642
450900
451162
451426
451690
451968
452244
452526
452806
453076
453348
453612
453870
454134
454398
454654
454914
455174
455434
455692
455950
456210
456472
456722
456974
457234
457482
457738
457992
458254
458522
458796
459062
459342
459608
459876
460156
460422
460684
460946
461204
461470
461734
461994
462258
462520
462788
463062
463334
463604
463880
464144
464402
464664
464922
465178
465440
465694
465956
466214
466478
466744
467008
467270
467526
467782
468040
468298
468566
468834
469092
469356
469622
469880
470148
470424
470690
470960
471238
471512
471788
472072
472344
472612
472878
473146
473422
473696
473962
474232
474492
474754
475008
475260
475520
475776
476020
476270
476522
476766
477018
477276
477530
477788
478042
478292
478548
478800
479052
479300
479548
479792
480032
480276
480522
480766
481022
481284
481560
481850
482136
482428
482712
482992
483262
483528
483792
484058
484312
484570
484822
485080
485344
485600
485846
486098
486344
486588
486840
487094
487344
487604
487876
488150
488410
488676
488940
489202
489462
489720
489986
490248
490508
490776
491046
491304
491570
491834
492092
492348
492606
492856
493110
493370
493626
493884
494148
494418
494682
494950
495216
495486
495746
496010
496276
496536
496812
497106
497374
497642
497914
498176
498442
498704
498964
499228
499500
499760
500030
500300
500562
500830
501106
501370
501632
501892
502148
502416
502688
502950
503218
503480
503750
504030
504304
504584
504864
505146
505434
505720
506002
506284
506564
506846
507126
507394
507666
507938
508196
508450
508700
508948
509194
509448
509698
509950
510208
510466
510726
511006
511286
511558
511832
512102
512372
512636
512902
513160
513416
513670
513920
514172
514420
514664
514916
515168
515420
515674
515924
516174
516422
516668
516910
517158
517414
517664
517922
518180
518438
518708
518980
519248
519518
519780
520050
520316
520590
520856
521120
521380
521630
521882
522128
522374
522624
522872
523120
523372
523622
523874
524128
524374
524620
524866
525116
525368
525618
525878
526136
526398
526670
526952
527220
527500
527770
528026
528278
528526
528772
529022
529266
529508
529744
529988
530232
530478
530726
530976
531222
531476
531732
531990
532258
532522
532780
533044
533300
533560
533814
534064
534314
534566
534818
535068
535312
535552
535802
536060
536306
536556
536806
537058
537302
537550
537800
538052
538300
538552
538804
539044
539288
539540
539790
540046
540310
540568
540820
541078
541334
541592
541848
542098
542348
542604
542852
543106
543370
543632
543882
544134
544378
544630
544880
545126
545376
545624
545868
546114
546360
546610
546862
547124
547398
547668
547932
548204
548472
548740
549022
549294
549560
549824
550078
550336
550598
550858
551122
551380
551632
551892
552156
552410
552666
552914
553160
553406
553648
553890
554132
554372
554616
554860
555102
555346
555592
555832
556072
556318
556566
556810
557076
557346
557616
557898
558178
558452
558728
558992
559254
559514
559772
560034
560296
560554
560814
561074
561330
561590
561858
562114
562374
562628
562876
563136
563390
563644
563898
564152
564396
564644
564888
565130
565372
565620
565872
566120
566364
566614
566864
567116
567374
567632
567880
568130
568386
568646
568916
569196
569458
569728
569996
570258
570520
570778
571026
571276
571546
571818
572092
572380
572670
572942
573220
573490
573768
574032
574292
574558
574814
575068
575326
575574
575822
576072
576314
576558
576808
577062
577312
577562
577812
578058
578306
578558
578810
579058
579314
579570
579820
580076
580340
580600
580850
581110
581374
581634
581896
582160
582426
582692
582954
583212
583468
583722
583974
584222
584470
584720
584972
585220
585472
585730
585982
586230
586486
586742
586990
587242
587490
587738
587984
588234
588492
588740
588988
589238
589492
589758
590028
590308
590590
590864
591138
591398
591660
591926
592190
592458
592726
592992
593254
593506
593760
594010
594256
594496
594740
594980
595220
595474
595730
595978
596230
596488
596740
596992
597252
597508
597760
598014
598274
598524
598780
599028
599274
599512
599754
600002
600254
600506
600762
601012
601262
601508
601746
601976
602204
602430
602672
602916
603186
603464
603732
604000
604276
604546
604806
605064
605326
605578
605838
606096
606350
606598
606850
607114
607374
607642
607914
608194
608464
608744
609018
609296
609576
609858
610128
610404
610686
610958
611232
611500
611758
612020
612270
612522
612778
613026
613286
613548
613808
614070
614328
614580
614836
615090
615338
615590
615848
616102
616366
616630
616894
617160
617422
617682
617934
618182
618424
618662
618900
619144
619392
619640
619894
620146
620402
620668
620924
621170
621424
621676
621928
622190
622460
622722
622986
623252
623510
623762
624016
624272
624524
624772
625028
625292
625564
625832
626106
626390
626676
626958
627238
627502
627766
628024
628278
628532
628782
629030
629286
629536
629786
630044
630298
630548
630802
631054
631300
631548
631802
632048
632300
632550
632798
633042
633296
633546
633796
634054
634318
634578
634842
635106
635364
635620
635876
636126
636382
636632
636876
637122
637366
637608
637846
638090
638330
638576
638828
639088
639348
639610
639874
640128
640386
640640
640890
641144
641400
641656
641918
642178
642434
642694
642960
643228
643492
643744
643994
644248
644506
644766
645028
645298
645566
645834
646108
646372
646630
646884
647132
647386
647634
647888
648142
648396
648642
648894
649144
649392
649648
649912
650176
650432
650688
650946
651214
651480
651740
652006
652280
652542
652808
653070
653322
653574
653822
654068
654318
654578
654836
655086
655348
655602
655854
656106
656360
656606
656858
657106
657354
657604
657868
658118
658380
658636
658892
659146
659402
659654
659908
660176
660434
660686
660952
661206
661456
661708
661958
662210
662464
662712
662956
663208
663466
663728
663988
664256
664516
664776
665046
665312
665572
665836
666094
666350
666612
666866
667124
667380
667632
667882
668138
668402
668664
668934
669206
669480
669754
670022
670290
670548
670806
671064
671318
671574
671848
672108
672378
672656
672924
673192
673456
673716
673978
674230
674488
674740
674996
675248
675498
675742
675996
676248
676496
676754
677020
677276
677534
677794
678054
678308
678570
678828
679084
679342
679604
679864
680116
680374
680632
680894
681152
681418
681680
681940
682190
682452
682714
682974
683238
683506
683770
684028
684292
684552
684810
685076
685336
685592
685858
686126
686392
686658
686926
687188
687448
687702
687964
688214
688464
688720
688980
689242
689518
689796
690068
690340
690604
690862
691118
691374
691626
691888
692140
692392
692650
692904
693154
693410
693672
693932
694200
694478
694740
694998
695262
695528
695792
696054
696318
696580
696838
697104
697370
697630
697894
698170
698442
698708
698988
699268
699548
699832
700122
700402
700684
700964
701230
701506
701772
702028
702284
702542
702792
703040
703286
703536
703784
704038
704292
704540
704782
705028
705272
705510
705754
705998
706240
706488
706740
706990
707240
707494
707748
707996
708242
708496
708750
709004
709266
709538
709798
710062
710334
710596
710856
711120
711386
711656
711914
712182
712452
712708
712962
713222
713490
713744
713992
714238
714486
714734
714978
715232
715496
715762
716024
716292
716562
716826
717084
717338
717586
717828
718066
718304
718554
718804
719048
719288
719534
719782
720024
720266
720506
720744
720982
721228
721492
721752
722008
722264
722522
722776
723034
723304
723564
723820
724086
724346
724602
724858
725112
725368
725632
725890
726142
726396
726656
726914
727162
727418
727678
727936
728200
728468
728738
729016
729284
729546
729810
730088
730360
730622
730890
731150
731406
731662
731914
732172
732434
732698
732960
733228
733498
733764
734034
734312
734582
734854
735128
735386
735650
735902
736146
736382
736610
736834
737056
737284
737524
737780
738056
738348
738634
738902
739174
739440
739694
739940
740184
740422
740652
740876
741106
741330
741554
741770
741990
742208
742424
742640
742856
743078
743306
743538
743770
744006
744252
744498
744742
744994
745246
745502
745772
746040
746296
746552
746816
747072
747318
747578
747848
748114
748388
748674
748942
749198
749456
749734
750008
750270
750536
750804
751062
751338
751614
751882
752144
752420
752692
752966
753250
753520
753790
754074
754350
754622
754912
755192
755468
755750
756018
756278
756550
756828
757096
757376
757650
757910
758184
758452
758716
758992
759266
759530
759810
760086
760348
760614
760886
761148
761418
761688
761954
762236
762506
762772
763036
763298
763570
763842
764102
764372
764646
764916
765180
765446
765710
765964
766222
766476
766730
766988
767262
767524
767788
768056
768316
768572
768836
769086
769326
769580
769844
770106
770366
770638
770908
771172
771436
771704
771970
772236
772498
772766
773018
773276
773538
773796
774058
774322
774596
774870
775146
775422
775692
775960
776226
776482
776738
777012
777286
777552
777808
778074
778340
778594
778848
779116
779382
779656
779938
780216
780496
780790
781062
781348
781618
781886
782160
782428
782680
782936
783194
783450
783710
783972
784230
784492
784750
785004
785262
785528
785792
786056
786328
786588
786852
787124
787390
787648
787918
788186
788450
788718
788988
789250
789520
789792
790056
790332
790608
790872
791142
791410
791668
791934
792202
792466
792742
793008
793270
793534
793800
794054
794306
794562
794816
795070
795334
795602
795866
796136
796402
796664
796942
797204
797468
797736
798004
798264
798536
798810
799072
799340
799606
799866
800134
800392
800654
800920
801184
801458
801732
801992
802262
802530
802790
803056
803318
803574
803830
804092
804358
804614
804868
805124
805368
805602
805838
806064
806290
806516
806736
806958
807176
807396
807612
807828
808044
808260
808474
808690
808906
809120
809334
809548
809760
809972
810182
810390
810596
810800
811006
811212
811418
811624
811840
812072
812318
812576
812854
813132
813406
813684
813954
814210
814462
814720
814982
815236
815504
815766
816020
816276
816546
816810
817086
817376
817652
817934
818224
818494
818758
819030
819302
819570
819850
820118
820376
820646
820926
821188
821460
821732
822002
822262
822530
822808
823074
823342
823618
823884
824156
824426
824692
824974
825248
825514
825786
826062
826330
826610
826898
827170
827444
827718
827996
828256
828518
828772
829022
829268
829520
829778
830050
830314
830592
830870
831140
831420
831706
831976
832256
832532
832796
833068
833340
833606
833876
834154
834420
834694
834968
835234
835496
835762
836040
836318
836584
836858
837130
837390
837654
837904
838168
838424
838678
838936
839206
839466
839726
839990
840252
840516
840784
841040
841300
841548
841800
842064
842320
842582
842848
843112
843370
843630
843884
844142
844410
844678
844960
845236
845514
845796
846062
846338
846604
846872
847138
847400
847666
847932
848196
848450
848716
848984
849246
849500
849760
850030
850288
850548
850816
851080
851334
851586
851848
852120
852378
852636
852898
853162
853422
853688
853950
854208
854466
854728
854982
855242
855506
855760
856018
856286
856542
856808
857076
857346
857616
857882
858144
858400
858662
858922
859172
859424
859686
859946
860196
860448
860708
860962
861226
861486
861750
862006
862258
862504
862762
863024
863274
863526
863784
864042
864296
864544
864804
865054
865304
865556
865808
866054
866302
866554
866800
867050
867304
867550
867794
868038
868288
868534
868784
869032
869288
869536
869780
870032
870284
870532
870782
871032
871282
871538
871794
872042
872300
872554
872802
873050
873300
873554
873802
874052
874306
874556
874808
875056
875304
875552
875796
876038
876282
876528
876774
877022
877270
877522
877768
878020
878270
878518
878766
879016
879262
879506
879752
879994
880234
880480
880722
880970
881222
881474
881724
881982
882230
882476
882722
882972
883226
883482
883736
883994
884250
884506
884766
885026
885278
885540
885798
886056
886308
886562
886810
887054
887298
887540
887784
888028
888272
888518
888768
889018
889274
889526
889774
890028
890284
890540
890796
891046
891292
891540
891788
892034
892282
892528
892780
893032
893280
893534
893784
894034
894284
894530
894764
894996
895228
895452
895672
895892
896116
896332
896548
896760
896970
897176
897380
897586
897788
897994
898200
898408
898616
898824
899034
899248
899464
899676
899888
900096
900304
900516
900728
900942
901152
901362
901570
901780
901988
902202
902412
902622
902830
903038
903244
903450
903652
903852
904052
904248
904446
904646
904844
905042
905244
905446
905656
905872
906088
906304
906516
906728
906938
907148
907358
907568
907778
907988
908196
908404
908610
908810
909014
909216
909418
909618
909822
910028
910240
910458
910698
910942
911186
911430
911678
911920
912158
912394
912634
912872
913108
913342
913568
913790
914012
914240
914470
914698
914922
915140
915358
915572
915782
915996
916210
916424
916640
916856
917074
917286
917498
917714
917932
918154
918378
918600
918822
919040
919254
919466
919682
919900
920114
920330
920548
920768
920992
921214
921440
921670
921912
922152
922390
922622
922844
923068
923296
923534
923772
924012
924254
924492
924716
924942
925172
925404
925648
925904
926176
926444
926712
926974
927248
927534
927802
928058
928326
928596
928860
929116
929366
929606
929840
930068
930308
930578
930860
931122
931386
931670
931954
932222
932482
932764
933044
933318
933576
933850
934132
934400
934660
934930
935208
935478
935732
935998
936270
936532
936784
937050
937334
937608
937874
938154
938430
938694
938954
939228
939498
939752
940008
940276
940540
940792
941062
941336
941602
941854
942096
942334
942568
942798
943022
943256
943490
943722
943972
944236
944508
944766
945046
945328
945588
945850
946126
946394
946642
946882
947124
947370
947612
947850
948096
948358
948620
948876
949150
949422
949682
949950
950234
950516
950780
951044
951314
951576
951838
952108
952378
952642
952896
953158
953432
953706
953962
954226
954498
954776
955036
955310
955596
955872
956138
956412
956684
956940
957186
957438
957678
957914
958144
958382
958622
958872
959134
959384
959642
959916
960174
960426
960682
960950
961216
961472
961730
962000
962268
962530
962800
963076
963350
963624
963906
964184
964450
964706
964978
965246
965506
965768
966042
966306
966576
966854
967134
967398
967672
967950
968224
968486
968760
969036
969302
969568
969842
970112
970370
970638
970920
971202
971466
971738
972014
972282
972542
972810
973086
973348
973604
973874
974138
974396
974664
974928
975188
975452
975714
975968
976226
976486
976742
976996
977244
977480
977710
977928
978144
978372
978614
978866
979112
979358
979612
979874
980124
980372
980632
980900
981158
981424
981702
981976
982242
982510
982786
983062
983324
983602
983882
984152
984408
984682
984962
985236
985488
985746
986012
986274
986524
986782
987048
987320
987576
987852
988126
988388
988638
988908
989170
989426
989686
989956
990222
990482
990754
991028
991290
991562
991838
992102
992374
992650
992914
993186
993462
993734
993998
994274
994548
994808
995072
995336
995596
995848
996110
996380
996644
996900
997164
997432
997692
997954
998222
998488
998740
999006
999272
999532
999790
1000060
1000324
1000582
1000854
1001122
1001382
1001644
1001914
1002182
1002436
1002706
1002976
1003236
1003502
1003770
1004042
1004302
1004558
1004830
1005102
1005360
1005624
1005890
1006162
1006420
1006688
1006964
1007222
1007478
1007738
1008000
1008256
1008516
1008782
1009040
1009296
1009564
1009840
1010100
1010362
1010632
1010902
1011156
1011412
1011678
1011946
1012202
1012456
1012722
1012988
1013244
1013510
1013786
1014046
1014314
1014578
1014838
1015090
1015358
1015628
1015894
1016158
1016428
1016694
1016948
1017212
1017482
1017744
1018004
1018274
1018546
1018808
1019078
1019350
1019610
1019872
1020136
1020390
1020644
1020910
1021176
1021434
1021700
1021962
1022220
1022486
1022750
1023016
1023266
1023522
1023780
1024034
1024290
1024556
1024816
1025072
1025340
1025608
1025864
1026126
1026386
1026636
1026894
1027158
1027422
1027678
1027928
1028186
1028452
1028716
1028968
1029216
1029472
1029722
1029970
1030226
1030482
1030736
1030988
1031254
1031512
1031764
1032018
1032274
1032528
1032776
1033030
1033284
1033534
1033786
1034040
1034288
1034530
1034782
1035038
1035286
1035546
1035808
1036060
1036320
1036590
1036852
1037104
1037364
1037634
1037894
1038150
1038416
1038684
1038946
1039210
1039480
1039744
1039996
1040256
1040522
1040780
1041042
1041308
1041572
1041830
1042094
1042356
1042614
1042864
1043128
1043390
1043656
1043914
1044188
1044454
1044716
1044990
1045264
1045526
1045794
1046060
1046314
1046576
1046842
1047100
1047364
1047634
1047900
1048172
1048452
1048722
1048984
1049252
1049516
1049770
1050032
1050290
1050538
1050794
1051052
1051304
1051560
1051824
1052084
1052338
1052596
1052860
1053114
1053376
1053644
1053906
1054162
1054430
1054688
1054942
1055198
1055458
1055698
1055928
1056154
1056372
1056594
1056828
1057076
1057326
1057576
1057838
1058098
1058350
1058602
1058860
1059112
1059360
1059618
1059882
1060142
1060404
1060676
1060944
1061206
1061476
1061754
1062026
1062284
1062556
1062830
1063102
1063358
1063614
1063880
1064148
1064408
1064678
1064954
1065226
1065490
1065764
1066038
1066302
1066564
1066836
1067110
1067372
1067636
1067904
1068162
1068416
1068670
1068928
1069184
1069436
1069696
1069966
1070224
1070486
1070758
1071028
1071288
1071560
1071824
1072084
1072346
1072620
1072888
1073160
1073442
1073716
1073992
1074266
1074536
1074790
1075044
1075308
1075568
1075818
1076080
1076346
1076610
1076870
1077144
1077420
1077686
1077964
1078242
1078510
1078768
1079034
1079302
1079568
1079834
1080100
1080352
1080616
1080882
1081136
1081394
1081652
1081906
1082164
1082432
1082694
1082948
1083208
1083466
1083718
1083978
1084242
1084496
1084756
1085014
1085260
1085504
1085756
1086008
1086260
1086522
1086792
1087054
1087306
1087564
1087824
1088072
1088322
1088580
1088836
1089080
1089338
1089598
1089850
1090102
1090358
1090610
1090858
1091106
1091354
1091596
1091846
1092100
1092344
1092590
1092840
1093088
1093336
1093586
1093840
1094088
1094338
1094590
1094844
1095088
1095344
1095596
1095844
1096094
1096352
1096600
1096852
1097112
1097370
1097616
1097874
1098130
1098386
1098642
1098900
1099156
1099414
1099674
1099930
1100178
1100434
1100694
1100948
1101206
1101468
1101726
1101976
1102236
1102496
1102746
1103006
1103280
1103540
1103792
1104058
1104320
1104574
1104840
1105108
1105366
1105624
1105890
1106152
1106402
1106666
1106932
1107196
1107462
1107736
1108014
1108282
1108554
1108828
1109096
1109352
1109612
1109868
1110118
1110368
1110626
1110888
1111138
1111394
1111654
1111912
1112162
1112426
1112692
1112950
1113214
1113486
1113738
1113988
1114242
1114490
1114730
1114982
1115246
1115508
1115758
1116020
1116288
1116544
1116804
1117066
1117330
1117584
1117840
1118092
1118334
1118570
1118812
1119046
1119276
1119500
1119718
1119942
1120188
1120448
1120714
1120978
1121244
1121510
1121766
1122018
1122282
1122538
1122792
1123048
1123310
1123568
1123820
1124090
1124360
1124626
1124900
1125182
1125462
1125734
1126012
1126286
1126542
1126812
1127084
1127348
1127622
1127890
1128152
1128418
1128702
1128978
1129254
1129544
1129826
1130094
1130364
1130634
1130898
1131174
1131452
1131718
1131974
1132246
1132522
1132784
1133042
1133320
1133590
1133864
1134142
1134414
1134680
1134954
1135226
1135490
1135760
1136030
1136290
1136554
1136814
1137074
1137350
1137626
1137900
1138176
1138442
1138702
1138960
1139226
1139488
1139746
1140008
1140270
1140522
1140786
1141056
1141322
1141600
1141882
1142146
1142416
1142686
1142944
1143206
1143468
1143720
1143976
1144228
1144478
1144724
1144986
1145254
1145520
1145798
1146078
1146342
1146610
1146884
1147152
1147430
1147708
1147980
1148252
1148524
1148778
1149034
1149298
1149558
1149806
1150064
1150326
1150580
1150838
1151100
1151360
1151610
1151860
1152116
1152364
1152612
1152866
1153118
1153368
1153626
1153886
1154142
1154398
1154642
1154874
1155098
1155312
1155522
1155728
1155940
1156148
1156354
1156562
1156768
1156972
1157176
1157386
1157600
1157816
1158034
1158250
1158466
1158682
1158898
1159116
1159336
1159560
1159784
1160012
1160240
1160468
1160696
1160922
1161146
1161366
1161580
1161794
1162010
1162216
1162420
1162624
1162824
1163026
1163234
1163452
1163676
1163904
1164130
1164364
1164608
1164860
1165110
1165356
1165608
1165866
1166128
1166386
1166642
1166906
1167178
1167442
1167704
1167958
1168224
1168486
1168750
1169002
1169260
1169524
1169784
1170036
1170300
1170574
1170844
1171120
1171400
1171666
1171934
1172208
1172480
1172742
1173010
1173284
1173544
1173812
1174082
1174344
1174598
1174864
1175126
1175386
1175656
1175928
1176186
1176450
1176732
1177000
1177266
1177536
1177804
1178062
1178332
1178594
1178848
1179106
1179362
1179610
1179870
1180126
1180380
1180628
1180884
1181142
1181398
1181650
1181904
1182164
1182414
1182658
1182908
1183162
1183408
1183658
1183916
1184166
1184410
1184656
1184908
1185152
1185396
1185644
1185890
1186130
1186376
1186622
1186860
1187102
1187348
1187592
1187832
1188076
1188324
1188564
1188810
1189058
1189304
1189548
1189794
1190036
1190268
1190490
1190708
1190924
1191142
1191372
1191618
1191866
1192110
1192366
1192618
1192860
1193096
1193338
1193584
1193824
1194058
1194294
1194536
1194776
1195014
1195258
1195516
1195768
1196022
1196284
1196548
1196800
1197058
1197318
1197580
1197836
1198098
1198362
1198618
1198870
1199130
1199392
1199648
1199918
1200186
1200450
1200700
1200962
1201224
1201480
1201730
1201992
1202252
1202508
1202762
1203020
1203278
1203528
1203784
1204044
1204300
1204554
1204820
1205094
1205360
1205634
1205902
1206162
1206414
1206670
1206930
1207180
1207432
1207686
1207942
1208186
1208440
1208702
1208954
1209204
1209460
1209716
1209964
1210214
1210466
1210716
1210958
1211198
1211448
1211690
1211930
1212170
1212416
1212660
1212898
1213140
1213386
1213630
1213872
1214120
1214372
1214618
1214862
1215114
1215366
1215614
1215870
1216132
1216394
1216648
1216902
1217158
1217408
1217652
1217898
1218148
1218394
1218636
1218880
1219134
1219386
1219638
1219894
1220152
1220398
1220646
1220892
1221132
1221376
1221624
1221868
1222114
1222364
1222612
1222860
1223112
1223358
1223610
1223860
1224102
1224340
1224578
1224820
1225062
1225300
1225532
1225770
1226006
1226248
1226484
1226722
1226966
1227216
1227462
1227700
1227928
1228150
1228366
1228574
1228782
1228992
1229200
1229408
1229618
1229828
1230036
1230246
1230456
1230666
1230874
1231082
1231286
1231488
1231694
1231900
1232110
1232318
1232526
1232730
1232930
1233130
1233328
1233524
1233716
1233908
1234096
1234284
1234472
1234658
1234846
1235028
1235212
1235396
1235576
1235754
1235934
1236110
1236288
1236468
1236648
1236830
1237016
1237200
1237386
1237572
1237756
1237942
1238126
1238308
1238492
1238674
1238860
1239050
1239240
1239432
1239624
1239812
1240000
1240194
1240382
1240574
1240768
1240964
1241162
1241358
1241556
1241756
1241958
1242158
1242360
1242556
1242752
1242948
1243144
1243342
1243538
1243734
1243930
1244126
1244322
1244518
1244712
1244910
1245108
1245304
1245500
1245694
1245884
1246080
1246272
1246470
1246674
1246882
1247090
1247298
1247508
1247718
1247928
1248140
1248348
1248552
1248756
1248956
1249158
1249356
1249556
1249754
1249952
1250148
1250342
1250534
1250728
1250920
1251112
1251308
1251502
1251696
1251892
1252090
1252288
1252488
1252688
1252888
1253088
1253284
1253480
1253672
1253866
1254058
1254252
1254448
1254642
1254838
1255030
1255226
1255424
1255622
1255826
1256026
1256230
1256436
1256648
1256868
1257080
1257290
1257498
1257700
1257904
1258102
1258302
1258504
1258706
1258914
1259122
1259336
1259554
1259772
1259992
1260206
1260420
1260632
1260842
1261052
1261258
1261472
1261700
1261946
1262198
1262484
1262770
1263046
1263314
1263582
1263856
1264122
1264366
1264598
1264824
1265048
1265268
1265482
1265694
1265914
1266152
1266408
1266666
1266912
1267156
1267390
1267616
1267840
1268072
1268306
1268536
1268770
1269012
1269254
1269508
1269776
1270044
1270300
1270544
1270784
1271028
1271274
1271514
1271746
1271976
1272208
1272446
1272686
1272928
1273174
1273414
1273652
1273890
1274134
1274380
1274622
1274870
1275124
1275374
1275614
1275848
1276076
1276298
1276526
1276764
1277036
1277312
1277578
1277838
1278112
1278380
1278636
1278900
1279170
1279432
1279702
1279972
1280246
1280508
1280790
1281068
1281320
1281568
1281806
1282038
1282274
1282540
1282806
1283084
1283370
1283652
1283918
1284192
1284466
1284726
1284984
1285248
1285502
1285756
1286026
1286300
1286564
1286828
1287098
1287368
1287632
1287890
1288138
1288378
1288610
1288834
1289064
1289306
1289568
1289836
1290098
1290364
1290630
1290886
1291140
1291400
1291658
1291906
1292162
1292426
1292670
1292910
1293150
1293388
1293622
1293862
1294100
1294334
1294560
1294782
1295000
1295222
1295454
1295692
1295932
1296168
1296400
1296626
1296854
1297084
1297314
1297542
1297778
1298016
1298250
1298476
1298704
1298934
1299164
1299394
1299628
1299864
1300104
1300344
1300582
1300828
1301080
1301330
1301576
1301824
1302070
1302316
1302556
1302802
1303048
1303294
1303534
1303780
1304030
1304264
1304492
1304712
1304930
1305144
1305362
1305588
1305826
1306068
1306310
1306546
1306792
1307036
1307276
1307514
1307750
1307990
1308232
1308472
1308718
1308966
1309216
1309460
1309700
1309950
1310188
1310424
1310662
1310898
1311134
1311364
1311600
1311824
1312050
1312266
1312484
1312698
1312916
1313134
1313356
1313582
1313802
1314022
1314240
1314456
1314682
1314908
1315136
1315368
1315604
1315840
1316078
1316320
1316566
1316810
1317050
1317296
1317548
1317794
1318038
1318282
1318538
1318790
1319036
1319270
1319498
1319716
1319932
1320152
1320382
1320618
1320856
1321100
1321336
1321566
1321792
1322020
1322258
1322498
1322736
1322980
1323224
1323464
1323694
1323928
1324170
1324412
1324654
1324904
1325154
1325400
1325640
1325882
1326128
1326366
1326604
1326844
1327090
1327330
1327570
1327804
1328030
1328250
1328466
1328680
1328896
1329118
1329350
1329588
1329828
1330062
1330300
1330536
1330772
1331002
1331228
1331456
1331688
1331910
1332136
1332362
1332590
1332820
1333046
1333280
1333514
1333752
1333984
1334216
1334454
1334692
1334928
1335164
1335394
1335626
1335860
1336086
1336308
1336524
1336744
1336958
1337172
1337388
1337614
1337842
1338068
1338298
1338526
1338756
1338984
1339206
1339430
1339648
1339862
1340074
1340284
1340494
1340704
1340914
1341122
1341330
1341540
1341750
1341960
1342172
1342392
1342618
1342848
1343076
1343308
1343540
1343766
1343988
1344208
1344438
1344668
1344904
1345136
1345372
1345612
1345854
1346094
1346332
1346574
1346818
1347060
1347298
1347528
1347752
1347976
1348192
1348410
1348622
1348832
1349042
1349248
1349454
1349662
1349878
1350102
1350320
1350546
1350772
1351004
1351232
1351460
1351688
1351920
1352152
1352380
1352610
1352846
1353082
1353316
1353550
1353784
1354022
1354258
1354486
1354714
1354940
1355170
1355398
1355624
1355848
1356074
1356308
1356540
1356766
1356998
1357238
1357472
1357704
1357930
1358164
1358398
1358632
1358862
1359094
1359328
1359564
1359796
1360028
1360262
1360498
1360730
1360960
1361196
1361428
1361658
1361884
1362116
1362346
1362582
1362816
1363048
1363286
1363524
1363762
1363994
1364224
1364456
1364688
1364916
1365144
1365374
1365604
1365832
1366058
1366288
1366518
1366750
1366978
1367210
1367442
1367672
1367898
1368124
1368354
1368582
1368810
1369036
1369272
1369508
1369746
1369978
1370214
1370452
1370688
1370918
1371150
1371382
1371616
1371844
1372072
1372308
1372540
1372766
1372984
1373202
1373414
1373622
1373836
1374056
1374282
1374506
1374732
1374964
1375192
1375418
1375638
1375864
1376084
1376306
1376522
1376740
1376960
1377182
1377406
1377628
1377856
1378084
1378304
1378522
1378742
1378970
1379198
1379430
1379664
1379906
1380150
1380390
1380628
1380866
1381098
1381334
1381564
1381794
1382024
1382252
1382482
1382708
1382940
1383172
1383402
1383624
1383846
1384066
1384284
1384500
1384714
1384924
1385132
1385342
1385558
1385774
1385994
1386210
1386422
1386632
1386836
1387038
1387234
1387436
1387632
1387832
1388030
1388228
1388428
1388628
1388830
1389032
1389234
1389434
1389632
1389832
1390030
1390226
1390424
1390618
1390814
1391010
1391202
1391398
1391594
1391790
1391986
1392182
1392378
1392576
1392772
1392966
1393162
1393356
1393550
1393740
1393932
1394128
1394318
1394508
1394698
1394884
1395074
1395260
1395446
1395630
1395816
1396000
1396186
1396370
1396554
1396740
1396924
1397106
1397288
1397466
1397646
1397826
1398006
1398190
1398374
1398560
1398748
1398936
1399122
1399306
1399488
1399668
1399848
1400028
1400208
1400386
1400564
1400744
1400922
1401100
1401278
1401454
1401632
1401808
1401982
1402158
1402332
1402504
1402680
1402852
1403022
1403194
1403366
1403536
1403706
1403876
1404046
1404214
1404384
1404552
1404718
1404886
1405054
1405224
1405396
1405568
1405742
1405914
1406082
1406254
1406426
1406596
1406768
1406940
1407110
1407282
1407454
1407624
1407794
1407964
1408134
1408304
1408476
1408646
1408818
1408988
1409158
1409326
1409496
1409664
1409832
1410000
1410166
1410332
1410498
1410666
1410832
1410998
1411164
1411330
1411494
1411658
1411826
1411992
1412156
1412322
1412486
1412652
1412816
1412982
1413148
1413312
1413478
1413644
1413808
1413976
1414140
1414306
1414474
1414642
1414808
1414974
1415142
1415308
1415476
1415642
1415808
1415976
1416140
1416304
1416468
1416634
1416798
1416960
1417124
1417288
1417450
1417614
1417778
1417944
1418110
1418276
1418442
1418608
1418774
1418940
1419104
1419270
1419434
1419598
1419762
1419924
1420088
1420252
1420414
1420576
1420738
1420898
1421060
1421220
1421380
1421542
1421704
1421866
1422030
1422192
1422356
1422520
1422684
1422848
1423012
1423174
1423338
1423502
1423668
1423832
1423998
1424162
1424326
1424488
1424654
1424818
1424984
1425152
1425322
1425494
1425664
1425836
1426008
1426180
1426354
1426528
1426698
1426872
1427044
1427218
1427390
1427564
1427736
1427912
1428086
1428258
1428430
1428602
1428770
1428938
1429104
1429270
1429438
1429604
1429772
1429940
1430106
1430274
1430444
1430614
1430786
1430956
1431128
1431304
1431480
1431656
1431830
1432006
1432184
1432364
1432544
1432724
1432902
1433080
1433256
1433434
1433608
1433782
1433956
1434128
1434302
1434478
1434654
1434830
1435010
1435190
1435374
1435556
1435738
1435918
1436102
1436284
1436468
1436650
1436830
1437012
1437192
1437368
1437546
1437722
1437898
1438076
1438252
1438430
1438612
1438792
1438970
1439150
1439332
1439512
1439696
1439878
1440062
1440248
1440436
1440626
1440816
1441006
1441194
1441380
1441564
1441748
1441928
1442106
1442284
1442460
1442638
1442816
1442996
1443178
1443362
1443548
1443734
1443920
1444106
1444290
1444472
1444654
1444834
1445014
1445194
1445372
1445550
1445732
1445914
1446094
1446274
1446452
1446632
1446816
1446998
1447184
1447372
1447562
1447756
1447948
1448136
1448326
1448518
1448708
1448898
1449084
1449270
1449456
1449640
1449828
1450012
1450196
1450380
1450560
1450740
1450918
1451094
1451270
1451448
1451624
1451800
1451980
1452160
1452340
1452524
1452708
1452892
1453078
1453264
1453448
1453632
1453814
1453998
1454178
1454360
1454542
1454726
1454912
1455100
1455288
1455476
1455660
1455842
1456022
1456200
1456384
1456586
1456846
1457124
1457386
1457620
1457838
1458050
1458254
1458452
1458646
1458832
1459018
1459200
1459380
1459558
1459734
1459908
1460086
1460262
1460438
1460616
1460794
1460972
1461150
1461328
1461506
1461684
1461862
1462040
1462220
1462402
1462584
1462768
1462950
1463138
1463328
1463514
1463702
1463888
1464074
1464264
1464456
1464650
1464840
1465036
1465236
1465438
1465640
1465840
1466030
1466222
1466414
1466608
1466802
1467012
1467230
1467472
1467722
1467956
1468170
1468374
1468574
1468772
1468968
1469166
1469364
1469560
1469760
1469956
1470154
1470352
1470544
1470736
1470924
1471110
1471292
1471472
1471654
1471838
1472028
1472216
1472402
1472590
1472782
1472978
1473172
1473366
1473556
1473746
1473934
1474118
1474302
1474486
1474670
1474858
1475048
1475242
1475436
1475628
1475822
1476014
1476204
1476392
1476578
1476764
1476952
1477138
1477324
1477512
1477702
1477892
1478080
1478270
1478460
1478652
1478844
1479038
1479228
1479418
1479606
1479798
1479990
1480182
1480372
1480560
1480744
1480930
1481120
1481310
1481500
1481690
1481878
1482068
1482262
1482458
1482654
1482848
1483044
1483238
1483432
1483634
1483836
1484036
1484236
1484434
1484638
1484834
1485028
1485224
1485416
1485606
1485794
1485982
1486170
1486354
1486536
1486716
1486894
1487072
1487248
1487424
1487602
1487780
1487970
1488158
1488344
1488528
1488716
1488900
1489084
1489268
1489448
1489630
1489814
1489996
1490184
1490376
1490568
1490762
1490952
1491142
1491332
1491518
1491706
1491896
1492084
1492268
1492456
1492644
1492830
1493016
1493202
1493390
1493576
1493762
1493952
1494142
1494334
1494524
1494726
1494964
1495228
1495490
1495732
1495956
1496172
1496382
1496584
1496782
1496974
1497162
1497346
1497530
1497718
1497908
1498094
1498280
1498464
1498648
1498830
1499014
1499200
1499388
1499576
1499764
1499952
1500138
1500322
1500508
1500690
1500876
1501062
1501248
1501434
1501620
1501804
1501988
1502170
1502350
1502528
1502706
1502880
1503058
1503232
1503406
1503582
1503758
1503936
1504120
1504302
1504484
1504668
1504850
1505034
1505218
1505400
1505584
1505768
1505948
1506128
1506308
1506486
1506666
1506842
1507020
1507200
1507378
1507562
1507742
1507926
1508110
1508292
1508474
1508654
1508832
1509010
1509186
1509364
1509542
1509728
1509912
1510100
1510282
1510462
1510642
1510818
1510994
1511172
1511346
1511522
1511698
1511872
1512044
1512218
1512390
1512564
1512736
1512910
1513082
1513258
1513432
1513608
1513792
1513974
1514160
1514346
1514536
1514728
1514922
1515118
1515318
1515514
1515712
1515914
1516116
1516316
1516516
1516714
1516914
1517120
1517340
1517554
1517768
1517976
1518180
1518378
1518570
1518760
1518948
1519134
1519318
1519502
1519684
1519866
1520054
1520244
1520438
1520626
1520818
1521008
1521198
1521392
1521588
1521786
1521982
1522178
1522374
1522570
1522766
1522962
1523152
1523342
1523530
1523716
1523902
1524086
1524268
1524452
1524632
1524814
1524996
1525172
1525348
1525522
1525698
1525878
1526062
1526254
1526444
1526632
1526818
1527004
1527188
1527368
1527552
1527732
1527910
1528090
1528270
1528448
1528626
1528806
1528986
1529168
1529350
1529536
1529720
1529906
1530092
1530278
1530466
1530652
1530838
1531024
1531208
1531388
1531568
1531748
1531930
1532114
1532298
1532482
1532672
1532862
1533050
1533244
1533440
1533642
1533840
1534038
1534236
1534432
1534628
1534820
1535012
1535202
1535392
1535580
1535768
1535954
1536142
1536330
1536516
1536706
1536896
1537088
1537284
1537476
1537670
1537862
1538050
1538236
1538418
1538600
1538780
1538960
1539142
1539324
1539504
1539686
1539872
1540054
1540242
1540426
1540612
1540800
1540986
1541176
1541368
1541558
1541754
1541948
1542144
1542336
1542526
1542716
1542902
1543086
1543268
1543448
1543626
1543804
1543978
1544152
1544326
1544498
1544672
1544850
1545032
1545216
1545412
1545626
1545844
1546062
1546274
1546480
1546674
1546868
1547058
1547242
1547428
1547614
1547800
1547990
1548176
1548364
1548552
1548738
1548922
1549108
1549300
1549496
1549692
1549888
1550082
1550274
1550464
1550652
1550838
1551024
1551206
1551390
1551570
1551748
1551926
1552104
1552282
1552462
1552640
1552818
1553000
1553186
1553368
1553570
1553776
1553980
1554182
1554380
1554580
1554774
1554964
1555156
1555342
1555526
1555712
1555896
1556080
1556264
1556444
1556630
1556826
1557030
1557232
1557438
1557644
1557846
1558050
1558254
1558482
1558742
1558994
1559222
1559438
1559648
1559850
1560048
1560244
1560440
1560630
1560818
1561004
1561190
1561370
1561550
1561732
1561914
1562104
1562302
1562506
1562722
1562946
1563164
1563382
1563596
1563804
1564010
1564216
1564422
1564628
1564832
1565036
1565242
1565444
1565642
1565838
1566034
1566236
1566444
1566650
1566856
1567062
1567268
1567478
1567694
1567916
1568140
1568366
1568586
1568800
1569004
1569204
1569396
1569584
1569774
1569970
1570178
1570386
1570588
1570786
1570980
1571170
1571360
1571548
1571736
1571926
1572112
1572298
1572484
1572666
1572850
1573034
1573216
1573396
1573576
1573756
1573938
1574120
1574302
1574482
1574658
1574834
1575014
1575192
1575380
1575592
1575844
1576108
1576368
1576634
1576884
1577118
1577334
1577546
1577752
1577948
1578144
1578336
1578524
1578712
1578898
1579080
1579262
1579444
1579624
1579808
1580006
1580200
1580390
1580574
1580758
1580938
1581112
1581288
1581460
1581634
1581812
1581996
1582182
1582366
1582546
1582726
1582904
1583080
1583254
1583422
1583600
1583772
1583940
1584112
1584286
1584466
1584646
1584828
1585018
1585220
1585428
1585628
1585822
1586010
1586194
1586376
1586556
1586740
1586924
1587110
1587300
1587488
1587670
1587860
1588066
1588278
1588488
1588694
1588898
1589096
1589290
1589482
1589672
1589860
1590050
1590238
1590428
1590614
1590798
1590978
1591156
1591332
1591508
1591680
1591852
1592022
1592190
1592358
1592524
1592690
1592856
1593022
1593188
1593352
1593518
1593682
1593848
1594016
1594184
1594350
1594518
1594682
1594846
1595010
1595172
1595334
1595500
1595660
1595820
1595978
1596136
1596292
1596450
1596606
1596760
1596916
1597072
1597228
1597386
1597552
1597720
1597892
1598074
1598264
1598454
1598642
1598822
1599000
1599174
1599346
1599516
1599682
1599846
1600010
1600176
1600340
1600502
1600668
1600834
1601002
1601174
1601346
1601524
1601702
1601872
1602044
1602214
1602384
1602568
1602756
1602946
1603132
1603314
1603496
1603676
1603858
1604040
1604222
1604406
1604590
1604776
1604960
1605150
1605342
1605534
1605726
1605920
1606112
1606304
1606494
1606690
1606888
1607088
1607298
1607516
1607726
1607936
1608150
1608360
1608566
1608770
1608972
1609170
1609368
1609564
1609760
1609954
1610144
1610334
1610524
1610710
1610900
1611090
1611280
1611468
1611656
1611842
1612024
1612204
1612380
1612554
1612730
1612908
1613084
1613258
1613434
1613610
1613788
1613966
1614146
1614326
1614508
1614690
1614872
1615054
1615234
1615416
1615594
1615772
1615952
1616130
1616308
1616486
1616664
1616842
1617020
1617196
1617374
1617550
1617724
1617900
1618076
1618252
1618436
1618616
1618792
1618972
1619146
1619320
1619492
1619662
1619834
1620004
1620174
1620342
1620514
1620684
1620854
1621024
1621194
1621366
1621534
1621702
1621874
1622048
1622218
1622388
1622562
1622734
1622908
1623084
1623262
1623442
1623630
1623822
1624022
1624238
1624450
1624654
1624854
1625050
1625240
1625426
1625612
1625792
1625972
1626154
1626332
1626512
1626694
1626876
1627058
1627242
1627430
1627618
1627806
1627992
1628180
1628368
1628554
1628740
1628926
1629116
1629310
1629502
1629692
1629886
1630082
1630282
1630480
1630680
1630886
1631090
1631298
1631504
1631712
1631914
1632118
1632322
1632528
1632740
1632956
1633172
1633384
1633592
1633796
1633998
1634196
1634394
1634598
1634800
1635002
1635220
1635442
1635664
1635884
1636116
1636354
1636582
1636812
1637042
1637264
1637498
1637736
1637970
1638208
1638468
1638716
1638962
1639202
1639432
1639662
1639898
1640124
1640346
1640564
1640768
1640966
1641166
1641358
1641554
1641752
1641968
1642188
1642414
1642640
1642852
1643056
1643258
1643458
1643654
1643850
1644046
1644238
1644430
1644624
1644818
1645016
1645210
1645404
1645598
1645790
1645982
1646172
1646358
1646546
1646732
1646916
1647100
1647282
1647464
1647646
1647826
1648006
1648186
1648364
1648544
1648720
1648896
1649072
1649248
1649422
1649598
1649770
1649942
1650114
1650286
1650454
1650622
1650790
1650956
1651122
1651288
1651450
1651614
1651776
1651938
1652100
1652264
1652428
1652592
1652756
1652918
1653082
1653246
1653414
1653582
1653756
1653942
1654146
1654356
1654564
1654762
1654956
1655142
1655324
1655502
1655678
1655854
1656034
1656214
1656396
1656578
1656760
1656942
1657124
1657306
1657486
1657662
1657840
1658020
1658196
1658374
1658550
1658726
1658900
1659072
1659244
1659416
1659588
1659762
1659942
1660130
1660322
1660514
1660706
1660896
1661084
1661272
1661458
1661646
1661832
1662020
1662208
1662394
1662580
1662764
1662944
1663124
1663302
1663480
1663660
1663836
1664014
1664192
1664368
1664546
1664722
1664896
1665070
1665246
1665422
1665604
1665798
1666004
1666218
1666430
1666640
1666842
1667036
1667228
1667416
1667602
1667790
1667980
1668174
1668364
1668562
1668770
1668982
1669200
1669430
1669660
1669888
1670106
1670318
1670524
1670724
1670920
1671120
1671322
1671520
1671720
1671918
1672116
1672314
1672512
1672710
1672906
1673098
1673290
1673482
1673670
1673864
1674054
1674246
1674436
1674624
1674810
1674994
1675180
1675370
1675562
1675758
1675960
1676168
1676378
1676584
1676784
1676980
1677174
1677368
1677562
1677754
1677946
1678138
1678338
1678550
1678764
1678974
1679182
1679386
1679596
1679804
1680012
1680212
1680410
1680600
1680802
1681010
1681228
1681448
1681660
1681868
1682076
1682286
1682498
1682706
1682916
1683130
1683336
1683540
1683736
1683932
1684126
1684322
1684518
1684714
1684908
1685104
1685300
1685500
1685710
1685926
1686130
1686334
1686544
1686746
1686944
1687152
1687360
1687568
1687776
1687988
1688200
1688408
1688616
1688824
1689028
1689232
1689430
1689626
1689824
1690016
1690206
1690394
1690582
1690768
1690950
1691136
1691326
1691518
1691712
1691904
1692098
1692290
1692480
1692668
1692852
1693034
1693214
1693392
1693566
1693740
1693916
1694092
1694272
1694454
1694636
1694818
1694998
1695180
1695360
1695538
1695716
1695894
1696072
1696250
1696434
1696616
1696798
1696982
1697166
1697352
1697536
1697720
1697904
1698090
1698280
1698474
1698666
1698862
1699060
1699258
1699458
1699656
1699850
1700042
1700230
1700418
1700604
1700792
1700982
1701170
1701356
1701544
1701728
1701912
1702092
1702274
1702454
1702648
1702864
1703094
1703314
1703526
1703738
1703974
1704220
1704460
1704706
1704950
1705192
1705420
1705644
1705864
1706088
1706314
1706548
1706778
1707028
1707272
1707508
1707738
1707962
1708192
1708418
1708644
1708876
1709114
1709346
1709606
1709856
1710090
1710322
1710554
1710778
1711002
1711232
1711456
1711680
1711918
1712156
1712392
1712630
1712886
1713134
1713394
1713662
1713922
1714168
1714402
1714626
1714848
1715076
1715316
1715578
1715848
1716116
1716390
1716650
1716912
1717190
1717458
1717714
1717954
1718200
1718444
1718690
1718928
1719160
1719388
1719612
1719834
1720058
1720288
1720524
1720750
1720976
1721198
1721416
1721632
1721848
1722068
1722294
1722530
1722778
1723048
1723316
1723606
1723896
1724168
1724438
1724710
1724974
1725222
1725456
1725684
1725914
1726172
1726426
1726688
1726960
1727234
1727496
1727766
1728028
1728278
1728536
1728800
1729060
1729322
1729588
1729858
1730120
1730386
1730648
1730898
1731156
1731410
1731652
1731902
1732154
1732404
1732674
1732946
1733220
1733478
1733738
1734006
1734270
1734522
1734764
1735004
1735234
1735458
1735672
1735892
1736130
1736368
1736612
1736876
1737126
1737360
1737584
1737808
1738030
1738252
1738488
1738728
1738978
1739220
1739458
1739734
1739992
1740246
1740498
1740746
1740982
1741212
1741434
1741654
1741866
1742074
1742278
1742484
1742694
1742930
1743208
1743510
1743806
1744096
1744372
1744622
1744858
1745084
1745314
1745560
1745814
1746074
1746328
1746588
1746856
1747138
1747414
1747682
1747940
1748186
1748430
1748668
1748898
1749132
1749360
1749588
1749820
1750072
1750328
1750582
1750840
1751104
1751356
1751602
1751842
1752070
1752296
1752524
1752758
1752986
1753218
1753456
1753702
1753938
1754174
1754412
1754658
1754902
1755146
1755394
1755648
1755902
1756148
1756396
1756656
1756910
1757160
1757404
1757644
1757880
1758116
1758358
1758608
1758854
1759096
1759348
1759598
1759848
1760092
1760340
1760582
1760822
1761062
1761312
1761560
1761806
1762046
1762284
1762526
1762766
1763004
1763244
1763488
1763728
1763970
1764204
1764440
1764670
1764896
1765122
1765350
1765578
1765808
1766042
1766280
1766518
1766758
1767006
1767248
1767484
1767722
1767956
1768196
1768436
1768670
1768900
1769136
1769370
1769604
1769838
1770070
1770312
1770572
1770822
1771068
1771322
1771578
1771820
1772060
1772294
1772530
1772762
1772994
1773228
1773458
1773688
1773910
1774128
1774342
1774554
1774770
1774990
1775220
1775452
1775688
1775926
1776166
1776406
1776640
1776872
1777106
1777332
1777552
1777774
1777998
1778230
1778466
1778706
1778948
1779182
1779412
1779638
1779858
1780074
1780294
1780524
1780776
1781036
1781284
1781516
1781744
1781964
1782182
1782400
1782622
1782850
1783076
1783298
1783512
1783728
1783942
1784152
1784364
1784584
1784814
1785044
1785286
1785536
1785788
1786034
1786286
1786544
1786796
1787048
1787288
1787524
1787760
1787998
1788238
1788494
1788764
1789024
1789276
1789534
1789796
1790050
1790298
1790540
1790776
1791010
1791242
1791480
1791716
1791954
1792194
1792440
1792682
1792920
1793154
1793384
1793620
1793856
1794100
1794340
1794592
1794840
1795088
1795328
1795566
1795794
1796018
1796238
1796460
1796686
1796910
1797152
1797394
1797634
1797872
1798118
1798358
1798598
1798842
1799092
1799340
1799592
1799856
