peaks
238
480
726
962
1194
1426
1650
1870
2094
2320
2548
2776
2994
3214
3444
3676
3912
4146
4382
4616
4854
5096
5338
5580
5824
6064
6306
6542
6778
7012
7248
7480
7702
7916
8124
8320
8512
8696
8880
9064
9248
9426
9606
9784
9962
10138
10314
10494
10672
10852
11028
11212
11394
11578
11766
11952
12142
12332
12524
12714
12904
13094
13284
13472
13658
13844
14028
14210
14396
14574
14760
14946
15136
15330
15530
15738
15952
16178
16410
16656
16900
17142
17384
17620
17852
18074
18292
18520
18742
18952
19168
19396
19638
19864
20092
20324
20562
20784
20998
21202
21404
21608
21820
22030
22246
22464
22692
22948
23198
23446
23674
23894
24104
24318
24532
24744
24954
25168
25380
25584
25806
26032
26254
26476
26698
26896
27102
27310
27512
27716
27914
28112
28320
28534
28742
28942
29138
29340
29542
29752
29960
30172
30388
30602
30830
31058
31286
31512
31732
31940
32160
32378
32608
32836
33058
33284
33520
33770
34020
34252
34472
34690
34904
35110
35320
35532
35758
35974
36180
36390
36604
36844
37088
37310
37536
37764
37990
38216
38442
38664
38878
39100
39332
39556
39774
40002
40216
40436
40654
40878
41098
41316
41528
41740
41968
42200
42418
42642
42858
43082
43318
43568
43804
44028
44250
44462
44686
44952
45218
45478
45730
45964
46200
46432
46664
46896
47124
47344
47560
47774
47988
48202
48418
48632
48842
49056
49274
49492
49712
49918
50114
50304
50494
50672
50856
51040
51228
51416
51610
51820
52034
52260
52480
52696
52912
53130
53362
53608
53862
54112
54346
54588
54806
55026
55256
55496
55734
55976
56206
56436
56658
56888
57122
57362
57588
57814
58026
58246
58472
58696
58912
59130
59342
59566
59804
60034
60260
60470
60688
60924
61180
61448
61696
61936
62164
62404
62644
62900
63154
63394
63618
63834
64052
64278
64520
64764
65006
65236
65456
65686
65936
66208
66448
66688
66918
67128
67356
67580
67816
68052
68280
68508
68734
68968
69200
69436
69672
69910
70124
70350
70570
70790
71012
71226
71434
71664
71910
72136
72356
72568
72784
73002
73218
73442
73670
73896
74128
74366
74610
74862
75100
75310
75518
75726
75938
76156
76394
76656
76940
77204
77462
77714
77962
78196
78432
78668
78908
79142
79382
79610
79846
80082
80318
80548
80782
81014
81254
81496
81736
81974
82220
82470
82722
82978
83230
83476
83712
83950
84188
84426
84666
84906
85136
85370
85604
85838
86064
86284
86474
86664
86850
87032
87218
87408
87608
87816
88038
88278
88518
88758
88990
89216
89432
89654
89886
90118
90338
90560
90778
91006
91244
91474
91702
91940
92218
92480
92734
92990
93242
93476
93700
93918
94128
94346
94564
94828
95088
95330
95560
95784
96008
96220
96440
96658
96872
97086
97300
97516
97738
97962
98204
98440
98664
98884
99108
99332
99558
99776
99992
100214
100438
100658
100866
101094
101324
101550
101780
102006
102228
102446
102662
102886
103118
103350
103580
103802
104024
104242
104466
104692
104912
105128
105344
105566
105806
106052
106292
106524
106756
106978
107208
107442
107674
107904
108128
108348
108572
108798
109030
109258
109488
109716
109944
110182
110416
110654
110890
111116
111330
111554
111790
112040
112274
112500
112722
112950
113188
113428
113658
113872
114076
114268
114460
114650
114838
115026
115210
115394
115572
115756
115938
116120
116304
116488
116676
116872
117080
117312
117572
117830
118090
118328
118560
118808
119054
119298
119538
119770
119980
120186
120402
120634
120876
121138
121378
121620
121862
122106
122350
122578
122796
123020
123254
123480
123700
123922
124144
124372
124602
124840
125078
125314
125538
125756
125974
126198
126420
126652
126872
127092
127310
127536
127758
127992
128224
128442
128660
128884
129116
129346
129572
129790
130020
130260
130498
130726
130952
131184
131426
131672
131908
132144
132372
132600
132828
133060
133288
133514
133740
133970
134202
134426
134648
134870
135098
135340
135600
135848
136094
136336
136566
136808
137056
137306
137540
137766
137986
138206
138426
138658
138896
139126
139354
139582
139816
140044
140274
140506
140730
140954
141170
141398
141632
141868
142104
142336
142566
142796
143026
143250
143474
143700
143920
144142
144364
144588
144814
145038
145260
145484
145714
145960
146206
146442
146674
146904
147146
147386
147628
147864
148090
148314
148544
148772
148994
149212
149434
149660
149894
150136
150376
150598
150830
151062
151306
151566
151822
152054
152296
152548
152806
153052
153286
153508
153740
153976
154212
154458
154696
154932
155170
155408
155646
155880
156108
156330
156544
156774
156996
157226
157458
157680
157892
158110
158330
158552
158776
158992
159204
159420
159642
159866
160104
160346
160570
160788
161014
161260
161510
161748
161972
162202
162436
162676
162916
163156
163384
163612
163836
164072
164308
164536
164768
164984
165212
165446
165686
165912
166128
166342
166554
166770
166992
167228
167456
167676
167894
168126
168376
168618
168860
169094
169310
169540
169774
170012
170244
170466
170690
170918
171152
171410
171714
171980
172240
172494
172740
172984
173224
173460
173692
173916
174138
174366
174598
174836
175070
175298
175524
175752
175988
176220
176456
176688
176920
177144
177378
177614
177852
178090
178326
178556
178788
179020
179258
179490
179720
179944
180186
180418
180650
180890
181122
181354
181586
181820
182054
182292
182528
182758
182992
183228
183462
183688
183902
184112
184320
184532
184744
184958
185178
185394
185630
185874
186112
186342
186566
186792
187028
187272
187518
187754
187984
188208
188438
188674
188904
189128
189350
189568
189786
190012
190242
190476
190708
190942
191164
191392
191622
191852
192086
192310
192530
192746
192972
193196
193416
193644
193872
194092
194318
194542
194770
194990
195208
195422
195648
195876
196114
196346
196570
196788
197010
197232
197458
197682
197904
198124
198342
198558
198778
198992
199208
199422
199638
199860
200086
200312
200534
200754
200978
201206
201434
201662
201890
202110
202338
202568
202800
203034
203260
203480
203698
203922
204148
204376
204602
204824
205040
205262
205486
205708
205936
206162
206388
206610
206832
207068
207304
207534
207758
207982
208206
208436
208674
208918
209152
209380
209604
209824
210050
210280
210506
210728
210950
211176
211404
211632
211860
212082
212298
212516
212744
212974
213206
213426
213648
213864
214090
214322
214546
214770
214990
215204
215420
215640
215860
216084
216310
216536
216762
216998
217240
217476
217704
217926
218140
218358
218578
218800
219024
219244
219466
219694
219928
220204
220452
220686
220906
221118
221330
221550
221774
221996
222220
222442
222670
222904
223142
223376
223610
223840
224066
224294
224518
224744
224970
225192
225416
225646
225868
226098
226320
226544
226768
226998
227246
227480
227708
227928
228148
228372
228594
228822
229052
229280
229502
229736
229978
230214
230440
230660
230870
231086
231306
231536
231762
231984
232208
232424
232652
232888
233124
233358
233580
233798
234018
234238
234458
234680
234906
235130
235352
235584
235814
236038
236262
236484
236704
236924
237150
237380
237608
237842
238066
238294
238528
238754
238978
239192
239406
239630
239862
240100
240334
240570
240796
241028
241266
241510
241746
241976
242200
242430
242656
242880
243100
243324
243544
243762
243990
244224
244458
244690
244918
245138
245356
245572
245800
246024
246248
246472
246694
246918
247150
247388
247620
247852
248076
248302
248534
248766
249006
249238
249466
249698
249916
250148
250380
250612
250848
251070
251298
251538
251768
251998
252228
252460
252672
252898
253116
253332
253548
253770
253988
254210
254444
254678
254904
255130
255348
255564
255784
256004
256224
256440
256662
256880
257102
257330
257560
257790
258014
258230
258438
258640
258836
259026
259216
259402
259590
259782
259976
260182
260422
260684
260942
261196
261432
261658
261870
262068
262262
262448
262636
262820
263004
263194
263390
263590
263796
264012
264248
264510
264780
265046
265312
265572
265834
266094
266348
266602
266852
267100
267340
267570
267792
268002
268200
268394
268590
268776
268960
269144
269330
269510
269692
269868
270054
270230
270404
270572
270752
270920
271084
271248
271412
271576
271738
271898
272056
272214
272372
272528
272684
272842
273004
273182
273388
273624
273882
274146
274420
274700
274968
275232
275484
275736
275986
276228
276468
276704
276946
277184
277426
277670
277916
278168
278416
278664
278904
279148
279376
279586
279774
279958
280156
280358
280566
280772
280962
281154
281346
281534
281728
281908
282092
282276
282460
282650
282844
283050
283280
283528
283790
284044
284302
284562
284820
285074
285322
285578
285830
286090
286350
286614
286870
287122
287374
287628
287888
288144
288400
288646
288876
289074
289276
289496
289728
289954
290178
290420
290660
290904
291144
291384
291628
291870
292112
292356
292606
292848
293102
293350
293592
293836
294078
294314
294546
294776
295002
295220
295424
295624
295814
295998
296186
296366
296556
296740
296920
297108
297302
297486
297674
297864
298044
298230
298420
298602
298786
298974
299160
299346
299528
299708
299888
300080
300286
300508
300758
301020
301288
301552
301816
302072
302328
302586
302840
303094
303334
303582
303828
304078
304326
304582
304838
305086
305334
305576
305814
306050
306282
306508
306728
306954
307184
307418
307656
307894
308120
308354
308594
308840
309082
309330
309576
309826
310076
310326
310574
310824
311072
311322
311562
311812
312062
312314
312568
312820
313066
313306
313552
313798
314042
314286
314518
314756
314998
315236
315474
315710
315944
316174
316408
316636
316862
317098
317330
317570
317810
318058
318300
318542
318784
319026
319278
319534
319792
320048
320292
320528
320722
320916
321118
321336
321576
321832
322094
322368
322626
322862
323080
323302
323526
323766
324018
324264
324504
324730
324956
325184
325408
325654
325894
326122
326354
326584
326806
327022
327252
327486
327732
327962
328170
328388
328608
328834
329060
329282
329510
329768
330032
330274
330502
330722
330938
331160
331396
331644
331872
332098
332316
332536
332766
332990
333216
333444
333666
333884
334112
334346
334586
334834
335062
335288
335520
335752
335988
336220
336454
336696
336946
337134
337248
337550
337818
338070
338306
338542
338768
338990
339218
339440
339662
339884
340136
340410
340662
340888
341104
341318
341530
341748
341974
342222
342502
342784
343042
343300
343550
343794
344034
344274
344516
344756
344992
345226
345452
345690
345930
346166
346404
346620
346828
347048
347268
347488
347710
347934
348158
348376
348602
348832
349056
349276
349502
349716
349938
350170
350402
350644
350880
351096
351326
351556
351788
352014
352236
352452
352680
352928
353208
353484
353758
354016
354266
354514
354760
354996
355238
355474
355712
355960
356208
356456
356708
356954
357196
357438
357678
357918
358156
358392
358620
358852
359084
359314
359544
359772
359990
360222
360458
360686
360910
361134
361356
361590
361832
362074
362310
362530
362754
362992
363230
363462
363696
363926
364160
364396
364626
364854
365080
365308
365546
365790
366020
366246
366468
366696
366912
367140
367372
367598
367824
368046
368262
368484
368702
368918
369138
369350
369570
369788
370012
370232
370450
370664
370880
371102
371332
371556
371778
371996
372204
372420
372646
372874
373110
373336
373564
373784
374026
374262
374490
374714
374936
375154
375386
375614
375836
376056
376272
376488
376702
376924
377150
377380
377606
377814
378030
378250
378472
378688
378902
379118
379342
379580
379832
380084
380316
380542
380780
381014
381240
381468
381690
381908
382128
382356
382592
382824
383050
383272
383496
383712
383940
384178
384404
384632
384856
385058
385256
385452
385646
385832
386018
386198
386384
386570
386764
386960
387168
387412
387676
387934
388186
388468
388718
388978
389224
389464
389698
389938
390174
390400
390630
390896
391154
391412
391678
391920
392140
392368
392594
392822
393054
393278
393496
393708
393938
394164
394386
394612
394828
395048
395268
395484
395696
395916
396146
396372
396600
396836
397058
397294
397542
397778
398004
398228
398444
398666
398890
399124
399360
399594
399814
400034
400256
400488
400746
401016
401286
401544
401794
402042
402278
402506
402732
402950
403178
403420
403676
403918
404144
404360
404580
404804
405032
405260
405482
405704
405922
406154
406394
406628
406850
407078
407292
407520
407754
407986
408220
408448
408674
408900
409136
409386
409628
409862
410082
410312
410542
410770
411004
411240
411470
411720
411968
412204
412438
412662
412882
413118
413356
413590
413818
414044
414260
414476
414702
414924
415156
415388
415612
415838
416070
416304
416536
416762
416988
417200
417416
417632
417850
418068
418284
418504
418712
418934
419174
419434
419694
419930
420148
420372
420610
420858
421110
421346
421566
421800
422038
422270
422498
422724
422936
423152
423372
423594
423816
424036
424258
424472
424690
424922
425160
425390
425620
425844
426064
426300
426534
426768
427004
427238
427476
427712
427944
428170
428392
428614
428826
429048
429278
429508
429736
429966
430184
430410
430656
430906
431138
431368
431588
431812
432044
432274
432506
432738
432964
433192
433424
433654
433880
434102
434328
434542
434772
434996
435226
435458
435684
435910
436128
436352
436578
436806
437040
437266
437490
437730
437974
438208
438432
438654
438870
439098
439332
439558
439782
440008
440218
440440
440662
440888
441110
441334
441550
441766
441992
442220
442444
442672
442888
443102
443320
443542
443768
444002
444244
444470
444700
444932
445166
445394
445612
445830
446056
446284
446508
446734
446960
447178
447408
447642
447872
448098
448318
448530
448756
448986
449218
449440
449664
449874
450094
450328
450566
450800
451026
451250
451476
451710
451942
452184
452424
452646
452866
453094
453322
453544
453774
453998
454216
454434
454662
454892
455122
455344
455562
455780
455994
456210
456426
456642
456850
457066
457282
457500
457720
457942
458154
458376
458608
458844
459088
459340
459576
459800
460034
460268
460498
460724
460952
461176
461396
461630
461866
462098
462326
462542
462758
462976
463198
463418
463638
463868
464084
464314
464544
464766
464992
465220
465446
465668
465898
466136
466370
466600
466826
467046
467272
467500
467724
467944
468168
468386
468614
468838
469062
469282
469510
469722
469940
470172
470410
470646
470886
471118
471342
471576
471808
472048
472290
472520
472742
472982
473228
473464
473702
473928
474144
474364
474588
474812
475042
475268
475490
475714
475942
476174
476402
476626
476840
477060
477276
477496
477716
477930
478142
478358
478588
478816
479036
479260
479470
479682
479906
480130
480350
480572
480786
481008
481228
481448
481672
481882
482092
482312
482532
482756
482982
483210
483436
483654
483884
484108
484330
484564
484786
485006
485236
485466
485696
485930
486166
486384
486612
486848
487082
487320
487552
487774
487996
488236
488486
488722
488958
489186
489404
489634
489862
490088
490314
490542
490758
490982
491210
491434
491660
491888
492114
492336
492566
492796
493024
493256
493484
493700
493924
494158
494384
494624
494856
495076
495296
495522
495748
495972
496200
496414
496636
496858
497080
497304
497524
497736
497948
498170
498392
498616
498836
499062
499280
499520
499772
500004
500242
500464
500680
500906
501134
501362
501596
501834
502056
502284
502518
502750
502980
503206
503424
503638
503852
504070
504304
504570
504832
505118
505386
505642
505888
506128
506366
506598
506836
507080
507328
507582
507832
508078
508326
508574
508816
509054
509288
509520
509750
509978
510210
510442
510678
510902
511134
511368
511602
511840
512082
512310
512550
512788
513028
513272
513502
513728
513962
514200
514440
514678
514914
515142
515374
515608
515844
516084
516314
516550
516792
517030
517272
517514
517750
517984
518218
518452
518686
518924
519166
519400
519640
519876
520114
520352
520578
520812
521044
521278
521514
521752
521980
522220
522460
522706
522950
523196
523434
523666
523902
524140
524260
524362
524574
524808
525032
525264
525494
525724
525952
526172
526388
526614
526834
527064
527292
527520
527742
527968
528188
528408
528634
528850
529084
529314
529542
529768
529992
530206
530428
530656
530878
531102
531332
531550
531774
531998
532226
532450
532674
532896
533116
533344
533564
533788
534012
534224
534442
534664
534892
535122
535352
535566
535784
536004
536226
536446
536672
536888
537108
537340
537574
537798
538026
538250
538462
538684
538906
539132
539358
539584
539800
540028
540258
540490
540724
540952
541180
541404
541626
541860
542096
542324
542550
542768
542986
543216
543448
543684
543910
544144
544374
544602
544832
545054
545274
545484
545702
545926
546150
546366
546586
546800
547028
547260
547494
547738
547972
548194
548408
548628
548856
549082
549304
549532
549748
549974
550204
550436
550664
550890
551104
551330
551550
551772
551990
552212
552442
552662
552892
553126
553356
553588
553816
554038
554258
554490
554724
554952
555172
555382
555602
555830
556062
556292
556520
556744
556952
557170
557386
557600
557820
558034
558242
558456
558684
558912
559146
559376
559596
559830
560056
560278
560502
560724
560940
561164
561384
561616
561848
562078
562292
562518
562756
562996
563228
563454
563686
563906
564138
564372
564608
564832
565052
565260
565474
565692
565912
566134
566356
566572
566792
567014
567234
567452
567676
567892
568112
568330
568544
568762
568988
569204
569434
569674
569914
570150
570386
570614
570832
571058
571288
571512
571738
571962
572186
572408
572646
572886
573122
573354
573576
573808
574044
574284
574524
574744
574968
575194
575418
575640
575864
576080
576296
576536
576764
576992
577226
577454
577672
577900
578122
578346
578568
578788
579014
579234
579464
579692
579914
580138
580360
580576
580796
581022
581244
581462
581684
581904
582118
582340
582562
582784
583002
583218
583436
583652
583872
584092
584312
584528
584750
584960
585186
585416
585642
585872
586098
586336
586568
586794
587020
587246
587470
587690
587916
588152
588388
588618
588844
589064
589286
589508
589730
589948
590164
590380
590596
590820
591058
591296
591530
591754
591970
592200
592424
592642
592862
593078
593286
593490
593692
593884
594070
594256
594442
594624
594810
594994
595178
595356
595536
595714
595890
596066
596238
596408
596582
596752
596918
597080
597244
597406
597574
597744
597920
598108
598310
598588
598846
599106
599366
599622
599878
600128
600380
600628
600874
601118
601344
601560
601764
601960
602162
602378
602612
602846
603102
603364
603632
603888
604136
604380
604618
604852
605084
605310
605536
605758
605984
606210
606440
606674
606910
607148
607388
607634
607878
608122
608368
608616
608864
609112
609354
609590
609824
610062
610302
610544
610784
611024
611268
611512
611752
611988
612216
612426
612618
612806
612994
613178
613364
613562
613760
613962
614162
614364
614570
614776
614982
615174
615380
615612
615822
616020
616216
616414
616608
616808
617008
617212
617426
617652
617896
618152
618418
618692
618962
619220
619470
619716
619950
620180
620400
620614
620820
621024
621230
621428
621622
621822
622024
622226
622430
622646
622876
623122
623358
623584
623824
624056
624282
624506
624730
624952
625178
625408
625634
625862
626088
626320
626548
626778
627024
627268
627500
627722
627940
628166
628396
628636
628876
629106
629328
629552
629772
629994
630218
630450
630692
630968
631220
631474
631718
631950
632176
632404
632642
632890
633140
633396
633626
633856
634098
634350
634588
634808
635024
635238
635454
635680
635912
636138
636360
636580
636804
637014
637214
637410
637600
637784
637966
638148
638332
638516
638700
638884
639066
639256
639434
639614
639790
639964
640134
640306
640476
640636
640800
640964
641128
641290
641452
641620
641790
641966
642162
642376
642594
642800
643010
643242
643502
643770
644022
644280
644528
644784
645032
645274
645508
645742
645980
646228
646482
646738
646996
647258
647522
647782
648034
648284
648526
648756
648970
649164
649360
649552
649738
649928
650118
650310
650508
650706
650912
651126
651334
651546
651762
651990
652252
652486
652714
652944
653178
653406
653636
653858
654072
654288
654502
654728
654992
655238
655478
655730
655962
656186
656430
656664
656902
657188
657452
657704
657954
658198
658444
658682
658910
659136
659356
659572
659788
660016
660242
660470
660702
660930
661164
661406
661652
661896
662140
662384
662630
662878
663126
663376
663628
663882
664136
664394
664646
664898
665144
665386
665630
665864
666082
666292
666492
666694
666914
667146
667386
667628
667866
668108
668350
668586
668822
669064
669300
669544
669788
670028
670264
670496
670730
670962
671194
671424
671662
671904
672150
672398
672642
672882
673120
673360
673590
673814
674032
674250
674456
674678
674916
675168
675418
675666
675920
676172
676422
676672
676918
677164
677410
677662
677912
678158
678400
678638
678878
679122
679360
679598
679840
680074
680312
680540
680764
680980
681198
681416
681644
681880
682120
682366
682606
682838
683062
683282
683502
683732
683970
684212
684448
684688
684918
685156
685390
685622
685854
686088
686320
686558
686796
687032
687270
687514
687754
687994
688238
688482
688726
688978
689226
689474
689722
689966
690214
690452
690680
690896
691100
691304
691520
691744
692002
692256
692518
692766
693000
693228
693448
693662
693878
694100
694330
694574
694826
695078
695326
695576
695826
696074
696320
696562
696800
697042
697284
697530
697776
698020
698260
698498
698744
698994
699244
699490
699732
699970
700208
700440
700664
700888
701112
701344
701568
701792
702012
702224
702430
702644
702858
703086
703310
703546
703796
704050
704310
704570
704826
705076
705326
705578
705830
706080
706326
706574
706824
707076
707328
707578
707822
708066
708308
708548
708788
709026
709270
709514
709770
710028
710288
710536
710786
711034
711280
711524
711764
712004
712244
712486
712730
712972
713212
713458
713706
713952
714196
714438
714676
714914
715150
715388
715624
715858
716098
716336
716576
716818
717058
717298
717542
717790
718038
718286
718532
718766
718986
719194
719396
719598
719800
720004
720228
720470
720744
721012
721278
721536
721790
722040
722288
722536
722784
723036
723290
723548
723804
724058
724310
724558
724804
725052
725300
725488
725796
726050
726292
726532
726762
727002
727234
727462
727688
727926
728170
728420
728668
728912
729150
729392
729630
729866
730098
730320
730538
730762
730984
731208
731436
731666
731894
732132
732378
732624
732868
733108
733352
733592
733838
734084
734332
734578
734822
735066
735314
735566
735818
736062
736304
736548
736788
737022
737234
737434
737618
737810
738010
738238
738458
738666
738874
739074
739274
739470
739662
739848
740032
740218
740400
740580
740760
740940
741118
741300
741484
741670
741852
742036
742216
742394
742572
742750
742924
743100
743274
743446
743622
743806
743998
744204
744422
744640
744866
745100
745332
745562
745788
746028
746274
746520
746764
747006
747242
747474
747704
747936
748170
748408
748648
748892
749136
749380
749624
749868
750108
750338
750570
750804
751040
751284
751532
751786
752046
752306
752562
752814
753070
753322
753566
753810
754052
754290
754530
754772
755016
755258
755500
755744
755992
756236
756484
756728
756970
757212
757450
757690
757932
758174
758414
758656
758892
759132
759370
759610
759854
760098
760342
760588
760836
761086
761336
761582
761828
762076
762324
762570
762814
763052
763292
763532
763770
764010
764252
764490
764734
764980
765226
765470
765712
765956
766204
766444
766686
766922
767156
767378
767588
767788
767980
768160
768350
768526
768708
768888
769074
769250
769434
769614
769794
769980
770168
770362
770562
770760
770972
771180
771394
771614
771850
772090
772334
772572
772828
773100
773358
773598
773824
774048
774260
774472
774682
774896
775128
775368
775608
775854
776114
776376
776634
776882
777128
777376
777620
777862
778108
778350
778596
778836
779076
779316
779564
779806
780050
780290
780530
780770
781018
781270
781516
781766
782016
782272
782524
782768
783012
783256
783498
783742
783986
784226
784462
784700
784938
785182
785430
785674
785930
786184
786436
786682
786930
787182
787434
787682
787928
788172
788412
788652
788892
789134
789374
789612
789852
790092
790334
790582
790832
791086
791334
791574
791814
792052
792290
792528
792764
793004
793246
793492
793740
793984
794234
794480
794734
794984
795242
795488
795738
795986
796236
796490
796746
796994
797250
797502
797758
798012
798278
798546
798802
799062
799320
799576
799834
800086
800330
800574
800818
801062
801300
801536
801768
802004
802240
802482
802728
802986
803248
803512
803774
804028
804282
804538
804788
805038
805284
805538
805790
806042
806298
806546
806794
807044
807290
807538
807788
808038
808284
808530
808768
808994
809196
809390
809580
809770
809968
810174
810382
810604
810830
811072
811310
811548
811782
812022
812266
812516
812768
813026
813286
813544
813802
814056
814308
814558
814810
815064
815320
815582
815838
816088
816334
816582
816826
817070
817314
817556
817800
818044
818292
818546
818804
819048
819302
819548
819788
820034
820278
820524
820770
821018
821266
821508
821752
822004
822262
822522
822774
823026
823274
823522
823776
824028
824284
824534
824784
825034
825284
825532
825778
826018
826260
826502
826740
826976
827208
827444
827674
827892
828100
828308
828518
828730
828950
829186
829436
829698
829958
830232
830506
830774
831036
831286
831530
831778
832024
832272
832520
832764
833006
833246
833488
833728
833972
834220
834466
834712
834956
835200
835442
835680
835920
836160
836402
836646
836880
837110
837336
837564
837796
838030
838266
838510
838758
839014
839272
839528
839778
840028
840272
840512
840752
840992
841234
841484
841734
841986
842244
842496
842750
843000
843250
843496
843734
843976
844220
844460
844698
844938
845182
845424
845670
845924
846172
846422
846666
846910
847160
847408
847658
847906
848158
848404
848648
848892
849134
849378
849618
849858
850102
850340
850574
850806
851028
851250
851476
851714
851966
852224
852478
852734
852992
853246
853496
853752
854008
854260
854506
854750
854994
855236
855472
855708
855942
856172
856388
856586
856778
856970
857160
857362
857578
857802
858046
858300
858552
858808
859066
859326
859588
859848
860110
860362
860612
860860
861118
861372
861624
861874
862124
862372
862622
862872
863120
863366
863612
863860
864108
864356
864606
864858
865104
865352
865602
865844
866086
866326
866562
866794
867024
867258
867496
867728
867956
868190
868436
868682
868922
869160
869396
869630
869858
870096
870336
870574
870808
871046
871288
871530
871776
872018
872258
872492
872724
872950
873182
873414
873646
873876
874108
874342
874582
874822
875062
875306
875548
875786
876024
876252
876478
876698
876918
877136
877362
877578
877790
877998
878202
878408
878616
878828
879040
879240
879432
879618
879808
879996
880182
880366
880546
880724
880900
881080
881250
881416
881574
881736
881896
882052
882208
882362
882518
882678
882846
883050
883284
883528
883766
884010
884260
884510
884762
885010
885252
885492
885740
885996
886252
886506
886752
887002
887252
887500
887750
888000
888250
888492
888734
888974
889216
889454
889694
889938
890184
890430
890672
890918
891164
891416
891672
891914
892158
892394
892624
892852
893082
893314
893548
893786
894030
894276
894522
894774
895022
895268
895514
895756
895992
896226
896460
896694
896924
897154
897388
897622
897866
898116
898362
898610
898866
899118
899370
899618
899862
900102
900344
900584
900826
901068
901308
901540
901772
902006
902246
902490
902730
902968
903200
903430
903654
903872
904090
904316
904544
904790
905044
905308
905570
905822
906078
906336
906592
906850
907100
907354
907614
907870
908120
908372
908622
908868
909112
909354
909596
909836
910076
910328
910588
910844
911090
911326
911562
911798
912022
912242
912466
912700
912942
913188
913428
913670
913912
914150
914390
914624
914854
915084
915316
915550
915788
916026
916264
916508
916752
917002
917252
917500
917746
917992
918246
918500
918758
919008
919250
919500
919754
920024
920296
920572
920850
921124
921382
921636
921890
922144
922400
922654
922902
923154
923416
923680
923936
924190
924440
924686
924930
925174
925422
925670
925914
926156
926398
926636
926872
927104
927334
927562
927792
928024
928260
928486
928722
928962
929198
929438
929670
929908
930150
930398
930648
930894
931142
931386
931628
931864
932104
932338
932572
932790
932998
933212
933416
933618
933814
934002
934188
934370
934554
934738
934916
935090
935260
935430
935598
935766
935932
936098
936266
936434
936612
936798
936994
937182
937368
937558
937738
937924
938108
938294
938484
938674
938858
939046
939242
939430
939626
939822
940018
940212
940410
940612
940826
941052
941296
941538
941788
942046
942308
942560
942808
943046
943280
943516
943752
943990
944234
944474
944708
944944
945180
945410
945644
945882
946122
946350
946586
946826
947068
947310
947548
947786
948014
948236
948452
948662
948880
949104
949332
949564
949812
950062
950306
950544
950768
950968
951154
951346
951540
951744
951964
952198
952424
952654
952910
953158
953406
953654
953906
954158
954408
954654
954894
955130
955360
955594
955832
956068
956306
956542
956780
957022
957268
957508
957744
957974
958208
958440
958676
958910
959142
959366
959592
959816
960038
960264
960490
960718
960942
961162
961384
961604
961820
962034
962246
962470
962698
962930
963162
963382
963616
963852
964096
964332
964570
964800
965016
965216
965408
965600
965778
965960
966136
966312
966486
966662
966834
967002
967168
967338
967502
967668
967836
968010
968190
968370
968558
968752
968950
969148
969346
969548
969746
969934
970120
970304
970490
970688
970914
971148
971386
971634
971874
972108
972336
972568
972794
973020
973248
973472
973694
973918
974136
974352
974562
974766
974974
975186
975404
975628
975854
976074
976304
976536
976768
977000
977230
977460
977690
977918
978148
978372
978592
978810
979030
979254
979482
979712
979924
980144
980370
980600
980836
981064
981286
981508
981726
981940
982142
982344
982546
982768
982990
983196
983398
983600
983796
983990
984182
984368
984554
984734
984916
985104
985306
985526
985772
986032
986288
986542
986796
987040
987284
987528
987770
988014
988248
988482
988710
988942
989178
989418
989656
989888
990126
990366
990602
990838
991070
991302
991540
991780
992020
992258
992498
992738
992972
993212
993452
993694
993940
994184
994412
994644
994880
995120
995364
995608
995850
996094
996338
996586
996830
997076
997306
997538
997768
997998
998230
998462
998696
998922
999152
999388
999622
999858
1000088
1000314
1000540
1000768
1001000
1001230
1001458
1001680
1001910
1002140
1002372
1002600
1002826
1003050
1003274
1003502
1003728
1003952
1004170
1004388
1004608
1004832
1005058
1005282
1005502
1005722
1005944
1006164
1006382
1006592
1006796
1006992
1007198
1007400
1007596
1007788
1007974
1008166
1008348
1008530
1008712
1008888
1009068
1009240
1009412
1009584
1009760
1009930
1010106
1010276
1010444
1010610
1010776
1010942
1011104
1011270
1011438
1011616
1011804
1012002
1012200
1012416
1012630
1012848
1013054
1013266
1013478
1013682
1013880
1014088
1014294
1014512
1014740
1014984
1015220
1015442
1015658
1015864
1016088
1016328
1016596
1016840
1017094
1017330
1017558
1017786
1018020
1018262
1018498
1018748
1018978
1019190
1019414
1019636
1019852
1020090
1020374
1020618
1020858
1021092
1021330
1021560
1021792
1022022
1022256
1022486
1022716
1022942
1023166
1023388
1023614
1023846
1024062
1024286
1024508
1024734
1024962
1025190
1025424
1025662
1025904
1026142
1026382
1026616
1026850
1027088
1027320
1027548
1027774
1027998
1028218
1028432
1028654
1028878
1029098
1029314
1029534
1029756
1029980
1030198
1030416
1030640
1030872
1031108
1031340
1031572
1031792
1032018
1032242
1032464
1032688
1032906
1033138
1033374
1033614
1033850
1034084
1034310
1034542
1034778
1035014
1035252
1035486
1035722
1035962
1036198
1036426
1036652
1036872
1037094
1037318
1037542
1037770
1038004
1038238
1038480
1038724
1038970
1039210
1039454
1039686
1039922
1040158
1040394
1040630
1040862
1041090
1041322
1041552
1041784
1042018
1042252
1042482
1042716
1042950
1043188
1043422
1043648
1043872
1044090
1044318
1044564
1044814
1045064
1045306
1045554
1045806
1046052
1046298
1046544
1046786
1047022
1047256
1047492
1047728
1047966
1048208
1048448
1048688
1048930
1049178
1049422
1049660
1049898
1050134
1050368
1050612
1050844
1051082
1051314
1051548
1051784
1052018
1052256
1052492
1052726
1052964
1053208
1053450
1053696
1053940
1054182
1054420
1054656
1054896
1055130
1055364
1055600
1055834
1056074
1056322
1056572
1056826
1057074
1057316
1057558
1057802
1058048
1058290
1058528
1058768
1059010
1059254
1059496
1059738
1059974
1060212
1060452
1060690
1060932
1061182
1061438
1061682
1061930
1062172
1062412
1062652
1062898
1063136
1063370
1063614
1063860
1064110
1064360
1064608
1064850
1065096
1065340
1065586
1065828
1066070
1066308
1066546
1066782
1067018
1067252
1067492
1067716
1067946
1068176
1068406
1068632
1068852
1069044
1069230
1069414
1069592
1069772
1069952
1070138
1070338
1070532
1070732
1070918
1071104
1071294
1071480
1071664
1071844
1072020
1072194
1072366
1072540
1072712
1072886
1073062
1073244
1073428
1073616
1073806
1074002
1074198
1074400
1074602
1074802
1075010
1075222
1075428
1075630
1075830
1076028
1076228
1076430
1076636
1076844
1077054
1077262
1077470
1077686
1077904
1078124
1078330
1078540
1078754
1078966
1079182
1079402
1079630
1079848
1080082
1080332
1080574
1080804
1081030
1081250
1081464
1081678
1081896
1082136
1082376
1082624
1082856
1083066
1083270
1083482
1083714
1083994
1084246
1084490
1084726
1084958
1085186
1085420
1085654
1085892
1086130
1086354
1086582
1086806
1087032
1087260
1087488
1087724
1087974
1088222
1088472
1088716
1088962
1089210
1089456
1089704
1089950
1090192
1090434
1090680
1090926
1091168
1091412
1091654
1091894
1092132
1092370
1092618
1092866
1093108
1093348
1093580
1093802
1094018
1094232
1094460
1094692
1094924
1095162
1095406
1095650
1095892
1096128
1096360
1096592
1096828
1097066
1097304
1097536
1097756
1097970
1098184
1098402
1098622
1098836
1099048
1099264
1099484
1099704
1099922
1100138
1100364
1100594
1100828
1101062
1101288
1101506
1101708
1101906
1102102
1102288
1102482
1102660
1102840
1103022
1103198
1103376
1103550
1103720
1103890
1104058
1104218
1104382
1104542
1104700
1104856
1105010
1105166
1105318
1105472
1105630
1105786
1105946
1106104
1106274
1106446
1106652
1106876
1107098
1107324
1107550
1107780
1108010
1108240
1108464
1108652
1108842
1109036
1109232
1109436
1109630
1109820
1110004
1110206
1110422
1110700
1110962
1111226
1111480
1111730
1111976
1112224
1112468
1112708
1112936
1113172
1113410
1113648
1113886
1114124
1114362
1114602
1114838
1115074
1115304
1115548
1115784
1116024
1116258
1116492
1116738
1116968
1117202
1117432
1117658
1117892
1118122
1118352
1118582
1118812
1119054
1119290
1119528
1119756
1119984
1120216
1120452
1120690
1120910
1121134
1121346
1121564
1121784
1122008
1122234
1122456
1122684
1122908
1123136
1123358
1123582
1123806
1124028
1124248
1124472
1124702
1124932
1125160
1125388
1125614
1125848
1126086
1126326
1126572
1126802
1127040
1127272
1127506
1127740
1127974
1128206
1128432
1128644
1128848
1129038
1129218
1129404
1129590
1129782
1129972
1130172
1130362
1130548
1130736
1130918
1131096
1131278
1131456
1131632
1131808
1131982
1132156
1132330
1132502
1132674
1132850
1133026
1133204
1133382
1133564
1133754
1133946
1134146
1134350
1134558
1134774
1134994
1135202
1135418
1135636
1135866
1136102
1136324
1136550
1136774
1137000
1137220
1137438
1137652
1137878
1138104
1138326
1138548
1138762
1138980
1139196
1139408
1139626
1139848
1140070
1140298
1140532
1140760
1140986
1141200
1141416
1141644
1141880
1142140
1142384
1142618
1142854
1143088
1143320
1143558
1143794
1144028
1144260
1144500
1144738
1144980
1145222
1145458
1145688
1145918
1146148
1146370
1146594
1146812
1147028
1147244
1147458
1147676
1147896
1148112
1148322
1148532
1148744
1148954
1149160
1149362
1149558
1149744
1149930
1150112
1150294
1150472
1150646
1150820
1150990
1151168
1151356
1151552
1151758
1151966
1152172
1152362
1152554
1152754
1152938
1153128
1153314
1153496
1153676
1153864
1154050
1154228
1154410
1154602
1154794
1154976
1155156
1155338
1155520
1155700
1155878
1156050
1156224
1156402
1156578
1156752
1156928
1157100
1157274
1157448
1157624
1157798
1157972
1158138
1158314
1158490
1158668
1158850
1159032
1159214
1159396
1159590
1159786
1159986
1160180
1160372
1160560
1160744
1160920
1161086
1161254
1161416
1161574
1161732
1161890
1162050
1162224
1162394
1162562
1162724
1162892
1163054
1163216
1163382
1163542
1163712
1163870
1164036
1164202
1164370
1164536
1164704
1164872
1165042
1165220
1165400
1165584
1165764
1165942
1166120
1166294
1166464
1166634
1166804
1166970
1167136
1167306
1167476
1167648
1167820
1167992
1168158
1168328
1168498
1168670
1168842
1169004
1169168
1169334
1169502
1169662
1169822
1169986
1170146
1170310
1170470
1170632
1170794
1170958
1171128
1171296
1171464
1171636
1171808
1171982
1172162
1172348
1172532
1172718
1172910
1173116
1173336
1173532
1173714
1173890
1174064
1174234
1174400
1174562
1174726
1174896
1175120
1175366
1175620
1175874
1176106
1176298
1176478
1176662
1176838
1177008
1177190
1177396
1177584
1177764
1177944
1178128
1178326
1178548
1178772
1178986
1179202
1179430
1179648
1179864
1180096
1180346
1180608
1180870
1181136
1181400
1181666
1181932
1182184
1182382
1182572
1182748
1182920
1183090
1183262
1183438
1183618
1183796
1183976
1184172
1184416
1184648
1184878
1185106
1185326
1185512
1185690
1185870
1186054
1186252
1186478
1186716
1186948
1187176
1187384
1187576
1187764
1187950
1188134
1188314
1188492
1188664
1188836
1189020
1189222
1189470
1189710
1189944
1190178
1190402
1190614
1190830
1191038
1191240
1191450
1191696
1191938
1192174
1192400
1192620
1192826
1193024
1193220
1193416
1193606
1193798
1193982
1194164
1194350
1194550
1194732
1194910
1195084
1195270
1195448
1195624
1195800
1195980
1196170
1196374
1196578
1196774
1196966
1197154
1197344
1197534
1197730
1197922
1198130
1198330
1198538
1198740
1198938
1199132
1199330
1199530
1199726
1199922
1200116
1200312
1200512
1200716
1200918
1201116
1201328
1201538
1201736
1201926
1202116
1202304
1202492
1202672
1202848
1203032
1203214
1203392
1203570
1203748
1203948
1204152
1204352
1204556
1204750
1204948
1205146
1205336
1205528
1205718
1205902
1206086
1206278
1206468
1206660
1206858
1207058
1207262
1207466
1207670
1207872
1208068
1208260
1208448
1208640
1208840
1209038
1209244
1209446
1209642
1209836
1210020
1210200
1210376
1210550
1210726
1210896
1211062
1211226
1211390
1211554
1211718
1211884
1212044
1212208
1212370
1212530
1212692
1212848
1213012
1213168
1213326
1213488
1213650
1213814
1213978
1214148
1214318
1214492
1214664
1214836
1215014
1215188
1215356
1215528
1215698
1215874
1216048
1216224
1216408
1216592
1216776
1216954
1217132
1217314
1217504
1217702
1217902
1218098
1218298
1218518
1218740
1218960
1219186
1219418
1219642
1219856
1220060
1220264
1220460
1220636
1220814
1221006
1221194
1221372
1221550
1221724
1221894
1222064
1222230
1222396
1222558
1222718
1222878
1223036
1223192
1223348
1223504
1223670
1223842
1224016
1224194
1224368
1224544
1224724
1224892
1225068
1225238
1225402
1225570
1225734
1225898
1226070
1226238
1226404
1226572
1226740
1226904
1227066
1227230
1227396
1227556
1227720
1227886
1228052
1228218
1228384
1228548
1228710
1228872
1229038
1229198
1229366
1229532
1229698
1229864
1230026
1230192
1230356
1230522
1230692
1230862
1231040
1231224
1231404
1231582
1231756
1231928
1232096
1232262
1232428
1232596
1232764
1232944
1233124
1233312
1233500
1233686
1233872
1234056
1234236
1234414
1234596
1234778
1234968
1235162
1235352
1235538
1235728
1235926
1236128
1236328
1236522
1236700
1236890
1237074
1237258
1237440
1237620
1237802
1237980
1238162
1238338
1238518
1238696
1238872
1239048
1239222
1239394
1239566
1239738
1239902
1240074
1240234
1240398
1240564
1240722
1240880
1241036
1241188
1241342
1241492
1241644
1241804
1241970
1242140
1242308
1242486
1242664
1242838
1243018
1243192
1243368
1243540
1243714
1243886
1244054
1244222
1244388
1244552
1244718
1244884
1245054
1245224
1245404
1245578
1245758
1245940
1246120
1246300
1246474
1246650
1246826
1247000
1247170
1247342
1247518
1247688
1247854
1248022
1248190
1248360
1248526
1248690
1248858
1249030
1249200
1249374
1249546
1249730
1249914
1250088
1250272
1250450
1250626
1250800
1250976
1251152
1251332
1251510
1251692
1251880
1252076
1252274
1252474
1252666
1252854
1253044
1253240
1253440
1253640
1253836
1254036
1254246
1254446
1254636
1254818
1255006
1255194
1255374
1255556
1255736
1255912
1256086
1256254
1256430
1256596
1256760
1256926
1257100
1257298
1257516
1257740
1257974
1258216
1258464
1258676
1258866
1259040
1259210
1259376
1259536
1259698
1259862
1260040
1260224
1260406
1260594
1260798
1261014
1261244
1261478
1261712
1261944
1262160
1262362
1262538
1262714
1262886
1263056
1263230
1263426
1263612
1263792
1263966
1264140
1264302
1264474
1264636
1264800
1264960
1265124
1265290
1265456
1265630
1265802
1265964
1266144
1266320
1266494
1266676
1266858
1267040
1267218
1267402
1267582
1267760
1267932
1268106
1268278
1268448
1268616
1268786
1268954
1269126
1269288
1269454
1269624
1269796
1269958
1270130
1270298
1270472
1270652
1270824
1270990
1271158
1271326
1271488
1271650
1271808
1271962
1272126
1272282
1272430
1272580
1272740
1272890
1273046
1273196
1273350
1273502
1273652
1273802
1273952
1274096
1274244
1274398
1274548
1274690
1274832
1274980
1275122
1275260
1275404
1275552
1275694
1275850
1276002
1276166
1276326
1276490
1276650
1276810
1276966
1277122
1277274
1277422
1277574
1277718
1277860
1278004
1278150
1278294
1278440
1278576
1278716
1278858
1279002
1279144
1279286
1279434
1279572
1279718
1279860
1280002
1280142
1280286
1280440
1280596
1280748
1280898
1281050
1281200
1281346
1281498
1281650
1281800
1281950
1282100
1282252
1282404
1282560
1282714
1282872
1283030
1283188
1283348
1283504
1283660
1283818
1283976
1284132
1284292
1284450
1284610
1284766
1284924
1285080
1285236
1285394
1285550
1285702
1285866
1286028
1286188
1286356
1286518
1286676
1286834
1286994
1287154
1287314
1287474
1287634
1287794
1287954
1288110
1288266
1288420
1288576
1288726
1288886
1289048
1289224
1289402
1289576
1289736
1289920
1290086
1290252
1290416
1290578
1290740
1290908
1291084
1291264
1291440
1291614
1291788
1291956
1292122
1292286
1292448
1292608
1292768
1292924
1293084
1293246
1293406
1293572
1293742
1293912
1294084
1294250
1294418
1294586
1294754
1294938
1295108
1295278
1295444
1295604
1295764
1295924
1296074
1296230
1296380
1296524
1296672
1296814
1296960
1297100
1297244
1297390
1297534
1297680
1297828
1297970
1298112
1298264
1298406
1298556
1298700
1298840
1298986
1299126
1299272
1299412
1299552
1299694
1299840
1299982
1300126
1300270
1300414
1300558
1300704
1300846
1300992
1301142
1301288
1301438
1301584
1301738
1301888
1302036
1302192
1302350
1302502
1302652
1302798
1302946
1303098
1303248
1303400
1303554
1303714
1303870
1304026
1304180
1304332
1304486
1304640
1304792
1304946
1305100
1305258
1305416
1305570
1305722
1305876
1306032
1306186
1306340
1306492
1306646
1306804
1306962
1307122
1307280
1307436
1307592
1307752
1307914
1308074
1308232
1308394
1308552
1308710
1308874
1309040
1309208
1309366
1309518
1309680
1309838
1309996
1310158
1310318
1310482
1310640
1310806
1310992
1311190
1311378
1311562
1311754
1311962
1312154
1312338
1312522
1312706
1312882
1313050
1313220
1313386
1313550
1313710
1313870
1314030
1314196
1314370
1314554
1314728
1314904
1315074
1315250
1315428
1315604
1315786
1315974
1316172
1316354
1316544
1316722
1316900
1317084
1317266
1317450
1317632
1317818
1318004
1318180
1318352
1318516
1318682
1318846
1319004
1319158
1319314
1319466
1319616
1319766
1319916
1320062
1320212
1320356
1320502
1320650
1320798
1320950
1321100
1321250
1321400
1321548
1321696
1321840
1321990
1322138
1322282
1322430
1322574
1322714
1322864
1323008
1323154
1323302
1323450
1323598
1323750
1323906
1324060
1324210
1324368
1324524
1324680
1324842
1325004
1325166
1325326
1325486
1325650
1325818
1325984
1326150
1326310
1326470
1326626
1326778
1326932
1327082
1327236
1327390
1327546
1327700
1327856
1328008
1328160
1328310
1328464
1328618
1328772
1328924
1329072
1329224
1329374
1329526
1329678
1329832
1329984
1330136
1330286
1330444
1330608
1330778
1330958
1331140
1331324
1331506
1331688
1331868
1332040
1332214
1332388
1332560
1332732
1332910
1333090
1333278
1333456
1333634
1333816
1334000
1334196
1334392
1334604
1334830
1335024
1335206
1335378
1335560
1335738
1335936
1336138
1336326
1336522
1336714
1336894
1337074
1337240
1337404
1337568
1337734
1337908
1338092
1338278
1338474
1338682
1338908
1339144
1339360
1339562
1339746
1339940
1340134
1340334
1340516
1340708
1340904
1341112
1341312
1341502
1341690
1341882
1342078
1342278
1342472
1342670
1342870
1343068
1343274
1343492
1343694
1343900
1344106
1344308
1344504
1344692
1344888
1345082
1345284
1345480
1345682
1345882
1346080
1346266
1346454
1346634
1346814
1346996
1347170
1347338
1347504
1347668
1347840
1348010
1348178
1348350
1348516
1348688
1348870
1349048
1349224
1349402
1349654
1349870
1350078
1350286
1350474
1350654
1350836
1351014
1351188
1351374
1351556
1351734
1351918
1352102
1352292
1352474
1352654
1352832
1353022
1353206
1353394
1353582
1353786
1353988
1354196
1354404
1354606
1354804
1355006
1355204
1355398
1355604
1355814
1356016
1356214
1356416
1356624
1356834
1357044
1357238
1357428
1357624
1357822
1358014
1358206
1358400
1358582
1358762
1358944
1359118
1359284
1359456
1359634
1359834
1360046
1360254
1360462
1360674
1360886
1361100
1361312
1361528
1361732
1361930
1362124
1362326
1362516
1362700
1362896
1363088
1363268
1363450
1363630
1363808
1363990
1364172
1364358
1364542
1364726
1364904
1365086
1365268
1365436
1365616
1365802
1365980
1366162
1366338
1366518
1366698
1366878
1367054
1367228
1367398
1367566
1367734
1367898
1368062
1368226
1368388
1368558
1368726
1368892
1369060
1369234
1369412
1369596
1369786
1369984
1370192
1370400
1370604
1370804
1371006
1371210
1371416
1371638
1371866
1372090
1372306
1372512
1372714
1372906
1373102
1373308
1373552
1373768
1373982
1374188
1374386
1374574
1374750
1374932
1375120
1375306
1375498
1375692
1375878
1376060
1376274
1376462
1376640
1376818
1376990
1377162
1377334
1377502
1377672
1377848
1378030
1378216
1378410
1378610
1378810
1379014
1379216
1379422
1379638
1379856
1380068
1380288
1380500
1380700
1380888
1381068
1381258
1381452
1381644
1381844
1382048
1382238
1382436
1382634
1382832
1383020
1383206
1383394
1383584
1383776
1383972
1384178
1384394
1384604
1384812
1385024
1385238
1385442
1385644
1385846
1386050
1386248
1386442
1386634
1386830
1387016
1387210
1387406
1387620
1387840
1388052
1388252
1388460
1388658
1388848
1389034
1389222
1389418
1389610
1389800
1389984
1390174
1390372
1390568
1390768
1390958
1391142
1391324
1391512
1391698
1391890
1392086
1392286
1392490
1392698
1392908
1393110
1393300
1393490
1393678
1393866
1394046
1394228
1394414
1394588
1394778
1394970
1395172
1395374
1395576
1395782
1395970
1396162
1396344
1396522
1396696
1396868
1397034
1397204
1397368
1397534
1397700
1397870
1398048
1398232
1398424
1398614
1398808
1398998
1399180
1399356
1399528
1399700
1399874
1400050
1400230
1400408
1400588
1400772
1400974
1401184
1401388
1401584
1401768
1401950
1402130
1402316
1402512
1402694
1402882
1403090
1403294
1403508
1403732
1403948
1404160
1404362
1404550
1404732
1404930
1405130
1405338
1405558
1405778
1406002
1406222
1406440
1406648
1406846
1407034
1407220
1407410
1407614
1407810
1408006
1408204
1408392
1408572
1408764
1408956
1409156
1409370
1409584
1409786
1409976
1410164
1410352
1410534
1410722
1410906
1411098
1411298
1411524
1411776
1412012
1412244
1412464
1412664
1412848
1413030
1413222
1413426
1413638
1413850
1414062
1414264
1414468
1414668
1414866
1415056
1415246
1415438
1415622
1415810
1415988
1416164
1416346
1416526
1416702
1416882
1417072
1417260
1417448
1417638
1417830
1418024
1418208
1418388
1418564
1418740
1418922
1419104
1419292
1419470
1419664
1419854
1420042
1420226
1420408
1420602
1420792
1420982
1421168
1421348
1421524
1421704
1421890
1422076
1422276
1422466
1422650
1422832
1423008
1423184
1423370
1423564
1423762
1423952
1424148
1424350
1424556
1424758
1424956
1425158
1425356
1425560
1425770
1425988
1426192
1426394
1426598
1426796
1426990
1427186
1427378
1427562
1427776
1427988
1428198
1428398
1428604
1428800
1428996
1429198
1429402
1429588
1429794
1430006
1430230
1430448
1430664
1430872
1431074
1431272
1431462
1431648
1431824
1432008
1432188
1432366
1432554
1432744
1432936
1433132
1433334
1433548
1433748
1433942
1434126
1434312
1434498
1434676
1434862
1435050
1435236
1435424
1435614
1435810
1436020
1436234
1436432
1436614
1436812
1437006
1437202
1437396
1437578
1437756
1437940
1438122
1438306
1438494
1438688
1438884
1439070
1439252
1439430
1439612
1439800
1439998
1440204
1440404
1440606
1440800
1440994
1441190
1441386
1441578
1441762
1441944
1442118
1442296
1442488
1442680
1442874
1443082
1443298
1443498
1443688
1443874
1444054
1444228
1444396
1444568
1444742
1444928
1445104
1445280
1445482
1445680
1445886
1446094
1446282
1446470
1446658
1446858
1447056
1447242
1447420
1447598
1447788
1447984
1448176
1448370
1448572
1448768
1448964
1449156
1449342
1449530
1449720
1449902
1450070
1450242
1450408
1450576
1450734
1450894
1451062
1451228
1451390
1451558
1451722
1451880
1452036
1452190
1452344
1452500
1452658
1452820
1452976
1453128
1453284
1453436
1453588
1453732
1453878
1454028
1454174
1454318
1454460
1454602
1454744
1454884
1455028
1455178
1455332
1455492
1455652
1455814
1455982
1456152
1456324
1456496
1456678
1456852
1457024
1457198
1457372
1457542
1457708
1457876
1458038
1458204
1458368
1458538
1458708
1458886
1459060
1459230
1459444
1459694
1459908
1460102
1460280
1460452
1460620
1460794
1460980
1461168
1461358
1461544
1461724
1461904
1462080
1462252
1462430
1462630
1462820
1463004
1463176
1463354
1463526
1463702
1463878
1464050
1464220
1464386
1464546
1464714
1464878
1465042
1465212
1465382
1465598
1465814
1466022
1466214
1466390
1466564
1466730
1466884
1467048
1467198
1467356
1467506
1467666
1467822
1467978
1468132
1468292
1468454
1468610
1468774
1468938
1469102
1469266
1469432
1469604
1469772
1469940
1470106
1470276
1470438
1470602
1470766
1470918
1471078
1471228
1471386
1471546
1471706
1471868
1472036
1472208
1472382
1472558
1472736
1472920
1473096
1473280
1473450
1473628
1473808
1473988
1474176
1474384
1474598
1474820
1475052
1475276
1475492
1475708
1475926
1476144
1476356
1476568
1476774
1476972
1477148
1477320
1477488
1477650
1477812
1477978
1478150
1478328
1478508
1478698
1478884
1479064
1479238
1479414
1479582
1479762
1479936
1480112
1480282
1480458
1480640
1480836
1481054
1481260
1481456
1481636
1481816
1481998
1482172
1482352
1482526
1482702
1482884
1483064
1483252
1483456
1483654
1483840
1484014
1484190
1484362
1484542
1484718
1484890
1485068
1485244
1485428
1485608
1485798
1485986
1486168
1486350
1486544
1486732
1486922
1487110
1487302
1487490
1487682
1487886
1488072
1488252
1488434
1488608
1488778
1488956
1489136
1489326
1489516
1489718
1489928
1490130
1490322
1490506
1490684
1490868
1491052
1491236
1491408
1491590
1491766
1491954
1492140
1492322
1492500
1492688
1492868
1493046
1493224
1493398
1493574
1493748
1493920
1494094
1494262
1494436
1494614
1494806
1495020
1495220
1495412
1495592
1495768
1495940
1496104
1496274
1496438
1496600
1496762
1496924
1497080
1497234
1497386
1497532
1497686
1497830
1497978
1498122
1498266
1498412
1498556
1498698
1498842
1498984
1499126
1499272
1499424
1499572
1499726
1499892
1500056
1500220
1500420
1500640
1500848
1501050
1501244
1501416
1501582
1501746
1501900
1502060
1502212
1502356
1502500
1502644
1502792
1502936
1503076
1503222
1503366
1503510
1503652
1503796
1503940
1504082
1504226
1504366
1504508
1504650
1504786
1504930
1505066
1505204
1505338
1505480
1505614
1505744
1505880
1506018
1506156
1506294
1506428
1506568
1506706
1506842
1506988
1507124
1507268
1507406
1507546
1507680
1507820
1507954
1508088
1508222
1508356
1508490
1508624
1508756
1508890
1509026
1509164
1509306
1509444
1509578
1509720
1509850
1509990
1510120
1510258
1510386
1510522
1510656
1510786
1510918
1511048
1511176
1511306
1511434
1511566
1511696
1511828
1511962
1512094
1512226
1512360
1512494
1512630
1512766
1512902
1513038
1513176
1513312
1513448
1513580
1513720
1513856
1513986
1514126
1514262
1514396
1514530
1514660
1514796
1514930
1515062
1515198
1515332
1515466
1515598
1515738
1515870
1516010
1516144
1516280
1516416
1516552
1516690
1516828
1516966
1517106
1517246
1517380
1517520
1517666
1517818
1517984
1518188
1518396
1518576
1518744
1518900
1519056
1519210
1519362
1519512
1519660
1519806
1519950
1520096
1520240
1520382
1520524
1520664
1520802
1520938
1521072
1521206
1521340
1521474
1521606
1521738
1521870
1522004
1522132
1522266
1522398
1522532
1522670
1522808
1522946
1523088
1523238
1523400
1523566
1523744
1523926
1524096
1524266
1524424
1524580
1524732
1524880
1525026
1525174
1525322
1525466
1525608
1525750
1525892
1526030
1526170
1526308
1526450
1526590
1526732
1526872
1527014
1527156
1527300
1527450
1527606
1527762
1527924
1528086
1528252
1528416
1528580
1528740
1528902
1529066
1529234
1529404
1529566
1529734
1529906
1530076
1530244
1530416
1530586
1530756
1530922
1531090
1531272
1531458
1531648
1531832
1532020
1532202
1532380
1532556
1532744
1532926
1533104
1533278
1533464
1533644
1533818
1533992
1534164
1534342
1534518
1534690
1534854
1535020
1535190
1535374
1535554
1535728
1535894
1536054
1536212
1536368
1536518
1536674
1536824
1536970
1537116
1537258
1537406
1537550
1537694
1537836
1537982
1538120
1538266
1538406
1538554
1538700
1538848
1538992
1539136
1539280
1539428
1539570
1539714
1539856
1539998
1540140
1540292
1540438
1540592
1540748
1540902
1541054
1541214
1541368
1541526
1541680
1541838
1541994
1542148
1542304
1542464
1542622
1542780
1542934
1543082
1543232
1543382
1543534
1543684
1543838
1544000
1544164
1544324
1544492
1544668
1544840
1545012
1545174
1545334
1545490
1545642
1545790
1545934
1546082
1546222
1546372
1546512
1546664
1546808
1546964
1547114
1547272
1547428
1547588
1547750
1547906
1548064
1548232
1548396
1548560
1548724
1548888
1549052
1549208
1549364
1549526
1549686
1549844
1550002
1550164
1550332
1550496
1550654
1550816
1550984
1551146
1551310
1551466
1551626
1551784
1551942
1552106
1552262
1552420
1552580
1552742
1552904
1553064
1553222
1553386
1553552
1553724
1553898
1554066
1554238
1554410
1554584
1554750
1554916
1555082
1555242
1555404
1555576
1555744
1555920
1556090
1556252
1556418
1556604
1556794
1556980
1557160
1557332
1557502
1557668
1557832
1558000
1558170
1558346
1558532
1558720
1558914
1559108
1559296
1559484
1559668
1559844
1560014
1560180
1560342
1560504
1560678
1560860
1561048
1561230
1561422
1561608
1561784
1561958
1562136
1562316
1562494
1562668
1562840
1563018
1563210
1563408
1563594
1563818
1564038
1564240
1564438
1564630
1564822
1565014
1565198
1565396
1565584
1565780
1565972
1566152
1566342
1566532
1566722
1566904
1567094
1567270
1567446
1567620
1567784
1567952
1568116
1568286
1568454
1568626
1568808
1568988
1569166
1569346
1569542
1569728
1569910
1570090
1570268
1570442
1570618
1570792
1570970
1571154
1571338
1571524
1571708
1571890
1572064
1572248
1572428
1572610
1572784
1572970
1573162
1573356
1573542
1573718
1573892
1574070
1574246
1574424
1574602
1574770
1574948
1575122
1575300
1575478
1575660
1575836
1576006
1576186
1576360
1576540
1576712
1576884
1577058
1577230
1577396
1577562
1577728
1577892
1578062
1578234
1578402
1578568
1578740
1578914
1579092
1579280
1579460
1579648
1579816
1579994
1580166
1580334
1580508
1580686
1580860
1581028
1581194
1581362
1581528
1581696
1581868
1582046
1582216
1582388
1582556
1582720
1582894
1583060
1583230
1583402
1583570
1583738
1583912
1584082
1584260
1584434
1584608
1584784
1584954
1585124
1585282
1585444
1585610
1585764
1585930
1586096
1586274
1586464
1586648
1586828
1587000
1587162
1587328
1587498
1587658
1587818
1587986
1588154
1588324
1588504
1588686
1588872
1589056
1589242
1589420
1589586
1589760
1589938
1590110
1590298
1590488
1590688
1590872
1591050
1591228
1591402
1591580
1591758
1591942
1592118
1592294
1592468
1592636
1592808
1592984
1593164
1593350
1593542
1593722
1593908
1594088
1594274
1594462
1594656
1594854
1595058
1595260
1595462
1595646
1595816
1595986
1596158
1596340
1596524
1596720
1596910
1597098
1597288
1597468
1597642
1597818
1598006
1598184
1598362
1598530
1598700
1598874
1599044
1599212
1599390
1599562
1599738
1599912
1600088
1600260
1600430
1600600
1600780
1600962
1601148
1601330
1601512
1601694
1601872
1602048
1602222
1602388
1602562
1602728
1602902
1603066
1603234
1603400
1603574
1603740
1603918
1604090
1604268
1604434
1604612
1604788
1604964
1605132
1605306
1605470
1605638
1605804
1605966
1606124
1606284
1606440
1606598
1606760
1606916
1607078
1607236
1607398
1607554
1607706
1607866
1608020
1608168
1608324
1608478
1608632
1608792
1608948
1609110
1609286
1609472
1609650
1609824
1609998
1610164
1610326
1610486
1610636
1610792
1610942
1611086
1611234
1611390
1611546
1611708
1611886
1612058
1612236
1612418
1612606
1612786
1612968
1613148
1613318
1613492
1613668
1613838
1614012
1614178
1614340
1614496
1614648
1614810
1614970
1615136
1615298
1615458
1615618
1615774
1615928
1616078
1616230
1616376
1616524
1616674
1616822
1616970
1617120
1617274
1617430
1617590
1617748
1617912
1618074
1618236
1618398
1618562
1618724
1618886
1619048
1619210
1619374
1619538
1619694
1619852
1620016
1620176
1620334
1620490
1620648
1620806
1620966
1621122
1621286
1621446
1621608
1621766
1621918
1622072
1622224
1622376
1622528
1622682
1622840
1622992
1623144
1623298
1623450
1623600
1623752
1623900
1624050
1624200
1624352
1624498
1624652
1624802
1624954
1625104
1625254
1625402
1625550
1625698
1625846
1625988
1626136
1626282
1626424
1626566
1626710
1626856
1627002
1627150
1627294
1627448
1627598
1627748
1627898
1628048
1628196
1628342
1628490
1628636
1628782
1628930
1629076
1629222
1629368
1629514
1629658
1629804
1629948
1630094
1630240
1630388
1630536
1630682
1630832
1630980
1631128
1631278
1631426
1631574
1631728
1631878
1632026
1632170
1632314
1632462
1632608
1632752
1632890
1633038
1633182
1633328
1633472
1633622
1633762
1633906
1634056
1634200
1634338
1634484
1634628
1634772
1634920
1635072
1635220
1635370
1635520
1635670
1635824
1635978
1636130
1636282
1636424
1636576
1636720
1636868
1637018
1637168
1637322
1637474
1637624
1637780
1637932
1638084
1638230
1638386
1638538
1638692
1638838
1639000
1639158
1639314
1639468
1639622
1639776
1639928
1640076
1640226
1640370
1640514
1640658
1640806
1640952
1641100
1641244
1641388
1641530
1641672
1641814
1641950
1642094
1642236
1642374
1642518
1642662
1642806
1642946
1643092
1643236
1643386
1643534
1643682
1643828
1643974
1644122
1644270
1644416
1644556
1644704
1644850
1644990
1645136
1645278
1645422
1645564
1645710
1645852
1645996
1646144
1646286
1646434
1646580
1646726
1646872
1647018
1647162
1647314
1647462
1647608
1647756
1647900
1648052
1648198
1648342
1648486
1648628
1648768
1648912
1649052
1649198
1649344
1649494
1649648
1649802
1649956
1650108
1650264
1650422
1650572
1650724
1650878
1651028
1651176
1651324
1651472
1651614
1651764
1651904
1652052
1652206
1652360
1652516
1652670
1652822
1652978
1653132
1653280
1653438
1653586
1653746
1653912
1654074
1654234
1654392
1654546
1654702
1654854
1655010
1655158
1655310
1655466
1655618
1655770
1655924
1656078
1656224
1656374
1656532
1656688
1656848
1657002
1657158
1657318
1657474
1657628
1657786
1657938
1658090
1658242
1658394
1658542
1658692
1658840
1658988
1659134
1659290
1659442
1659588
1659742
1659890
1660036
1660182
1660322
1660472
1660618
1660760
1660912
1661060
1661216
1661374
1661530
1661700
1661870
1662040
1662210
1662376
1662536
1662694
1662848
1663006
1663154
1663308
1663462
1663608
1663758
1663904
1664050
1664196
1664340
1664486
1664630
1664768
1664912
1665054
1665198
1665342
1665486
1665632
1665782
1665924
1666076
1666226
1666380
1666526
1666678
1666830
1666982
1667132
1667288
1667440
1667590
1667734
1667884
1668036
1668194
1668342
1668500
1668660
1668824
1668988
1669156
1669320
1669482
1669640
1669792
1669952
1670106
1670258
1670406
1670552
1670696
1670850
1670992
1671144
1671298
1671450
1671606
1671764
1671916
1672072
1672222
1672376
1672528
1672680
1672836
1672986
1673136
1673288
1673436
1673592
1673744
1673898
1674046
1674198
1674352
1674502
1674654
1674810
1674966
1675122
1675280
1675438
1675594
1675746
1675898
1676050
1676200
1676352
1676502
1676654
1676812
1676964
1677124
1677292
1677470
1677666
1677866
1678066
1678266
1678464
1678654
1678822
1678978
1679140
1679290
1679442
1679592
1679746
1679900
1680054
1680214
1680380
1680554
1680724
1680894
1681074
1681268
1681470
1681684
1681898
1682116
1682332
1682544
1682752
1682934
1683100
1683252
1683408
1683558
1683706
1683852
1684002
1684158
1684342
1684572
1684822
1685090
1685346
1685574
1685762
1685934
1686108
1686266
1686434
1686610
1686788
1686962
1687174
1687422
1687648
1687862
1688036
1688208
1688368
1688546
1688722
1688916
1689116
1689312
1689510
1689712
1689902
1690084
1690258
1690432
1690612
1690784
1690976
1691184
1691410
1691626
1691834
1692036
1692232
1692416
1692596
1692776
1692954
1693150
1693344
1693530
1693708
1693884
1694058
1694222
1694396
1694558
1694724
1694894
1695066
1695242
1695422
1695614
1695796
1695970
1696140
1696314
1696486
1696664
1696846
1697030
1697214
1697398
1697582
1697760
1697936
1698112
1698284
1698444
1698614
1698776
1698934
1699094
1699254
1699418
1699582
1699764
1699958
1700152
1700336
1700520
1700700
1700874
1701044
1701220
1701398
1701566
1701744
1701918
1702100
1702278
1702458
1702638
1702814
1702990
1703164
1703338
1703510
1703680
1703852
1704020
1704188
1704352
1704516
1704680
1704844
1705008
1705176
1705340
1705506
1705672
1705838
1706004
1706174
1706348
1706520
1706694
1706864
1707034
1707204
1707372
1707540
1707710
1707878
1708048
1708216
1708384
1708552
1708716
1708880
1709044
1709204
1709362
1709518
1709670
1709824
1709976
1710122
1710274
1710422
1710568
1710722
1710868
1711024
1711176
1711330
1711482
1711634
1711782
1711930
1712072
1712216
1712368
1712512
1712664
1712814
1712964
1713116
1713268
1713420
1713576
1713732
1713890
1714048
1714208
1714362
1714524
1714686
1714842
1715004
1715168
1715338
1715512
1715682
1715852
1716022
1716190
1716350
1716518
1716686
1716852
1717010
1717172
1717330
1717490
1717666
1717846
1718022
1718188
1718354
1718516
1718680
1718834
1718994
1719148
1719306
1719472
1719638
1719808
1719976
1720138
1720304
1720460
1720634
1720800
1720968
1721122
1721288
1721444
1721612
1721774
1721934
1722096
1722268
1722434
1722598
1722768
1722936
1723096
1723268
1723436
1723602
1723768
1723932
1724098
1724258
1724422
1724584
1724748
1724910
1725072
1725238
1725408
1725576
1725752
1725920
1726094
1726266
1726430
1726596
1726764
1726926
1727084
1727246
1727410
1727568
1727722
1727884
1728044
1728198
1728356
1728512
1728664
1728814
1728960
1729116
1729272
1729430
1729594
1729754
1729922
1730090
1730252
1730414
1730574
1730740
1730904
1731070
1731234
1731402
1731568
1731740
1731904
1732070
1732234
1732392
1732552
1732718
1732878
1733042
1733202
1733360
1733518
1733672
1733830
1733990
1734148
1734306
1734460
1734618
1734780
1734934
1735084
1735238
1735398
1735548
1735708
1735858
1736012
1736164
1736314
1736464
1736622
1736782
1736942
1737102
1737262
1737424
1737586
1737748
1737912
1738076
1738238
1738396
1738560
1738718
1738874
1739028
1739182
1739336
1739496
1739652
1739810
1739968
1740130
1740288
1740446
1740600
1740758
1740916
1741072
1741234
1741388
1741544
1741696
1741858
1742018
1742174
1742326
1742484
1742642
1742806
1742976
1743150
1743316
1743494
1743674
1743842
1744020
1744186
1744352
1744520
1744678
1744848
1745002
1745160
1745316
1745478
1745640
1745802
1745960
1746126
1746296
1746462
1746624
1746788
1746958
1747126
1747290
1747450
1747616
1747782
1747946
1748110
1748278
1748446
1748610
1748772
1748932
1749092
1749254
1749416
1749576
1749734
1749896
1750052
1750204
1750366
1750526
1750684
1750844
1751002
1751160
1751316
1751472
1751634
1751796
1751956
1752116
1752276
1752434
1752590
1752746
1752904
1753058
1753214
1753368
1753522
1753678
1753834
1753996
1754152
1754310
1754466
1754630
1754792
1754950
1755116
1755276
1755438
1755598
1755760
1755928
1756088
1756244
1756402
1756558
1756720
1756870
1757032
1757190
1757342
1757504
1757668
1757836
1757996
1758164
1758324
1758492
1758654
1758820
1758988
1759156
1759330
1759502
1759674
1759838
1760008
1760180
1760378
1760564
1760742
1760908
1761076
1761244
1761418
1761588
1761760
1761938
1762110
1762288
1762464
1762628
1762802
1762970
1763128
1763286
1763448
1763612
1763774
1763934
1764096
1764260
1764422
1764586
1764754
1764924
1765096
1765266
1765428
1765600
1765770
1765938
1766102
1766266
1766432
1766594
1766756
1766914
1767076
1767242
1767406
1767572
1767740
1767906
1768074
1768242
1768408
1768574
1768734
1768896
1769056
1769212
1769372
1769524
1769672
1769832
1769986
1770152
1770312
1770468
1770630
1770790
1770952
1771118
1771286
1771456
1771632
1771800
1771972
1772144
1772316
1772488
1772652
1772824
1772988
1773162
1773324
1773498
1773666
1773842
1774012
1774190
1774370
1774544
1774726
1774896
1775070
1775246
1775420
1775586
1775742
1775904
1776066
1776226
1776386
1776548
1776706
1776862
1777022
1777186
1777340
1777498
1777652
1777806
1777960
1778114
1778274
1778432
1778592
1778756
1778920
1779088
1779256
1779422
1779594
1779766
1779938
1780108
1780276
1780442
1780602
1780766
1780930
1781104
1781268
1781438
1781616
1781788
1781952
1782122
1782292
1782462
1782636
1782800
1782968
1783144
1783318
1783496
1783666
1783834
1784002
1784168
1784330
1784492
1784656
1784822
1784988
1785152
1785324
1785498
1785668
1785842
1786006
1786170
1786334
1786492
1786650
1786804
1786952
1787104
1787254
1787408
1787556
1787708
1787860
1788008
1788166
1788320
1788488
1788648
1788820
1788990
1789164
1789334
1789504
1789666
1789838
1790002
1790164
1790328
1790490
1790652
1790814
1790976
1791140
1791306
1791468
1791630
1791790
1791942
1792098
1792252
1792402
1792554
1792706
1792858
1793002
1793152
1793300
1793450
1793604
1793756
1793908
1794062
1794212
1794370
1794522
1794680
1794838
1794992
1795150
1795324
1795498
1795670
1795832
1795994
1796154
1796318
1796476
1796630
1796788
1796948
1797110
1797274
1797438
1797600
1797764
1797928
1798092
1798254
1798418
1798584
1798748
1798910
1799072
1799236
1799394
1799556
1799716
1799874
