peaks
129
340
558
778
996
1222
1450
1678
1906
2140
2374
2606
2838
3074
3308
3542
3780
4016
4252
4380
4690
4936
5170
5398
5626
5854
6076
6302
6532
6766
6998
7226
7462
7696
7928
8166
8408
8648
8888
9130
9368
9610
9852
10104
10362
10608
10858
11110
11354
11598
11842
12078
12318
12558
12790
13028
13266
13500
13742
13980
14220
14456
14688
14922
15154
15388
15618
15842
16070
16300
16522
16752
16984
17220
17458
17692
17932
18172
18406
18648
18892
19126
19364
19594
19824
20052
20274
20480
20684
20892
21116
21352
21580
21804
22028
22248
22470
22698
22926
23152
23380
23612
23848
24080
24314
24554
24790
25028
25270
25512
25748
25992
26232
26468
26710
26952
27196
27434
27672
27914
28148
28384
28622
28862
29094
29328
29562
29794
30032
30272
30512
30750
30992
31232
31472
31716
31956
32196
32440
32678
32924
33162
33394
33636
33874
34106
34338
34570
34798
35030
35260
35484
35716
35950
36178
36412
36646
36878
37114
37352
37586
37824
38064
38298
38534
38768
38996
39226
39460
39690
39920
40156
40388
40622
40858
41094
41332
41574
41812
42056
42300
42540
42784
43028
43266
43510
43748
43984
44222
44454
44690
44926
45158
45390
45626
45858
46092
46330
46564
46800
47038
47276
47514
47760
48006
48250
48500
48742
48982
49224
49464
49704
49948
50188
50428
50670
50910
51146
51388
51628
51864
52106
52342
52578
52820
53056
53298
53542
53780
54020
54262
54502
54750
54994
55236
55482
55722
55966
56214
56454
56704
56948
57192
57442
57688
57934
58184
58430
58674
58924
59168
59414
59662
59902
60146
60388
60628
60868
61110
61344
61582
61820
62052
62286
62520
62748
62980
63216
63442
63674
63910
64140
64378
64618
64854
65094
65334
65574
65818
66056
66296
66540
66780
67024
67270
67512
67760
68014
68260
68510
68756
69000
69250
69496
69744
69990
70232
70476
70724
70964
71212
71460
71702
71946
72188
72420
72656
72892
73124
73358
73592
73824
74060
74304
74542
74782
75028
75274
75518
75770
76016
76262
76512
76760
77010
77260
77504
77752
78000
78242
78484
78724
78960
79200
79440
79678
79918
80162
80404
80644
80886
81126
81362
81604
81842
82078
82318
82554
82794
83036
83276
83512
83740
83972
84200
84426
84628
84822
85008
85190
85374
85558
85746
85938
86134
86330
86534
86738
86944
87156
87368
87582
87794
88004
88216
88426
88646
88864
89080
89296
89516
89728
89946
90166
90384
90600
90818
91040
91258
91480
91708
91930
92148
92368
92586
92806
93028
93252
93476
93700
93930
94156
94384
94618
94854
95092
95328
95570
95806
96046
96288
96532
96768
97008
97248
97484
97724
97966
98202
98442
98684
98922
99166
99404
99646
99890
100130
100376
100620
100866
101120
101366
101616
101864
102108
102356
102602
102848
103096
103336
103582
103830
104074
104322
104572
104818
105070
105322
105572
105828
106078
106334
106586
106842
107098
107350
107608
107858
108112
108368
108616
108872
109126
109380
109624
109874
110120
110364
110604
110836
111070
111302
111530
111762
111988
112218
112448
112670
112892
113114
113338
113560
113784
114012
114242
114470
114694
114916
115144
115370
115592
115820
116050
116282
116516
116748
116986
117218
117456
117692
117932
118168
118410
118652
118890
119132
119374
119618
119860
120106
120350
120596
120846
121092
121342
121592
121838
122088
122336
122580
122826
123064
123310
123556
123798
124044
124290
124530
124770
125000
125230
125456
125680
125890
126096
126310
126546
126788
127016
127248
127480
127708
127944
128184
128420
128660
128906
129144
129388
129632
129872
130120
130358
130600
130846
131090
131322
131560
131792
132030
132268
132506
132736
132976
133212
133452
133698
133938
134182
134434
134678
134928
135182
135432
135682
135936
136184
136438
136684
136930
137182
137422
137662
137906
138150
138388
138630
138756
139104
139338
139568
139802
140038
140274
140506
140744
140980
141216
141460
141708
141952
142198
142442
142684
142928
143170
143418
143666
143912
144164
144416
144668
144920
145172
145426
145674
145928
146178
146418
146660
146904
147142
147384
147630
147878
148118
148366
148610
148856
149104
149348
149598
149852
150100
150352
150606
150858
151112
151364
151622
151886
152142
152402
152658
152920
153186
153448
153714
153978
154244
154508
154768
155028
155284
155542
155796
156044
156294
156542
156794
157044
157290
157542
157794
158044
158298
158548
158804
159060
159312
159570
159820
160076
160330
160586
160842
161092
161348
161604
161860
162120
162372
162630
162882
163138
163398
163650
163906
164162
164416
164674
164924
165182
165436
165692
165946
166194
166450
166708
166956
167208
167456
167710
167964
168212
168464
168712
168966
169220
169470
169724
169972
170222
170474
170726
170976
171228
171482
171734
171978
172222
172464
172694
172922
173148
173362
173558
173752
173938
174122
174304
174484
174654
174824
174998
175170
175342
175510
175680
175846
176012
176182
176354
176530
176706
176880
177056
177236
177424
177632
177838
178030
178226
178426
178626
178828
179028
179226
179426
179624
179822
180020
180222
180426
180634
180846
181060
181276
181500
181726
181954
182180
182414
182652
182894
183138
183380
183618
183862
184110
184356
184604
184846
185084
185330
185568
185806
186050
186296
186546
186788
187034
187278
187518
187764
188012
188250
188494
188740
188984
189230
189476
189718
189968
190218
190466
190716
190966
191218
191470
191716
191964
192214
192460
192710
192958
193206
193458
193706
193960
194214
194468
194720
194968
195222
195472
195722
195968
196214
196460
196702
196948
197198
197446
197700
197952
198200
198454
198708
198960
199216
199466
199722
199978
200228
200480
200732
200980
201228
201476
201722
201966
202212
202456
202696
202938
203174
203416
203658
203896
204140
204384
204622
204864
205104
205342
205582
205822
206062
206304
206542
206780
207020
207254
207494
207732
207966
208204
208442
208680
208920
209158
209400
209642
209882
210122
210360
210598
210838
211072
211306
211534
211760
211978
212190
212392
212590
212786
212986
213188
213398
213618
213850
214080
214314
214554
214788
215022
215256
215490
215730
215972
216212
216452
216694
216932
217178
217422
217666
217908
218152
218396
218640
218880
219124
219368
219610
219854
220098
220342
220590
220836
221086
221332
221580
221830
222078
222332
222586
222832
223084
223340
223590
223838
224086
224334
224582
224828
225070
225316
225562
225812
226056
226300
226548
226794
227044
227298
227550
227806
228060
228314
228568
228822
229076
229332
229588
229844
230100
230352
230610
230866
231118
231370
231622
231874
232128
232378
232632
232886
233136
233388
233642
233890
234144
234396
234642
234890
235138
235380
235626
235872
236112
236356
236600
236840
237078
237310
237538
237770
238002
238230
238466
238702
238942
239182
239426
239668
239916
240164
240414
240664
240912
241158
241404
241650
241894
242138
242384
242632
242876
243124
243368
243618
243868
244116
244372
244626
244878
245132
245384
245638
245892
246146
246396
246646
246894
247142
247390
247632
247882
248130
248378
248622
248872
249118
249364
249612
249860
250104
250350
250596
250840
251084
251328
251570
251814
252056
252302
252550
252796
253044
253288
253530
253776
254020
254266
254512
254756
254998
255246
255488
255730
255974
256214
256458
256706
256948
257192
257434
257676
257920
258164
258406
258652
258898
259148
259400
259652
259908
260164
260418
260672
260922
261168
261418
261666
261912
262162
262410
262660
262912
263162
263416
263668
263918
264170
264424
264672
264920
265168
265412
265660
265904
266148
266394
266638
266880
267124
267368
267610
267858
268104
268350
268600
268850
269104
269360
269614
269866
270118
270366
270616
270860
271106
271356
271604
271848
272094
272338
272588
272832
273080
273324
273568
273818
274062
274308
274556
274800
275048
275296
275538
275784
276030
276274
276520
276764
277008
277252
277498
277744
277988
278238
278484
278730
278980
279230
279478
279726
279974
280222
280470
280718
280966
281204
281440
281666
281882
282086
282286
282482
282680
282884
283098
283322
283556
283796
284030
284270
284502
284736
284970
285208
285446
285686
285928
286174
286422
286672
286920
287156
287394
287624
287850
288078
288298
288522
288748
288974
289198
289426
289658
289886
290116
290352
290590
290826
291072
291316
291564
291816
292070
292330
292590
292844
293104
293362
293618
293878
294130
294386
294644
294902
295150
295402
295650
295902
296154
296404
296662
296918
297176
297438
297694
297956
298214
298476
298736
298998
299262
299520
299780
300034
300286
300542
300792
301050
301306
301560
301818
302078
302340
302600
302858
303118
303378
303634
303892
304146
304398
304654
304900
305144
305388
305630
305878
306126
306372
306624
306878
307128
307382
307634
307886
308144
308398
308656
308914
309170
309426
309678
309934
310184
310432
310684
310940
311190
311442
311692
311940
312192
312444
312692
312940
313180
313422
313660
313890
314122
314352
314586
314820
315052
315294
315536
315778
316024
316276
316526
316774
317026
317272
317518
317762
318000
318230
318454
318674
318886
319108
319346
319580
319804
320030
320254
320480
320708
320938
321174
321414
321654
321900
322144
322392
322644
322898
323150
323402
323654
323902
324156
324416
324676
324928
325184
325440
325694
325954
326212
326470
326734
326994
327252
327516
327778
328032
328280
328524
328770
329018
329266
329512
329748
329978
330208
330438
330668
330892
331114
331342
331574
331808
332038
332278
332518
332760
333010
333262
333512
333760
334008
334250
334484
334716
334940
335164
335390
335612
335836
336066
336296
336528
336762
336996
337228
337468
337716
337964
338206
338452
338696
338940
339188
339436
339682
339928
340176
340420
340660
340906
341150
341398
341644
341894
342140
342388
342644
342898
343152
343406
343658
343916
344176
344432
344692
344950
345206
345460
345710
345962
346214
346464
346716
346966
347214
347468
347720
347974
348230
348484
348746
349006
349266
349532
349792
350054
350318
350576
350838
351094
351350
351606
351858
352114
352372
352628
352880
353136
353386
353640
353902
354160
354420
354686
354950
355222
355494
355766
356034
356304
356568
356834
357098
357362
357622
357882
358136
358394
358652
358912
359164
359416
359664
359916
360170
360420
360680
360936
361198
361464
361728
361996
362264
362528
362790
363050
363306
363566
363824
364076
364332
364588
364844
365106
365364
365626
365890
366154
366422
366688
366950
367218
367480
367744
368004
368262
368522
368778
369034
369292
369542
369798
370054
370306
370558
370814
371066
371322
371582
371836
372094
372352
372608
372870
373126
373384
373646
373900
374158
374418
374672
374932
375186
375438
375696
375956
376210
376468
376722
376978
377236
377494
377754
378014
378280
378546
378806
379070
379330
379590
379854
380100
380338
380574
380802
381026
381252
381476
381708
381950
382192
382432
382674
382912
383146
383388
383630
383870
384118
384364
384618
384872
385122
385380
385636
385890
386148
386404
386660
386918
387176
387436
387694
387954
388218
388478
388738
389000
389256
389522
389788
390048
390314
390576
390846
391110
391374
391640
391896
392158
392416
392674
392936
393200
393458
393722
393980
394234
394494
394748
395004
395266
395528
395800
396070
396338
396614
396888
397158
397428
397692
397958
398226
398488
398752
399008
399268
399528
399784
400046
400304
400564
400832
401096
401362
401632
401898
402170
402438
402706
402982
403252
403524
403794
404056
404322
404584
404842
405102
405360
405614
405870
406130
406384
406648
406914
407178
407448
407714
407988
408262
408528
408796
409064
409326
409590
409852
410106
410370
410638
410896
411166
411438
411704
411978
412248
412520
412798
413074
413346
413624
413892
414162
414436
414700
414970
415234
415496
415756
416016
416274
416536
416798
417062
417328
417594
417864
418138
418408
418684
418964
419242
419522
419798
420076
420360
420634
420904
421178
421448
421716
421984
422250
422514
422784
423048
423316
423584
423850
424122
424400
424674
424950
425234
425512
425788
426068
426340
426620
426900
427170
427442
427714
427978
428248
428508
428766
429030
429286
429546
429812
430078
430342
430606
430866
431126
431394
431654
431918
432182
432442
432708
432970
433228
433494
433756
434020
434288
434554
434822
435096
435370
435642
435920
436194
436470
436748
437016
437286
437560
437824
438086
438350
438608
438868
439132
439392
439658
439930
440200
440466
440740
441004
441274
441544
441806
442072
442336
442598
442860
443126
443390
443648
443912
444170
444424
444686
444946
445210
445480
445744
446010
446284
446554
446822
447096
447364
447642
447920
448192
448468
448748
449020
449298
449576
449854
450134
450404
450674
450946
451214
451482
451754
452020
452300
452578
452854
453132
453410
453688
453968
454244
454520
454804
455076
455348
455616
455874
456142
456406
456666
456932
457204
457472
457742
458010
458274
458542
458816
459084
459356
459634
459912
460188
460466
460742
461020
461304
461578
461856
462140
462414
462690
462960
463224
463496
463766
464028
464296
464562
464824
465090
465358
465620
465892
466168
466440
466724
467006
467286
467570
467846
468120
468400
468674
468950
469222
469490
469766
470032
470300
470566
470832
471096
471360
471628
471894
472162
472434
472704
472970
473244
473516
473784
474058
474328
474594
474866
475132
475398
475670
475944
476218
476494
476768
477042
477318
477590
477858
478128
478398
478664
478934
479200
479472
479744
480012
480286
480562
480838
481116
481392
481666
481948
482224
482496
482772
483042
483312
483582
483850
484116
484388
484652
484914
485182
485450
485716
485986
486250
486512
486782
487050
487316
487588
487858
488126
488404
488680
488958
489242
489522
489800
490080
490356
490632
490910
491184
491452
491732
492006
492280
492556
492826
493098
493372
493638
493904
494172
494436
494694
494950
495214
495482
495748
496018
496290
496560
496838
497110
497378
497652
497926
498200
498480
498758
499042
499332
499614
499904
500192
500472
500752
501030
501304
501576
501846
502110
502368
502632
502898
503160
503434
503708
503982
504266
504546
504822
505108
505392
505674
505958
506236
506518
506804
507086
507362
507644
507924
508198
508478
508756
509032
509310
509584
509856
510132
510402
510666
510928
511194
511456
511712
511978
512238
512494
512760
513028
513292
513566
513840
514114
514394
514668
514942
515218
515490
515758
516032
516304
516580
516856
517126
517402
517678
517954
518236
518512
518792
519072
519344
519620
519896
520168
520446
520720
520992
521276
521554
521832
522116
522398
522680
522964
523246
523528
523816
524104
524386
524670
524956
525234
525514
525794
526070
526352
526632
526914
527198
527480
527758
528038
528314
528590
528876
529160
529438
529718
529992
530264
530532
530796
531056
531318
531580
531838
532100
532368
532632
532896
533168
533438
533708
533982
534252
534520
534794
535064
535332
535596
535864
536134
536398
536664
536922
537190
537460
537730
537998
538262
538528
538804
539072
539342
539612
539884
540152
540430
540706
540980
541250
541510
541760
542006
542252
542494
542722
542952
543172
543392
543614
543844
544080
544308
544552
544800
545052
545304
545564
545820
546070
546320
546568
546806
547052
547304
547558
547812
548068
548324
548576
548828
549072
549314
549556
549798
550038
550288
550540
550786
551036
551282
551528
551774
552024
552272
552520
552772
553026
553276
553532
553788
554034
554286
554542
554794
555048
555308
555568
555826
556084
556344
556598
556850
557108
557366
557622
557880
558138
558394
558656
558914
559170
559430
559692
559946
560208
560476
560738
561000
561270
561534
561794
562064
562326
562586
562852
563114
563372
563636
563892
564148
564410
564668
564924
565184
565444
565704
565968
566232
566492
566754
567022
567286
567546
567812
568076
568338
568602
568866
569134
569408
569686
569954
570224
570502
570770
571036
571302
571562
571820
572082
572344
572602
572864
573128
573388
573644
573908
574172
574434
574700
574968
575230
575498
575766
576026
576286
576548
576808
577066
577334
577602
577868
578138
578410
578678
578946
579224
579500
579770
580048
580322
580596
580874
581146
581414
581692
581964
582232
582504
582776
583050
583330
583612
583886
584162
584442
584716
584984
585252
585524
585794
586062
586334
586602
586876
587144
587408
587676
587944
588206
588472
588734
588998
589270
589532
589796
590062
590318
590570
590832
591084
591330
591586
591842
592088
592326
592558
592794
593020
593240
593462
593706
593950
594200
594456
594700
594934
595170
595400
595622
595844
596058
596264
596460
596652
596836
597014
597192
597368
597544
597715
597888
598058
598230
598398
598566
598732
598898
599066
599230
599392
599556
599716
599878
600036
600196
600350
600506
600660
600816
600968
601122
601274
601428
601582
601734
601886
602042
602196
602356
602512
602672
602834
602998
603164
603330
603494
603660
603828
603998
604168
604344
604520
604702
604890
605088
605290
605486
605686
605890
606094
606300
606510
606728
606948
607158
607372
607588
607802
608016
608234
608446
608662
608882
609104
609324
609544
609772
609998
610226
610458
610688
610920
611158
611392
611630
611870
612108
612346
612592
612834
613072
613318
613562
613804
614054
614296
614538
614780
615016
615254
615494
615728
615966
616200
616432
616670
616906
617140
617382
617624
617860
618102
618348
618588
618834
619080
619324
619574
619824
620078
620336
620588
620846
621110
621366
621628
621894
622150
622414
622674
622932
623194
623448
623712
623978
624234
624502
624770
625038
625312
625578
625846
626114
626376
626640
626900
627162
627434
627696
627956
628208
628462
628714
628958
629202
629442
629678
629918
630154
630392
630630
630878
631124
631368
631618
631872
632122
632380
632632
632884
633140
633396
633656
633920
634182
634440
634702
634962
635218
635476
635734
635992
636258
636520
636790
637062
637336
637608
637882
638152
638428
638706
638974
639252
639530
639798
640070
640338
640602
640874
641144
641410
641682
641948
642214
642484
642744
643012
643280
643542
643812
644080
644352
644634
644910
645188
645468
645740
646022
646302
646574
646852
647128
647396
647670
647936
648208
648478
648740
649010
649276
649550
649826
650094
650370
650648
650926
651206
651476
651756
652036
652310
652590
652864
653144
653424
653694
653970
654246
654520
654798
655070
655346
655632
655908
656190
656472
656748
657028
657296
657566
657830
658084
658338
658586
658828
659068
659302
659540
659770
659996
660226
660470
660724
660970
661214
661458
661702
661948
662196
662448
662694
662946
663200
663448
663704
663958
664210
664462
664714
664958
665204
665452
665698
665940
666186
666426
666674
666918
667162
667408
667656
667906
668160
668410
668664
668920
669174
669428
669682
669930
670180
670434
670684
670934
671188
671438
671692
671948
672198
672456
672716
672972
673234
673492
673754
674018
674276
674536
674792
675042
675298
675550
675798
676054
676304
676554
676812
677064
677314
677570
677820
678038
678334
678586
678838
679094
679346
679602
679866
680128
680384
680644
680904
681158
681420
681680
681930
682186
682438
682688
682944
683194
683446
683702
683958
684214
684472
684724
684980
685242
685500
685762
686030
686292
686560
686822
687086
687348
687608
687870
688130
688382
688640
688898
689150
689406
689658
689908
690162
690412
690666
690924
691176
691436
691694
691946
692204
692456
692710
692966
693216
693464
693718
693966
694214
694466
694714
694968
695228
695482
695744
696010
696272
696538
696800
697062
697328
697588
697852
698118
698374
698638
698902
699156
699414
699670
699924
700186
700444
700700
700964
701226
701488
701754
702012
702276
702536
702796
703062
703324
703586
703854
704112
704372
704634
704890
705144
705400
705658
705912
706176
706442
706694
706956
707216
707476
707744
708010
708276
708550
708818
709086
709358
709624
709894
710162
710420
710684
710942
711198
711458
711716
711972
712234
712492
712752
713014
713268
713530
713794
714052
714314
714580
714840
715106
715376
715640
715912
716180
716444
716712
716972
717226
717488
717742
717992
718250
718506
718756
719012
719264
719516
719774
720030
720284
720548
720810
721068
721336
721600
721856
722122
722384
722638
722896
723150
723404
723666
723918
724176
724440
724702
724968
725240
725504
725776
726048
726314
726582
726848
727110
727380
727650
727910
728176
728442
728698
728958
729214
729464
729720
729972
730224
730480
730734
730992
731254
731506
731760
732020
732278
732532
732792
733054
733316
733578
733840
734094
734356
734618
734870
735130
735392
735648
735908
736172
736424
736684
736942
737196
737456
737714
737970
738234
738496
738752
739014
739276
739532
739792
740052
740304
740564
740820
741074
741334
741590
741844
742106
742370
742624
742888
743154
743412
743674
743936
744188
744448
744704
744954
745208
745456
745708
745830
746194
746454
746712
746964
747218
747476
747728
747988
748246
748502
748758
749016
749272
749534
749792
750044
750300
750558
750810
751066
751320
751568
751822
752074
752320
752570
752822
753072
753320
753570
753818
754064
754316
754566
754814
755070
755322
755576
755838
756102
756360
756628
756896
757152
757418
757684
757942
758204
758462
758714
758968
759224
759470
759724
759980
760232
760494
760752
761004
761264
761532
761790
762056
762320
762578
762844
763104
763358
763620
763878
764134
764398
764656
764912
765178
765440
765698
765960
766212
766470
766730
766982
767238
767496
767746
767994
768242
768490
768738
768992
769246
769498
769760
770020
770286
770556
770822
771092
771370
771640
771916
772194
772462
772740
773020
773286
773560
773830
774088
774352
774614
774870
775134
775390
775644
775900
776154
776412
776674
776930
777184
777446
777706
777960
778220
778476
778730
778994
779252
779510
779770
780036
780290
780552
780818
781078
781334
781596
781856
782110
782374
782642
782896
783158
783422
783676
783938
784202
784456
784720
784986
785242
785502
785764
786018
786280
786536
786794
787054
787314
787574
787836
788094
788358
788622
788878
789136
789392
789642
789894
790148
790400
790646
790900
791156
791410
791672
791936
792192
792456
792720
792976
793242
793504
793762
794024
794284
794536
794796
795052
795306
795564
795690
796060
796318
796574
796818
797072
797326
797574
797820
798074
798320
798568
798820
799068
799314
799566
799818
800064
800318
800570
800818
801074
801328
801580
801836
802090
802344
802598
802850
803098
803350
803602
803848
804098
804348
804596
804852
805104
805356
805612
805860
806114
806366
806614
806860
807114
807364
807616
807868
808120
808372
808630
808880
809138
809398
809652
809912
810162
810414
810670
810922
811176
811430
811678
811930
812178
812422
812666
812902
813142
813382
813618
813860
814106
814348
814602
814858
815106
815360
815612
815862
816114
816364
816612
816866
817120
817368
817622
817876
818124
818380
818636
818886
819144
819404
819658
819918
820180
820438
820702
820968
821228
821490
821756
822014
822274
822538
822790
823048
823306
823558
823812
824068
824318
824576
824838
825090
825350
825612
825868
826126
826386
826640
826896
827156
827410
827662
827918
828172
828424
828682
828938
829190
829448
829702
829952
830210
830468
830722
830982
831238
831492
831756
832018
832272
832532
832790
833042
833304
833560
833814
834076
834328
834586
834838
835084
835338
835586
835842
836102
836358
836624
836888
837142
837404
837664
837920
838184
838444
838704
838966
839226
839482
839744
840000
840260
840524
840780
841044
841304
841564
841834
842098
842370
842640
842906
843172
843438
843694
843958
844222
844478
844738
845000
845254
845520
845778
846032
846292
846550
846800
847056
847310
847560
847818
848076
848332
848592
848852
849110
849370
849624
849880
850144
850402
850662
850924
851178
851436
851696
851948
852208
852466
852718
852982
853240
853496
853760
854022
854276
854538
854794
855044
855302
855558
855806
856058
856304
856556
856808
857050
857298
857544
857786
858036
858284
858530
858788
859044
859304
859572
859832
860102
860372
860636
860906
861174
861432
861694
861948
862198
862450
862698
862946
863198
863444
863698
863956
864206
864466
864728
864988
865258
865526
865788
866056
866190
866570
866840
867096
867346
867600
867850
868092
868338
868586
868832
869080
869326
869568
869818
870068
870316
870572
870824
871078
871336
871588
871840
872098
872354
872608
872868
873124
873374
873636
873894
874144
874402
874652
874900
875156
875408
875656
875912
876168
876426
876686
876940
877200
877460
877716
877974
878232
878484
878742
878996
879242
879490
879744
879992
880244
880502
880754
881014
881274
881528
881790
882054
882312
882576
882844
883104
883368
883638
883902
884164
884430
884686
884946
885206
885460
885712
885968
886214
886464
886714
886960
887210
887464
887710
887966
888226
888484
888748
889012
889270
889528
889788
890044
890304
890564
890818
891076
891330
891578
891836
892086
892342
892598
892844
893096
893352
893602
893858
894114
894366
894628
894886
895144
895404
895660
895918
896176
896428
896678
896932
897180
897432
897686
897934
898192
898448
898700
898960
899218
899472
899736
900000
900256
900516
900778
901032
901290
901544
901792
902048
902298
902544
902794
903048
903298
903556
903814
904070
904332
904594
904848
905112
905372
905630
905896
906154
906410
906672
906926
907188
907448
907696
907950
908208
908456
908710
908962
909210
909464
909716
909966
910220
910474
910644
910966
911230
911488
911748
912004
912258
912518
912774
913032
913296
913554
913808
914070
914326
914580
914840
915098
915352
915612
915868
916128
916384
916634
916892
917148
917398
917658
917914
918170
918418
918668
918916
919166
919422
919674
919928
920188
920446
920710
920980
921240
921506
921768
922030
922294
922550
922814
923074
923328
923584
923836
924084
924340
924586
924834
925084
925328
925580
925830
926076
926326
926576
926822
927074
927324
927568
927820
928070
928318
928568
928818
929068
929324
929576
929824
930078
930332
930582
930836
931086
931330
931580
931828
932076
932328
932580
932828
933082
933332
933578
933826
934074
934324
934576
934824
935072
935326
935574
935826
936076
936330
936576
936826
937078
937324
937576
937832
938082
938338
938594
938846
939104
939364
939618
939878
940140
940398
940656
940918
941174
941432
941694
941950
942212
942480
942738
943000
943260
943514
943774
944036
944288
944548
944808
945060
945320
945578
945830
946088
946346
946596
946852
947102
947350
947604
947852
948100
948348
948592
948844
949096
949342
949592
949846
950092
950344
950598
950844
951098
951346
951596
951852
952104
952354
952614
952872
953122
953380
953634
953886
954142
954396
954642
954896
955144
955386
955634
955878
956120
956368
956616
956860
957112
957366
957618
957876
958134
958388
958648
958912
959168
959434
959696
959954
960216
960474
960724
960982
961238
961490
961744
961996
962244
962502
962752
962998
963250
963496
963746
963998
964244
964496
964746
964992
965244
965494
965738
965988
966236
966480
966730
966974
967222
967480
967732
967982
968234
968482
968734
968986
969230
969484
969738
969992
970250
970502
970760
971018
971268
971524
971778
972022
972272
972520
972764
973012
973256
973506
973760
974008
974262
974516
974764
975022
975278
975530
975790
976052
976308
976574
976836
977092
977354
977612
977864
978116
978368
978616
978868
979120
979368
979622
979874
980118
980370
980624
980872
981128
981388
981638
981892
982022
982392
982648
982900
983142
983390
983640
983886
984136
984388
984642
984890
985144
985400
985648
985904
986154
986408
986666
986918
987176
987434
987686
987944
988200
988454
988710
988962
989212
989468
989716
989966
990218
990462
990712
990964
991208
991460
991712
991962
992218
992472
992724
992980
993238
993492
993752
994008
994264
994526
994778
995036
995292
995544
995796
996050
996298
996548
996798
997044
997290
997528
997760
997996
998232
998462
998692
998918
999140
999344
999540
999726
999906
1000080
1000250
1000414
1000572
1000728
1000882
1001034
1001188
1001338
1001488
1001638
1001792
1001946
1002098
1002248
1002402
1002558
1002714
1002874
1003032
1003192
1003352
1003512
1003676
1003842
1004010
1004180
1004356
1004534
1004718
1004916
1005120
1005324
1005528
1005736
1005944
1006148
1006354
1006562
1006774
1006988
1007202
1007426
1007654
1007876
1008112
1008346
1008588
1008838
1009094
1009350
1009610
1009874
1010134
1010398
1010668
1010928
1011194
1011448
1011702
1011940
1012168
1012398
1012622
1012844
1013074
1013316
1013560
1013814
1014066
1014320
1014590
1014848
1015108
1015372
1015634
1015906
1016174
1016446
1016720
1016990
1017268
1017536
1017810
1018088
1018360
1018638
1018912
1019194
1019464
1019736
1020012
1020284
1020562
1020834
1021106
1021372
1021634
1021892
1022148
1022400
1022652
1022910
1023156
1023396
1023632
1023866
1024106
1024346
1024584
1024820
1025064
1025306
1025554
1025804
1026052
1026308
1026562
1026826
1027088
1027358
1027644
1027924
1028208
1028492
1028772
1029058
1029338
1029618
1029894
1030170
1030446
1030712
1030986
1031268
1031538
1031800
1032064
1032316
1032568
1032824
1033072
1033326
1033576
1033830
1034086
1034340
1034598
1034856
1035114
1035382
1035644
1035912
1036186
1036460
1036738
1037006
1037278
1037552
1037828
1038112
1038386
1038668
1038948
1039228
1039510
1039782
1040056
1040340
1040610
1040886
1041156
1041422
1041690
1041952
1042210
1042474
1042734
1042996
1043260
1043516
1043774
1044024
1044272
1044520
1044770
1045016
1045260
1045506
1045752
1045988
1046220
1046442
1046658
1046870
1047088
1047304
1047514
1047722
1047926
1048124
1048318
1048508
1048692
1048872
1049048
1049216
1049384
1049550
1049716
1049880
1050050
1050222
1050402
1050598
1050816
1051024
1051240
1051452
1051668
1051882
1052100
1052322
1052554
1052784
1053012
1053240
1053466
1053694
1053926
1054160
1054394
1054622
1054854
1055078
1055298
1055514
1055724
1055932
1056144
1056356
1056574
1056790
1057008
1057236
1057472
1057704
1057942
1058178
1058418
1058664
1058910
1059156
1059400
1059646
1059898
1060150
1060400
1060650
1060900
1061154
1061400
1061648
1061898
1062150
1062400
1062654
1062904
1063156
1063412
1063664
1063920
1064176
1064418
1064664
1064908
1065146
1065388
1065624
1065866
1066110
1066350
1066596
1066838
1067084
1067332
1067578
1067830
1068078
1068334
1068590
1068844
1069106
1069362
1069626
1069886
1070142
1070398
1070650
1070906
1071158
1071408
1071660
1071906
1072160
1072410
1072656
1072908
1073152
1073394
1073632
1073862
1074088
1074310
1074528
1074738
1074934
1075120
1075298
1075474
1075646
1075816
1075984
1076148
1076308
1076464
1076618
1076770
1076920
1077070
1077220
1077368
1077512
1077658
1077806
1077956
1078110
1078266
1078422
1078580
1078742
1078912
1079104
1079302
1079498
1079698
1079906
1080118
1080330
1080544
1080758
1080974
1081190
1081408
1081630
1081854
1082082
1082306
1082530
1082762
1082992
1083220
1083450
1083680
1083906
1084134
1084368
1084604
1084836
1085076
1085312
1085550
1085796
1086044
1086288
1086540
1086790
1087038
1087290
1087544
1087790
1088040
1088290
1088530
1088772
1089014
1089252
1089492
1089728
1089960
1090200
1090432
1090670
1090906
1091140
1091374
1091602
1091826
1092056
1092286
1092514
1092748
1092986
1093220
1093452
1093690
1093924
1094162
1094406
1094650
1094892
1095138
1095382
1095630
1095874
1096122
1096370
1096616
1096872
1097122
1097374
1097628
1097880
1098138
1098388
1098642
1098896
1099144
1099402
1099654
1099912
1100172
1100430
1100688
1100936
1101184
1101432
1101672
1101914
1102162
1102406
1102646
1102894
1103134
1103374
1103620
1103858
1104100
1104350
1104590
1104840
1105088
1105334
1105584
1105826
1106076
1106324
1106570
1106824
1107070
1107320
1107574
1107826
1108084
1108346
1108598
1108858
1109114
1109364
1109618
1109874
1110122
1110372
1110620
1110860
1111102
1111346
1111588
1111830
1112072
1112310
1112554
1112794
1113040
1113282
1113524
1113770
1114014
1114256
1114506
1114750
1114996
1115248
1115492
1115740
1115986
1116230
1116478
1116720
1116962
1117206
1117444
1117684
1117924
1118156
1118392
1118616
1118840
1119060
1119270
1119456
1119640
1119820
1120004
1120192
1120382
1120574
1120776
1120994
1121220
1121442
1121664
1121876
1122080
1122280
1122472
1122660
1122842
1123020
1123202
1123386
1123576
1123768
1123958
1124148
1124338
1124530
1124736
1124976
1125212
1125436
1125662
1125888
1126120
1126362
1126604
1126850
1127090
1127332
1127580
1127828
1128070
1128314
1128558
1128802
1129048
1129284
1129522
1129760
1129994
1130228
1130464
1130702
1130934
1131178
1131424
1131662
1131910
1132156
1132404
1132658
1132910
1133170
1133434
1133698
1133964
1134222
1134484
1134748
1135006
1135266
1135524
1135774
1136030
1136284
1136538
1136796
1137042
1137296
1137544
1137792
1138048
1138294
1138548
1138802
1139048
1139304
1139552
1139810
1140072
1140322
1140568
1140810
1141060
1141312
1141554
1141804
1142058
1142312
1142568
1142826
1143076
1143330
1143590
1143838
1144092
1144342
1144592
1144848
1145102
1145348
1145598
1145844
1146096
1146348
1146596
1146850
1147106
1147360
1147618
1147876
1148134
1148398
1148656
1148916
1149176
1149430
1149692
1149946
1150196
1150450
1150696
1150940
1151188
1151430
1151674
1151920
1152160
1152404
1152650
1152890
1153132
1153376
1153616
1153858
1154094
1154332
1154578
1154818
1155064
1155316
1155562
1155814
1156074
1156328
1156582
1156842
1157096
1157348
1157602
1157848
1158100
1158352
1158600
1158858
1159106
1159356
1159610
1159856
1160096
1160330
1160562
1160790
1161016
1161234
1161448
1161642
1161830
1162014
1162196
1162378
1162566
1162760
1162956
1163154
1163360
1163574
1163794
1164018
1164240
1164462
1164684
1164906
1165128
1165346
1165566
1165790
1166016
1166242
1166464
1166690
1166918
1167142
1167364
1167592
1167818
1168042
1168272
1168506
1168738
1168974
1169218
1169460
1169700
1169942
1170176
1170412
1170652
1170892
1171132
1171376
1171620
1171866
1172116
1172364
1172610
1172862
1173110
1173360
1173616
1173862
1174118
1174378
1174628
1174884
1175136
1175382
1175638
1175888
1176128
1176366
1176606
1176834
1177058
1177274
1177486
1177698
1177896
1178094
1178284
1178472
1178666
1178860
1179058
1179258
1179464
1179682
1179898
1180106
1180308
1180512
1180726
1180958
1181172
1181390
1181612
1181834
1182060
1182284
1182510
1182740
1182966
1183194
1183426
1183652
1183882
1184118
1184348
1184578
1184810
1185040
1185274
1185512
1185748
1185984
1186224
1186460
1186702
1186942
1187180
1187420
1187654
1187890
1188128
1188358
1188592
1188826
1189056
1189290
1189518
1189750
1189984
1190218
1190460
1190696
1190936
1191174
1191410
1191650
1191882
1192118
1192352
1192580
1192814
1193044
1193272
1193504
1193730
1193960
1194194
1194420
1194654
1194886
1195118
1195242
1195588
1195824
1196062
1196294
1196530
1196766
1196998
1197234
1197468
1197704
1197942
1198174
1198410
1198648
1198882
1199122
1199358
1199592
1199830
1200066
1200306
1200546
1200780
1201022
1201262
1201502
1201746
1201988
1202230
1202476
1202724
1202972
1203224
1203468
1203716
1203966
1204210
1204456
1204700
1204940
1205186
1205424
1205664
1205900
1206136
1206372
1206604
1206834
1207068
1207296
1207528
1207764
1207992
1208224
1208454
1208680
1208912
1209142
1209372
1209606
1209842
1210076
1210312
1210550
1210782
1211020
1211262
1211504
1211742
1211986
1212224
1212470
1212716
1212962
1213212
1213458
1213712
1213964
1214214
1214464
1214712
1214964
1215216
1215464
1215714
1215962
1216206
1216454
1216696
1216936
1217182
1217422
1217662
1217902
1218140
1218388
1218630
1218878
1219128
1219372
1219620
1219870
1220116
1220366
1220612
1220854
1221102
1221348
1221590
1221838
1222088
1222336
1222588
1222832
1223076
1223324
1223568
1223818
1224070
1224316
1224572
1224826
1225086
1225350
1225608
1225872
1226140
1226396
1226656
1226914
1227168
1227426
1227680
1227932
1228192
1228444
1228700
1228958
1229208
1229458
1229708
1229952
1230200
1230444
1230686
1230934
1231178
1231416
1231656
1231888
1232122
1232358
1232592
1232820
1233052
1233280
1233510
1233742
1233970
1234202
1234436
1234668
1234908
1235146
1235386
1235628
1235866
1236106
1236338
1236568
1236798
1237032
1237264
1237498
1237734
1237968
1238202
1238440
1238672
1238910
1239142
1239372
1239608
1239848
1240086
1240322
1240564
1240802
1241048
1241290
1241532
1241780
1242020
1242262
1242506
1242746
1242980
1243218
1243450
1243682
1243912
1244140
1244370
1244598
1244832
1245068
1245302
1245542
1245784
1246026
1246266
1246500
1246740
1246976
1247216
1247452
1247694
1247938
1248180
1248430
1248672
1248918
1249166
1249410
1249658
1249910
1250158
1250412
1250664
1250912
1251166
1251412
1251662
1251914
1252160
1252410
1252656
1252896
1253144
1253384
1253624
1253866
1254100
1254332
1254570
1254804
1255024
1255248
1255466
1255684
1255900
1256118
1256330
1256550
1256772
1257000
1257224
1257444
1257670
1257900
1258134
1258366
1258598
1258830
1259062
1259298
1259540
1259784
1260018
1260264
1260506
1260748
1260992
1261232
1261472
1261718
1261966
1262204
1262448
1262696
1262936
1263184
1263432
1263678
1263922
1264170
1264410
1264654
1264900
1265144
1265392
1265642
1265886
1266136
1266380
1266630
1266884
1267130
1267380
1267634
1267886
1268134
1268386
1268630
1268880
1269134
1269382
1269632
1269882
1270128
1270380
1270628
1270878
1271128
1271374
1271620
1271872
1272114
1272360
1272606
1272844
1273088
1273328
1273564
1273804
1274048
1274288
1274534
1274778
1275020
1275272
1275520
1275768
1276016
1276262
1276506
1276756
1276998
1277246
1277492
1277734
1277982
1278228
1278472
1278722
1278966
1279208
1279456
1279698
1279936
1280182
1280422
1280664
1280906
1281140
1281380
1281622
1281858
1282094
1282326
1282556
1282794
1283024
1283244
1283462
1283680
1283901
1284094
1284284
1284470
1284652
1284832
1285008
1285180
1285348
1285510
1285672
1285830
1285990
1286148
1286304
1286456
1286610
1286762
1286912
1287064
1287216
1287368
1287522
1287674
1287828
1287980
1288136
1288294
1288454
1288622
1288788
1288952
1289118
1289284
1289448
1289610
1289774
1289940
1290106
1290274
1290442
1290610
1290776
1290940
1291104
1291266
1291428
1291588
1291746
1291902
1292060
1292224
1292396
1292582
1292762
1292942
1293126
1293314
1293508
1293704
1293908
1294118
1294328
1294538
1294752
1294964
1295178
1295388
1295600
1295814
1296030
1296242
1296452
1296660
1296870
1297080
1297294
1297512
1297730
1297944
1298160
1298382
1298604
1298830
1299058
1299280
1299504
1299732
1299958
1300180
1300410
1300642
1300878
1301108
1301344
1301570
1301798
1302030
1302266
1302502
1302728
1302954
1303174
1303398
1303626
1303854
1304082
1304306
1304536
1304766
1304996
1305218
1305436
1305650
1305864
1306082
1306308
1306530
1306756
1306984
1307210
1307440
1307674
1307796
1308126
1308360
1308586
1308810
1309040
1309270
1309500
1309734
1309962
1310192
1310428
1310656
1310880
1311102
1311318
1311528
1311736
1311946
1312158
1312374
1312590
1312806
1313022
1313242
1313460
1313682
1313908
1314136
1314366
1314594
1314822
1315048
1315270
1315498
1315728
1315960
1316194
1316418
1316646
1316872
1317098
1317326
1317548
1317768
1317986
1318202
1318412
1318620
1318824
1319026
1319222
1319410
1319594
1319774
1319948
1320118
1320288
1320456
1320626
1320802
1320994
1321194
1321390
1321586
1321778
1321974
1322176
1322378
1322588
1322804
1323026
1323252
1323476
1323702
1323928
1324162
1324406
1324646
1324884
1325114
1325346
1325582
1325820
1326050
1326274
1326498
1326720
1326936
1327150
1327366
1327576
1327784
1327988
1328186
1328378
1328568
1328762
1328962
1329174
1329390
1329600
1329806
1330008
1330210
1330406
1330598
1330790
1330980
1331166
1331352
1331542
1331742
1331948
1332158
1332370
1332580
1332794
1333016
1333236
1333456
1333676
1333898
1334118
1334338
1334558
1334772
1334988
1335202
1335406
1335614
1335822
1336026
1336230
1336428
1336624
1336824
1337022
1337220
1337422
1337626
1337838
1338052
1338268
1338488
1338708
1338930
1339158
1339388
1339614
1339832
1340050
1340272
1340498
1340726
1340948
1341168
1341386
1341600
1341818
1342036
1342250
1342462
1342672
1342878
1343082
1343286
1343486
1343686
1343882
1344076
1344272
1344472
1344680
1344886
1345096
1345308
1345526
1345754
1345986
1346222
1346454
1346690
1346920
1347146
1347370
1347592
1347816
1348044
1348266
1348484
1348708
1348934
1349156
1349382
1349602
1349826
1350052
1350276
1350508
1350738
1350968
1351208
1351452
1351692
1351934
1352170
1352410
1352658
1352900
1353146
1353386
1353630
1353880
1354126
1354372
1354616
1354856
1355100
1355338
1355578
1355810
1356038
1356268
1356506
1356746
1356986
1357230
1357466
1357710
1357958
1358206
1358450
1358698
1358944
1359190
1359438
1359686
1359934
1360174
1360424
1360672
1360916
1361166
1361410
1361660
1361908
1362154
1362398
1362646
1362888
1363124
1363362
1363598
1363838
1364076
1364312
1364554
1364792
1365034
1365284
1365534
1365786
1366038
1366284
1366538
1366786
1367028
1367274
1367524
1367772
1368018
1368262
1368512
1368754
1369000
1369248
1369500
1369748
1369994
1370228
1370460
1370692
1370920
1371144
1371366
1371590
1371814
1372040
1372262
1372486
1372714
1372938
1373156
1373370
1373586
1373798
1374006
1374216
1374424
1374628
1374830
1375028
1375228
1375424
1375616
1375810
1376004
1376204
1376410
1376616
1376826
1377038
1377252
1377468
1377684
1377900
1378118
1378338
1378564
1378798
1379024
1379248
1379476
1379704
1379934
1380160
1380388
1380622
1380854
1381088
1381322
1381556
1381792
1382020
1382250
1382482
1382712
1382938
1383164
1383390
1383614
1383844
1384076
1384304
1384530
1384762
1384986
1385212
1385436
1385654
1385874
1386092
1386310
1386532
1386756
1386982
1387208
1387436
1387662
1387890
1388124
1388358
1388590
1388824
1389054
1389284
1389516
1389750
1389980
1390210
1390436
1390666
1390896
1391124
1391360
1391596
1391830
1392066
1392298
1392536
1392776
1393016
1393256
1393498
1393734
1393974
1394214
1394458
1394694
1394934
1395168
1395400
1395634
1395864
1396094
1396320
1396542
1396770
1397004
1397238
1397478
1397718
1397960
1398208
1398458
1398706
1398954
1399194
1399440
1399688
1399934
1400178
1400420
1400658
1400896
1401138
1401378
1401614
1401850
1402084
1402322
1402552
1402780
1403002
1403224
1403446
1403672
1403892
1404118
1404346
1404572
1404804
1405038
1405274
1405512
1405752
1405986
1406218
1406450
1406678
1406906
1407124
1407344
1407566
1407786
1408008
1408232
1408454
1408674
1408886
1409100
1409310
1409516
1409722
1409926
1410130
1410334
1410536
1410738
1410938
1411142
1411352
1411566
1411784
1412004
1412228
1412450
1412680
1412910
1413140
1413372
1413602
1413828
1414062
1414302
1414546
1414788
1415028
1415262
1415490
1415722
1415956
1416186
1416408
1416626
1416844
1417060
1417274
1417486
1417692
1417892
1418092
1418286
1418474
1418656
1418840
1419026
1419218
1419414
1419612
1419812
1420016
1420226
1420440
1420660
1420886
1421112
1421330
1421548
1421762
1421974
1422186
1422396
1422604
1422810
1423016
1423224
1423426
1423624
1423820
1424012
1424204
1424396
1424590
1424784
1424978
1425172
1425362
1425556
1425746
1425936
1426128
1426324
1426518
1426712
1426910
1427110
1427314
1427518
1427728
1427940
1428154
1428362
1428572
1428782
1428992
1429208
1429426
1429644
1429864
1430080
1430300
1430516
1430734
1430944
1431158
1431374
1431590
1431806
1432022
1432236
1432446
1432658
1432872
1433084
1433294
1433504
1433710
1433920
1434126
1434334
1434542
1434748
1434952
1435156
1435362
1435568
1435772
1435978
1436184
1436392
1436600
1436814
1437024
1437238
1437456
1437674
1437894
1438114
1438334
1438552
1438770
1438990
1439206
1439428
1439646
1439866
1440088
1440304
1440524
1440746
1440966
1441188
1441408
1441626
1441846
1442062
1442280
1442500
1442726
1442952
1443178
1443406
1443628
1443850
1444074
1444296
1444516
1444738
1444962
1445190
1445418
1445646
1445878
1446118
1446354
1446588
1446820
1447052
1447280
1447514
1447750
1447986
1448214
1448432
1448644
1448850
1449052
1449252
1449452
1449652
1449848
1450050
1450258
1450462
1450672
1450886
1451104
1451324
1451548
1451772
1452008
1452248
1452492
1452734
1452976
1453212
1453458
1453704
1453948
1454192
1454430
1454666
1454908
1455152
1455392
1455630
1455864
1456094
1456326
1456560
1456788
1457012
1457234
1457452
1457670
1457888
1458112
1458336
1458562
1458784
1459010
1459232
1459456
1459688
1459922
1460152
1460382
1460606
1460836
1461062
1461294
1461520
1461748
1461982
1462218
1462450
1462688
1462924
1463152
1463386
1463618
1463844
1464068
1464288
1464510
1464734
1464962
1465186
1465412
1465638
1465862
1466094
1466332
1466572
1466812
1467048
1467284
1467518
1467748
1467984
1468222
1468462
1468690
1468914
1469132
1469344
1469560
1469780
1470004
1470228
1470452
1470674
1470900
1471128
1471360
1471588
1471822
1472058
1472294
1472532
1472778
1473024
1473266
1473514
1473762
1474012
1474262
1474508
1474758
1475006
1475256
1475502
1475746
1475986
1476228
1476466
1476698
1476932
1477168
1477398
1477630
1477860
1478092
1478326
1478554
1478788
1479018
1479248
1479486
1479728
1479970
1480206
1480438
1480676
1480918
1481156
1481398
1481636
1481870
1482110
1482350
1482586
1482818
1483052
1483280
1483506
1483732
1483954
1484178
1484400
1484628
1484858
1485082
1485316
1485556
1485796
1486038
1486288
1486536
1486786
1487036
1487288
1487540
1487790
1488034
1488278
1488516
1488760
1489010
1489252
1489496
1489746
1489986
1490232
1490478
1490718
1490962
1491202
1491442
1491688
1491938
1492182
1492428
1492668
1492912
1493160
1493404
1493648
1493886
1494128
1494374
1494628
1494874
1495122
1495370
1495620
1495876
1496134
1496386
1496634
1496876
1497120
1497358
1497590
1497824
1498060
1498300
1498546
1498788
1499024
1499264
1499504
1499740
1499982
1500230
1500484
1500734
1500984
1501234
1501488
1501744
1502002
1502254
1502504
1502762
1503018
1503272
1503530
1503782
1504038
1504298
1504552
1504808
1505060
1505310
1505564
1505820
1506072
1506318
1506564
1506818
1507076
1507332
1507582
1507836
1508086
1508340
1508596
1508854
1509108
1509364
1509616
1509872
1510126
1510380
1510640
1510902
1511158
1511416
1511672
1511936
1512198
1512456
1512712
1512962
1513220
1513480
1513736
1513984
1514234
1514482
1514728
1514972
1515224
1515478
1515730
1515982
1516236
1516494
1516752
1517008
1517268
1517524
1517770
1518020
1518258
1518488
1518716
1518946
1519178
1519410
1519648
1519890
1520132
1520372
1520616
1520858
1521108
1521358
1521610
1521860
1522104
1522352
1522596
1522844
1523100
1523352
1523604
1523854
1524104
1524360
1524612
1524864
1525120
1525370
1525628
1525888
1526144
1526400
1526658
1526910
1527164
1527416
1527666
1527916
1528162
1528412
1528666
1528912
1529162
1529410
1529658
1529912
1530162
1530414
1530660
1530912
1531160
1531412
1531662
1531918
1532174
1532426
1532682
1532932
1533182
1533434
1533682
1533924
1534158
1534386
1534608
1534832
1535054
1535274
1535502
1535734
1535966
1536202
1536438
1536680
1536924
1537168
1537418
1537664
1537914
1538174
1538436
1538696
1538962
1539218
1539480
1539746
1540006
1540266
1540518
1540774
1541034
1541286
1541542
1541790
1542040
1542292
1542538
1542788
1543034
1543282
1543528
1543778
1544032
1544286
1544538
1544790
1545042
1545290
1545538
1545792
1546040
1546288
1546532
1546768
1547010
1547256
1547498
1547744
1547984
1548222
1548460
1548700
1548934
1549158
1549382
1549602
1549822
1550036
1550246
1550450
1550646
1550834
1551016
1551194
1551368
1551536
1551702
1551864
1552026
1552186
1552342
1552496
1552652
1552808
1552966
1553128
1553294
1553464
1553640
1553834
1554034
1554238
1554454
1554678
1554904
1555140
1555378
1555620
1555866
1556116
1556370
1556630
1556886
1557146
1557396
1557652
1557898
1558134
1558366
1558594
1558824
1559054
1559292
1559524
1559762
1560010
1560258
1560508
1560758
1561012
1561264
1561516
1561772
1562018
1562272
1562524
1562784
1563042
1563302
1563558
1563818
1564072
1564324
1564582
1564840
1565096
1565352
1565604
1565858
1566116
1566370
1566622
1566870
1567122
1567378
1567632
1567880
1568128
1568378
1568622
1568872
1569116
1569348
1569578
1569804
1570022
1570240
1570454
1570666
1570876
1571088
1571296
1571502
1571702
1571904
1572102
1572300
1572494
1572690
1572882
1573074
1573264
1573454
1573644
1573830
1574016
1574202
1574390
1574580
1574768
1574956
1575144
1575334
1575520
1575710
1575902
1576090
1576276
1576458
1576642
1576828
1577022
1577210
1577396
1577580
1577764
1577948
1578132
1578316
1578498
1578684
1578866
1579052
1579236
1579418
1579602
1579788
1579970
1580159
1580340
1580460
1580702
1580874
1581040
1581204
1581366
1581526
1581686
1581844
1582002
1582162
1582322
1582478
1582634
1582794
1582956
1583122
1583292
1583466
1583642
1583820
1583998
1584178
1584352
1584534
1584718
1584900
1585084
1585268
1585454
1585640
1585820
1586006
1586188
1586366
1586548
1586726
1586904
1587084
1587268
1587446
1587622
1587796
1587964
1588130
1588290
1588450
1588606
1588758
1588912
1589062
1589212
1589360
1589506
1589654
1589804
1589954
1590114
1590274
1590440
1590614
1590798
1590986
1591168
1591354
1591538
1591724
1591912
1592102
1592286
1592472
1592652
1592834
1593018
1593202
1593388
1593572
1593760
1593952
1594142
1594336
1594534
1594734
1594934
1595134
1595336
1595540
1595740
1595942
1596144
1596340
1596540
1596742
1596946
1597148
1597354
1597556
1597760
1597968
1598178
1598380
1598586
1598790
1598990
1599190
1599388
1599588
1599788
1599978
1600172
1600358
1600548
1600728
1600908
1601086
1601264
1601438
1601614
1601792
1601968
1602144
1602322
1602500
1602682
1602862
1603046
1603226
1603406
1603592
1603776
1603962
1604144
1604330
1604520
1604704
1604892
1605080
1605268
1605460
1605648
1605836
1606026
1606210
1606398
1606586
1606774
1606958
1607144
1607330
1607512
1607698
1607886
1608070
1608254
1608440
1608628
1608814
1609004
1609194
1609378
1609566
1609750
1609934
1610118
1610300
1610486
1610668
1610850
1611036
1611220
1611402
1611594
1611790
1611984
1612180
1612378
1612574
1612776
1612980
1613176
1613378
1613582
1613788
1613988
1614194
1614390
1614590
1614786
1614980
1615178
1615372
1615566
1615762
1615960
1616156
1616346
1616542
1616730
1616920
1617108
1617292
1617474
1617656
1617834
1618012
1618188
1618364
1618540
1618716
1618894
1619072
1619254
1619434
1619616
1619792
1619972
1620154
1620328
1620500
1620672
1620846
1621018
1621192
1621370
1621548
1621722
1621896
1622068
1622238
1622408
1622578
1622748
1622914
1623078
1623242
1623410
1623578
1623742
1623910
1624084
1624254
1624430
1624600
1624770
1624946
1625128
1625322
1625534
1625730
1625930
1626132
1626334
1626540
1626746
1626950
1627156
1627356
1627554
1627752
1627942
1628130
1628320
1628510
1628702
1628896
1629084
1629270
1629460
1629648
1629838
1630024
1630208
1630394
1630574
1630744
1630912
1631078
1631246
1631420
1631594
1631770
1631952
1632138
1632320
1632504
1632678
1632848
1633016
1633186
1633352
1633514
1633676
1633840
1634000
1634162
1634318
1634476
1634638
1634802
1634970
1635150
1635350
1635542
1635740
1635944
1636144
1636346
1636550
1636756
1636958
1637164
1637364
1637568
1637766
1637960
1638152
1638346
1638534
1638722
1638912
1639098
1639282
1639462
1639644
1639832
1640016
1640204
1640392
1640578
1640770
1640956
1641148
1641338
1641530
1641724
1641916
1642114
1642312
1642510
1642710
1642910
1643112
1643308
1643506
1643706
1643900
1644096
1644290
1644484
1644672
1644864
1645048
1645232
1645420
1645604
1645790
1645980
1646174
1646368
1646570
1646772
1646976
1647184
1647386
1647590
1647770
1647992
1648194
1648390
1648590
1648792
1648988
1649186
1649384
1649580
1649774
1649970
1650160
1650350
1650540
1650728
1650914
1651102
1651286
1651470
1651656
1651840
1652024
1652208
1652390
1652576
1652754
1652938
1653120
1653300
1653488
1653674
1653868
1654062
1654256
1654454
1654652
1654846
1655044
1655236
1655426
1655620
1655806
1655996
1656186
1656370
1656558
1656746
1656934
1657128
1657318
1657508
1657702
1657902
1658100
1658306
1658510
1658718
1658930
1659136
1659348
1659560
1659770
1659980
1660182
1660388
1660596
1660806
1661012
1661218
1661426
1661626
1661828
1662032
1662234
1662434
1662638
1662836
1663040
1663244
1663448
1663654
1663860
1664062
1664266
1664468
1664670
1664872
1665072
1665276
1665472
1665668
1665864
1666058
1666258
1666460
1666666
1666876
1667086
1667298
1667512
1667720
1667928
1668136
1668340
1668546
1668748
1668948
1669148
1669344
1669542
1669732
1669918
1670104
1670286
1670468
1670652
1670834
1671016
1671204
1671396
1671588
1671778
1671974
1672166
1672364
1672560
1672760
1672958
1673160
1673362
1673562
1673762
1673960
1674158
1674356
1674554
1674744
1674938
1675130
1675316
1675504
1675690
1675878
1676068
1676256
1676442
1676628
1676816
1677002
1677188
1677374
1677560
1677748
1677930
1678110
1678296
1678478
1678656
1678838
1679024
1679216
1679410
1679604
1679798
1679992
1680190
1680394
1680596
1680808
1681012
1681220
1681428
1681636
1681840
1682044
1682248
1682448
1682652
1682856
1683062
1683264
1683470
1683674
1683878
1684090
1684294
1684504
1684706
1684910
1685116
1685324
1685526
1685732
1685938
1686136
1686344
1686538
1686744
1686940
1687140
1687344
1687548
1687754
1687960
1688166
1688376
1688588
1688794
1689006
1689212
1689422
1689626
1689830
1690030
1690234
1690430
1690630
1690830
1691032
1691228
1691422
1691622
1691816
1692008
1692204
1692400
1692590
1692782
1692974
1693166
1693358
1693552
1693746
1693938
1694132
1694330
1694524
1694720
1694912
1695106
1695300
1695488
1695682
1695874
1696064
1696254
1696444
1696630
1696820
1697008
1697200
1697384
1697576
1697764
1697954
1698144
1698336
1698530
1698726
1698924
1699118
1699312
1699504
1699694
1699878
1700066
1700258
1700452
1700636
1700828
1701014
1701204
1701390
1701582
1701774
1701968
1702164
1702358
1702552
1702750
1702950
1703148
1703348
1703542
1703742
1703936
1704130
1704324
1704516
1704706
1704892
1705072
1705250
1705428
1705602
1705776
1705952
1706130
1706306
1706482
1706660
1706838
1707012
1707188
1707364
1707534
1707700
1707866
1708030
1708192
1708358
1708536
1708742
1708930
1709130
1709334
1709538
1709742
1709952
1710164
1710380
1710594
1710810
1711024
1711234
1711450
1711664
1711878
1712088
1712294
1712502
1712704
1712906
1713106
1713306
1713504
1713700
1713890
1714082
1714274
1714460
1714654
1714848
1715050
1715252
1715460
1715664
1715876
1716092
1716302
1716518
1716726
1716942
1717144
1717352
1717552
1717752
1717960
1718166
1718376
1718584
1718800
1719006
1719208
1719412
1719612
1719808
1720006
1720200
1720394
1720594
1720796
1721002
1721210
1721416
1721624
1721830
1722044
1722258
1722472
1722692
1722910
1723130
1723354
1723584
1723804
1724030
1724248
1724468
1724688
1724904
1725122
1725342
1725558
1725774
1725990
1726208
1726428
1726648
1726864
1727088
1727308
1727530
1727754
1727980
1728206
1728426
1728652
1728874
1729088
1729302
1729520
1729738
1729954
1730168
1730386
1730602
1730818
1731038
1731262
1731486
1731710
1731930
1732146
1732362
1732574
1732790
1733004
1733220
1733440
1733654
1733872
1734090
1734310
1734524
1734732
1734938
1735146
1735356
1735562
1735772
1735990
1736212
1736426
1736646
1736866
1737086
1737310
1737530
1737750
1737974
1738192
1738414
1738636
1738856
1739074
1739288
1739508
1739730
1739952
1740168
1740388
1740602
1740824
1741042
1741256
1741472
1741688
1741906
1742124
1742336
1742556
1742766
1742980
1743200
1743426
1743654
1743874
1744106
1744330
1744554
1744784
1745016
1745248
1745474
1745692
1745814
1746124
1746336
1746552
1746772
1746990
1747206
1747426
1747638
1747850
1748070
1748294
1748520
1748738
1748964
1749180
1749402
1749626
1749854
1750072
1750294
1750512
1750728
1750946
1751156
1751372
1751590
1751814
1752038
1752264
1752494
1752718
1752948
1753166
1753388
1753608
1753826
1754038
1754250
1754456
1754662
1754868
1755068
1755266
1755462
1755658
1755852
1756048
1756238
1756430
1756624
1756820
1757018
1757222
1757418
1757616
1757816
1758012
1758204
1758398
1758592
1758790
1758988
1759196
1759402
1759602
1759806
1759998
1760192
1760384
1760570
1760748
1760926
1761098
1761270
1761442
1761614
1761782
1761954
1762128
1762300
1762474
1762650
1762830
1763008
1763196
1763378
1763562
1763746
1763924
1764110
1764292
1764470
1764662
1764854
1765034
1765214
1765392
1765572
1765750
1765926
1766104
1766276
1766444
1766612
1766782
1766952
1767132
1767318
1767518
1767716
1767916
1768112
1768312
1768506
1768704
1768906
1769106
1769306
1769510
1769710
1769910
1770114
1770310
1770510
1770714
1770918
1771124
1771328
1771532
1771738
1771942
1772140
1772348
1772560
1772780
1772998
1773216
1773424
1773640
1773850
1774058
1774272
1774482
1774690
1774906
1775126
1775346
1775562
1775788
1776008
1776226
1776450
1776668
1776890
1777116
1777332
1777556
1777778
1777996
1778222
1778438
1778658
1778884
1779102
1779324
1779550
1779774
1779986
1780202
1780420
1780634
1780852
1781076
1781302
1781520
1781744
1781958
1782174
1782398
1782624
1782852
1783078
1783304
1783530
1783764
1783992
1784230
1784472
1784718
1784956
1785194
1785438
1785670
1785908
1786152
1786398
1786642
1786874
1787110
1787342
1787570
1787806
1788046
1788288
1788528
1788760
1788998
1789234
1789468
1789704
1789944
1790180
1790412
1790646
1790872
1791100
1791326
1791544
1791766
1791992
1792214
1792440
1792674
1792904
1793136
1793368
1793604
1793832
1794064
1794294
1794524
1794758
1794986
1795216
1795450
1795682
1795904
1796128
1796354
1796574
1796798
1797024
1797250
1797474
1797700
1797926
1798150
1798378
1798604
1798834
1799062
1799298
1799538
1799776
