peaks
98
260
422
582
744
916
1076
1238
1406
1568
1734
1898
2070
2242
2398
2562
2722
2878
3030
3180
3336
3494
3652
3812
3976
4146
4308
4470
4642
4812
4978
5138
5302
5466
5626
5786
5948
6108
6272
6438
6604
6766
6934
7104
7266
7432
7594
7762
7924
8084
8244
8404
8560
8718
8874
9040
9192
9352
9514
9676
9836
9996
10158
10314
10476
10636
10802
10962
11118
11276
11436
11600
11754
11910
12066
12226
12374
12526
12676
12786
12982
13134
13282
13428
13574
13722
13868
14014
14162
14314
14468
14620
14774
14938
15096
15254
15418
15592
15752
15868
16080
16234
16382
16532
16682
16832
16980
17130
17284
17444
17594
17750
17908
18064
18214
18368
18522
18678
18828
18980
19132
19282
19428
19572
19718
19866
20012
20160
20306
20454
20604
20746
20892
21036
21182
21330
21472
21614
21760
21904
22048
22190
22336
22478
22620
22766
22912
23054
23198
23344
23494
23642
23788
23936
24090
24240
24386
24532
24640
24832
24974
25116
25258
25406
25550
25694
25842
26000
26158
26310
26466
26626
26792
26952
27110
27266
27420
27574
27724
27872
28024
28178
28328
28484
28626
28772
28922
29066
29212
29362
29514
29668
29818
29976
30126
30276
30420
30566
30710
30854
30998
31138
31282
31428
31570
31710
31854
32000
32140
32280
32420
32558
32694
32828
32964
33100
33236
33374
33518
33628
33808
33952
34098
34242
34382
34524
34672
34820
34970
35122
35280
35436
35592
35748
35906
36060
36218
36382
36534
36692
36846
36998
37150
37300
37450
37598
37750
37910
38070
38224
38382
38546
38702
38860
39022
39196
39368
39534
39712
39894
40072
40240
40406
40576
40740
40898
41068
41226
41382
41536
41644
41852
42004
42150
42296
42448
42566
42756
42906
43062
43218
43366
43512
43662
43808
43956
44104
44250
44402
44558
44712
44862
45016
45174
45326
45478
45630
45786
45900
46088
46236
46382
46524
46670
46818
46972
47136
47302
47470
47628
47788
47948
48104
48258
48410
48564
48718
48872
49028
49184
49340
49502
49658
49810
49960
50112
50266
50428
50584
50748
50908
51068
51234
51388
51556
51712
51870
52024
52123
52341
52494
52640
52788
52938
53086
53238
53392
53552
53704
53864
54022
54180
54344
54506
54664
54824
54984
55142
55292
55440
55588
55734
55880
56022
56132
56306
56448
56588
56728
56866
57008
57154
57304
57412
57608
57758
57908
58056
58204
58354
58506
58654
58806
58958
59106
59258
59414
59566
59718
59872
60026
60176
60332
60492
60642
60800
60960
61114
61268
61428
61578
61732
61884
62034
62184
62332
62480
62626
62774
62922
63074
63222
63370
63524
63670
63814
63958
64102
64242
64384
64528
64676
64828
64938
65138
65290
65444
65588
65740
65888
66046
66202
66370
66544
66712
66878
67046
67214
67374
67532
67690
67844
67996
68150
68254
68456
68604
68750
68894
69046
69190
69342
69492
69648
69796
69952
70102
70250
70400
70552
70704
70848
70994
71142
71286
71428
71572
71714
71852
71988
72128
72264
72402
72540
72678
72782
72958
73098
73236
73372
73502
73634
73766
73900
74034
74144
74328
74468
74616
74770
74924
75082
75246
75416
75578
75742
75914
76072
76222
76370
76514
76662
76808
76950
77092
77236
77378
77524
77670
77818
77970
78128
78286
78442
78594
78750
78902
79054
79204
79310
79500
79646
79788
79930
80068
80210
80354
80500
80610
80792
80938
81082
81222
81362
81504
81644
81784
81926
82066
82204
82346
82488
82630
82770
82914
83058
83196
83340
83484
83628
83772
83916
84062
84206
84348
84490
84634
84782
84928
85074
85224
85378
85526
85680
85830
85980
86130
86284
86444
86600
86756
86916
87076
87232
87388
87546
87702
87860
88010
88166
88322
88478
88628
88780
88932
89082
89234
89386
89540
89690
89844
89998
90152
90304
90462
90622
90778
90934
91090
91246
91398
91554
91710
91866
92020
92178
92340
92498
92654
92812
92970
93122
93230
93438
93590
93740
93890
93994
94196
94340
94486
94634
94782
94932
95092
95260
95416
95576
95738
95900
96062
96224
96384
96534
96686
96836
96984
97094
97286
97432
97580
97728
97884
98032
98184
98336
98492
98652
98806
98966
99128
99288
99450
99612
99770
99928
100086
100244
100400
100552
100712
100872
101026
101188
101346
101500
101650
101802
101956
102112
102268
102384
102586
102740
102894
103048
103194
103346
103458
103660
103810
103960
104116
104266
104376
104576
104726
104874
105022
105174
105322
105474
105638
105804
105960
106124
106282
106434
106592
106750
106908
107068
107236
107408
107568
107736
107898
108062
108222
108388
108558
108728
108908
109092
109270
109442
109624
109810
109990
110174
110350
110524
110696
110872
111054
111232
111416
111590
111772
111950
112118
112290
112462
112620
112776
112932
113088
113244
113402
113558
113714
113874
114034
114192
114352
114514
114676
114830
114990
115148
115318
115476
115642
115800
115962
116132
116316
116484
116656
116832
117010
117188
117360
117538
117716
117894
118058
118222
118388
118562
118724
118832
119044
119194
119342
119486
119630
119780
119942
120112
120284
120448
120632
120816
120986
121164
121332
121494
121654
121814
121972
122128
122286
122446
122604
122770
122938
123104
123278
123454
123624
123776
123932
124092
124250
124412
124566
124674
124878
125030
125176
125328
125488
125644
125802
125964
126134
126302
126462
126624
126786
126954
127112
127276
127446
127624
127788
127956
128130
128314
128484
128658
128836
129014
129190
129360
129530
129702
129878
130050
130222
130398
130562
130726
130890
131056
131218
131392
131558
131728
131890
132054
132218
132378
132542
132706
132868
133040
133222
133386
133564
133740
133908
134078
134242
134420
134590
134758
134934
135106
135270
135444
135614
135784
135946
136118
136284
136448
136604
136768
136928
137088
137238
137392
137548
137712
137874
138032
138202
138392
138582
138778
138972
139164
139350
139528
139694
139862
140022
140184
140352
140516
140678
140846
141016
141188
141360
141528
141700
141872
142038
142204
142370
142528
142688
142856
143020
143172
143330
143484
143638
143788
143942
144104
144262
144416
144576
144746
144914
145076
145236
145402
145562
145714
145866
146024
146170
146318
146468
146620
146774
146938
147102
147266
147438
147620
147790
147966
148150
148328
148498
148678
148844
149014
149184
149356
149528
149700
149866
150030
150196
150356
150520
150684
150844
151008
151166
151326
151484
151646
151808
151972
152142
152304
152464
152622
152780
152938
153098
153256
153368
153572
153722
153862
154006
154152
154300
154448
154600
154752
154906
155056
155206
155356
155508
155662
155772
155974
156126
156276
156424
156572
156722
156872
157022
157170
157316
157466
157612
157758
157900
158042
158184
158326
158472
158624
158780
158942
159106
159270
159444
159616
159784
159956
160122
160288
160454
160616
160778
160934
161100
161258
161416
161570
161724
161872
162016
162160
162300
162442
162582
162724
162868
163018
163124
163322
163470
163614
163756
163860
164062
164200
164346
164498
164652
164802
164956
165108
165262
165412
165564
165724
165868
166018
166164
166308
166452
166594
166736
166878
167024
167180
167332
167484
167638
167804
167968
168138
168308
168472
168638
168802
168964
169124
169284
169444
169604
169764
169922
170082
170248
170408
170564
170718
170868
171020
171162
171312
171460
171610
171760
171914
172082
172250
172400
172497
172712
172862
173006
173148
173256
173438
173578
173720
173866
174010
174154
174304
174456
174604
174710
174918
175070
175216
175360
175506
175654
175758
175942
176076
176226
176362
176500
176638
176776
176924
177062
177202
177344
177490
177632
177774
177916
178058
178198
178340
178490
178628
178770
178912
179052
179190
179330
179470
179610
179748
179890
180030
180170
180308
180448
180588
180732
180880
181028
181176
181328
181476
181626
181780
181928
182074
182182
182374
182518
182662
182808
182956
183062
183252
183398
183544
183688
183834
183938
184130
184276
184422
184568
184712
184856
184996
185104
185286
185426
185570
185712
185816
186000
186142
186282
186422
186564
186666
186844
186984
187120
187260
187398
187504
187674
187810
187948
188084
188218
188324
188492
188628
188762
188900
189002
189178
189314
189450
189590
189730
189870
190012
190156
190302
190404
190600
190744
190886
191026
191166
191304
191442
191554
191722
191860
192000
192142
192286
192432
192580
192738
192894
193060
193220
193382
193548
193712
193872
194034
194194
194350
194502
194652
194800
194948
195098
195248
195394
195546
195702
195856
196012
196166
196326
196478
196626
196778
196932
197086
197240
197398
197556
197714
197868
198018
198170
198324
198478
198630
198782
198936
199096
199248
199402
199552
199645
199862
200010
200154
200300
200444
200594
200744
200896
200996
201222
201374
201530
201686
201840
201994
202148
202300
202452
202608
202706
202924
203074
203222
203368
203467
203660
203806
203948
204090
204232
204374
204516
204628
204798
204938
205078
205220
205362
205502
205644
205748
205934
206078
206222
206366
206514
206664
206816
206968
207120
207274
207426
207576
207730
207888
208042
208202
208356
208508
208660
208812
208964
209110
209256
209360
209550
209694
209836
209978
210116
210258
210406
210558
210708
210860
211014
211172
211322
211472
211620
211766
211908
212048
212188
212328
212466
212604
212744
212886
213030
213176
213324
213470
213616
213762
213908
214050
214194
214334
214476
214584
214756
214896
215032
215168
215302
215436
215572
215684
215854
215992
216132
216274
216418
216560
216702
216846
216992
217140
217286
217436
217584
217732
217878
218026
218174
218324
218476
218620
218766
218910
219054
219198
219340
219482
219628
219774
219922
220072
220218
220364
220510
220658
220758
220958
221104
221246
221386
221530
221674
221826
221980
222132
222290
222450
222612
222774
222930
223084
223236
223386
223540
223690
223840
223996
224152
224310
224474
224638
224806
224976
225138
225300
225460
225622
225778
225936
226100
226260
226420
226578
226736
226892
227042
227192
227340
227502
227666
227838
228010
228180
228350
228514
228670
228826
228990
229152
229316
229486
229648
229814
229980
230142
230304
230470
230636
230798
230960
231120
231284
231448
231614
231778
231936
232084
232234
232380
232524
232670
232824
232978
233136
233286
233436
233586
233736
233888
234040
234204
234362
234534
234708
234890
235066
235240
235400
235558
235710
235862
236014
236168
236320
236474
236628
236782
236936
237094
237260
237424
237588
237752
237916
238078
238236
238386
238538
238686
238838
238988
239140
239296
239460
239622
239790
239960
240134
240306
240476
240646
240812
240972
241132
241288
241444
241596
241752
241906
242056
242212
242366
242520
242674
242826
242980
243130
243278
243428
243580
243738
243888
244040
244192
244346
244502
244654
244810
244962
245110
245258
245406
245554
245702
245850
245998
246146
246290
246434
246576
246716
246856
246994
247130
247264
247398
247534
247672
247816
247964
248114
248264
248368
248556
248698
248838
248978
249118
249256
249394
249536
249678
249824
249970
250118
250260
250404
250550
250698
250846
250996
251144
251288
251428
251570
251714
251856
252006
252158
252324
252486
252650
252812
252972
253130
253280
253428
253574
253722
253872
254022
254178
254334
254484
254636
254786
254940
255094
255252
255408
255564
255720
255874
256028
256180
256330
256478
256626
256728
256920
257062
257206
257352
257510
257676
257846
258032
258220
258410
258604
258798
258992
259180
259362
259530
259694
259856
260022
260190
260358
260534
260712
260898
261082
261264
261440
261614
261786
261948
262110
262276
262448
262630
262804
262986
263180
263368
263568
263748
263928
264108
264288
264462
264630
264796
264954
265104
265250
265396
265542
265700
265874
266062
266252
266460
266678
266888
267104
267310
267496
267674
267844
268004
268162
268318
268468
268610
268754
268896
269042
269190
269346
269508
269668
269824
269986
270156
270340
270538
270740
270934
271136
271336
271530
271722
271916
272110
272302
272496
272692
272882
273074
273272
273468
273662
273846
274028
274208
274384
274550
274712
274880
275048
275214
275386
275556
275730
275904
276082
276260
276432
276592
276752
276912
277076
277248
277434
277628
277830
278034
278234
278438
278636
278834
279026
279212
279390
279560
279722
279882
280042
280208
280396
280580
280764
280956
281154
281354
281542
281728
281916
282104
282290
282464
282642
282822
283012
283186
283370
283554
283740
283928
284114
284294
284468
284640
284802
284962
285116
285266
285414
285564
285716
285868
285974
286198
286360
286544
286714
286894
287082
287278
287480
287670
287866
288060
288250
288430
288608
288788
288972
289158
289332
289506
289676
289844
290016
290192
290370
290544
290718
290892
291060
291228
291390
291548
291704
291856
292002
292146
292290
292438
292588
292740
292900
293070
293256
293446
293656
293872
294084
294292
294488
294670
294840
295002
295158
295312
295468
295630
295788
295958
296134
296318
296512
296714
296918
297106
297290
297468
297646
297824
298008
298186
298364
298552
298744
298936
299120
299310
299504
299690
299878
300060
300232
300406
300584
300760
300944
301122
301304
301480
301646
301814
301982
302150
302324
302488
302652
302810
302974
303148
303336
303526
303724
303920
304114
304290
304466
304638
304804
304974
305136
305300
305462
305630
305810
306004
306198
306378
306560
306746
306934
307116
307312
307504
307696
307882
308052
308224
308390
308554
308716
308882
309044
309204
309358
309512
309666
309822
309986
310160
310348
310534
310722
310896
311066
311236
311406
311580
311754
311930
312104
312278
312454
312622
312790
312956
313122
313286
313446
313606
313768
313942
314116
314294
314466
314644
314822
314994
315166
315334
315490
315650
315814
315972
316130
316292
316450
316606
316756
316910
317066
317232
317410
317592
317774
317966
318160
318354
318542
318726
318908
319084
319250
319420
319588
319760
319942
320126
320320
320512
320694
320876
321048
321208
321364
321516
321670
321834
321998
322158
322324
322498
322684
322866
323060
323258
323460
323654
323842
324024
324200
324360
324522
324682
324840
325002
325158
325320
325482
325656
325832
326010
326180
326356
326538
326714
326886
327066
327244
327422
327594
327776
327962
328146
328342
328540
328738
328944
329138
329326
329520
329722
329922
330120
330318
330518
330714
330918
331120
331322
331520
331718
331916
332100
332286
332474
332654
332832
333014
333200
333384
333572
333758
333930
334106
334284
334454
334626
334792
334956
335128
335308
335490
335676
335868
336060
336252
336446
336642
336838
337032
337226
337416
337604
337782
337958
338130
338300
338472
338648
338820
339000
339184
339368
339554
339736
339918
340094
340268
340438
340612
340786
340962
341146
341324
341504
341692
341886
342070
342262
342458
342648
342838
343022
343208
343392
343568
343742
343918
344088
344256
344428
344596
344762
344928
345096
345260
345424
345586
345746
345908
346070
346232
346390
346554
346716
346872
347030
347186
347336
347488
347638
347788
347934
348084
348232
348384
348536
348688
348838
348988
349138
349286
349438
349590
349742
349890
350042
350192
350344
350498
350654
350812
350976
351138
351300
351464
351626
351784
351944
352104
352258
352412
352564
352718
352876
353040
353202
353360
353522
353684
353838
353992
354144
354298
354452
354602
354752
354902
355052
355208
355364
355518
355680
355840
356000
356162
356320
356476
356632
356788
356944
357100
357258
357412
357566
357722
357880
358036
358196
358354
358510
358664
358818
358968
359118
359228
359422
359570
359714
359862
360008
360156
360306
360460
360614
360766
360920
361074
361226
361382
361536
361690
361840
361998
362152
362304
362458
362610
362760
362914
363066
363184
363368
363516
363660
363802
363948
364094
364244
364348
364550
364700
364850
364996
365142
365292
365442
365588
365738
365890
366042
366192
366344
366492
366642
366794
366948
367098
367254
367410
367562
367716
367870
368020
368170
368316
368462
368604
368750
368896
369038
369184
369334
369484
369632
369784
369934
370082
370228
370374
370494
370660
370802
370944
371084
371222
371364
371506
371610
371800
371944
372090
372236
372388
372544
372704
372860
373028
373198
373370
373548
373716
373882
374048
374214
374374
374534
374692
374852
375008
375164
375322
375478
375632
375792
375956
376118
376294
376460
376618
376784
376954
377124
377290
377464
377642
377810
377978
378148
378306
378466
378624
378776
378928
379082
379236
379386
379538
379686
379834
379982
380130
380276
380426
380578
380684
380884
381034
381178
381322
381468
381578
381770
381918
382066
382212
382358
382464
382666
382816
382968
383124
383284
383454
383612
383780
383944
384106
384264
384424
384586
384744
384896
384998
385204
385352
385500
385648
385796
385946
386102
386264
386424
386584
386744
386900
387060
387226
387388
387540
387712
387872
388028
388180
388332
388486
388638
388790
388940
389088
389250
389410
389574
389738
389902
390072
390236
390402
390574
390744
390922
391100
391268
391440
391606
391768
391926
392081
392175
392390
392540
392688
392838
392992
393144
393296
393406
393602
393750
393898
394048
394202
394354
394512
394616
394840
394996
395154
395310
395470
395626
395782
395938
396092
396242
396392
396544
396648
396848
396996
397142
397288
397432
397580
397728
397832
398034
398184
398334
398486
398634
398780
398934
399094
399274
399460
399654
399852
400048
400250
400448
400642
400830
401012
401182
401352
401520
401694
401872
402056
402242
402436
402632
402824
403018
403206
403386
403564
403740
403910
404076
404246
404424
404608
404784
404954
405122
405284
405446
405606
405762
405926
406092
406254
406428
406604
406798
406982
407176
407356
407540
407722
407896
408070
408242
408414
408582
408748
408912
409072
409228
409382
409540
409692
409848
410000
410152
410304
410456
410612
410764
410916
411074
411240
411402
411560
411730
411904
412078
412250
412430
412608
412786
412960
413136
413318
413488
413660
413834
414010
414184
414356
414536
414714
414888
415054
415220
415394
415576
415748
415930
416122
416302
416484
416672
416854
417028
417200
417376
417550
417720
417888
418062
418234
418402
418564
418732
418894
419050
419206
419364
419526
419688
419848
420018
420188
420352
420520
420694
420866
421032
421192
421358
421522
421688
421854
422026
422200
422376
422560
422744
422922
423106
423288
423462
423642
423822
423998
424176
424346
424522
424702
424886
425060
425236
425412
425592
425764
425936
426114
426292
426484
426672
426856
427048
427238
427426
427610
427792
427974
428158
428338
428522
428704
428892
429076
429264
429456
429650
429836
430034
430234
430430
430626
430820
431008
431182
431356
431536
431714
431900
432088
432276
432466
432674
432880
433080
433274
433468
433658
433836
434018
434192
434360
434530
434698
434868
435052
435234
435420
435616
435812
436004
436200
436394
436582
436774
436968
437154
437346
437528
437704
437874
438052
438238
438430
438610
438798
438986
439162
439340
439516
439694
439872
440044
440214
440388
440562
440734
440904
441080
441262
441434
441610
441786
441964
442140
442308
442472
442634
442796
442960
443124
443288
443466
443634
443806
443978
444156
444324
444494
444668
444840
445006
445178
445350
445520
445692
445870
446048
446218
446394
446568
446742
446918
447094
447260
447428
447596
447764
447930
448098
448272
448436
448614
448788
448954
449120
449232
449464
449630
449802
449972
450150
450330
450508
450686
450872
451058
451250
451446
451634
451816
452000
452178
452352
452530
452708
452896
453084
453282
453486
453682
453878
454072
454264
454458
454652
454846
455036
455228
455420
455614
455808
455996
456182
456358
456540
456712
456894
457084
457268
457476
457678
457882
458092
458286
458488
458676
458852
459026
459194
459366
459534
459704
459886
460064
460232
460408
460586
460764
460932
461096
461264
461430
461592
461756
461918
462082
462248
462416
462588
462762
462932
463102
463276
463444
463612
463776
463942
464104
464264
464426
464534
464754
464916
465076
465246
465416
465584
465756
465934
466118
466306
466484
466664
466844
467018
467182
467350
467516
467686
467860
468040
468214
468400
468592
468778
468950
469130
469308
469478
469646
469816
469984
470146
470312
470474
470632
470794
470960
471116
471276
471442
471610
471782
471946
472110
472272
472434
472594
472756
472920
473086
473246
473408
473574
473746
473922
474096
474274
474448
474618
474784
474954
475128
475304
475488
475670
475856
476032
476206
476380
476554
476722
476890
477060
477232
477404
477578
477756
477926
478100
478268
478434
478594
478760
478930
479094
479266
479436
479602
479778
479950
480116
480288
480456
480620
480782
480954
481126
481290
481458
481636
481810
481978
482148
482324
482496
482664
482834
483010
483196
483368
483546
483730
483912
484082
484244
484412
484586
484776
484950
485156
485346
485538
485732
485924
486118
486314
486508
486702
486900
487096
487284
487474
487664
487854
488038
488230
488420
488604
488792
488986
489168
489354
489542
489730
489922
490108
490298
490486
490676
490858
491038
491220
491412
491600
491784
491958
492134
492310
492484
492660
492826
492996
493158
493320
493478
493634
493792
493956
494130
494312
494494
494684
494878
495070
495256
495438
495618
495800
495986
496164
496354
496544
496732
496920
497100
497268
497434
497596
497758
497918
498078
498244
498418
498592
498780
498966
499166
499364
499550
499746
499936
500118
500302
500484
500662
500846
501022
501194
501372
501548
501722
501890
502058
502232
502404
502570
502738
502912
503074
503242
503416
503584
503748
503922
504098
504270
504448
504620
504786
504952
505074
505296
505458
505618
505776
505940
506100
506262
506424
506588
506752
506928
507106
507272
507454
507628
507800
507968
508134
508298
508460
508624
508790
508946
509104
509266
509426
509586
509746
509914
510082
510238
510350
510560
510708
510860
511010
511164
511316
511468
511628
511790
511958
512136
512318
512484
512652
512814
512976
513130
513278
513428
513576
513724
513878
514030
514184
514340
514506
514674
514838
515002
515178
515354
515526
515692
515860
516024
516182
516340
516494
516652
516812
516976
517136
517298
517470
517642
517812
517980
518142
518304
518468
518626
518786
518950
519118
519286
519452
519616
519778
519942
520106
520276
520438
520606
520772
520930
521090
521248
521412
521576
521738
521904
522072
522238
522410
522578
522746
522920
523088
523204
523430
523594
523758
523920
524084
524262
524440
524614
524792
524984
525164
525342
525524
525702
525878
526062
526250
526450
526652
526846
527056
527258
527464
527668
527860
528058
528248
528436
528630
528816
529008
529200
529406
529601
529806
530006
530202
530400
530596
530784
530976
531162
531348
531534
531714
531898
532082
532274
532472
532668
532860
533050
533234
533424
533604
533774
533944
534122
534300
534480
534662
534838
535006
535174
535344
535514
535690
535874
536062
536254
536440
536642
536836
537036
537242
537438
537626
537822
538018
538200
538388
538572
538748
538934
539124
539306
539492
539680
539880
540086
540284
540466
540646
540832
541010
541180
541352
541532
541716
541900
542088
542280
542464
542642
542826
543014
543196
543386
543576
543762
543948
544136
544318
544498
544688
544868
545038
545214
545394
545572
545746
545928
546118
546296
546476
546660
546838
547014
547200
547376
547548
547726
547904
548082
548254
548436
548610
548794
548980
549164
549344
549520
549698
549876
550048
550222
550398
550566
550738
550912
551082
551196
551420
551584
551742
551902
552064
552224
552382
552544
552706
552868
553030
553188
553300
553502
553656
553810
553928
554122
554280
554434
554592
554762
554936
555124
555304
555490
555682
555862
556042
556222
556394
556558
556718
556874
557032
557186
557338
557490
557646
557802
557964
558086
558302
558466
558636
558802
558966
559134
559310
559478
559650
559824
560008
560182
560354
560528
560702
560870
561034
561200
561318
561536
561698
561862
562022
562190
562366
562534
562702
562874
563050
563216
563384
563560
563732
563904
564080
564248
564418
564588
564758
564928
565094
565264
565434
565546
565772
565934
566094
566256
566416
566574
566742
566912
567082
567262
567446
567628
567808
567994
568180
568360
568534
568712
568892
569072
569254
569444
569624
569810
569996
570182
570366
570558
570754
570950
571144
571334
571530
571724
571912
572098
572276
572452
572630
572806
572994
573182
573368
573554
573740
573916
574090
574260
574430
574604
574772
574944
575118
575300
575478
575646
575822
575994
576158
576326
576494
576666
576830
576992
577156
577318
577480
577640
577802
577966
578132
578300
578466
578632
578792
578952
579112
579270
579428
579590
579746
579902
580060
580222
580382
580546
580712
580892
581070
581238
581406
581532
581752
581912
582078
582236
582400
582574
582744
582914
583088
583264
583448
583632
583816
584002
584184
584374
584560
584736
584918
585098
585268
585446
585624
585794
585964
586142
586318
586490
586668
586854
587032
587212
587394
587586
587764
587950
588130
588302
588472
588638
588806
588972
589138
589306
589476
589642
589810
589978
590142
590306
590466
590628
590786
590948
591112
591222
591442
591602
591760
591916
592072
592232
592390
592554
592716
592876
593038
593204
593376
593544
593710
593880
594050
594214
594384
594496
594718
594880
595036
595194
595352
595504
595662
595818
595976
596138
596250
596468
596632
596790
596946
597104
597260
597414
597568
597726
597880
598040
598196
598350
598508
598664
598818
598970
599118
599268
599418
599570
599722
599878
600042
600206
600366
600530
600712
600890
601058
601244
601424
601592
601762
601940
602118
602296
602474
602668
602860
603040
603234
603434
603630
603814
604000
604194
604380
604560
604744
604932
605104
605282
605474
605658
605832
606014
606206
606394
606568
606752
606942
607128
607302
607480
607670
607854
608028
608206
608386
608570
608746
608922
609088
609254
609422
609598
609764
609930
610104
610280
610446
610618
610808
610996
611174
611354
611546
611732
611918
612096
612282
612472
612664
612850
613050
613252
613458
613654
613842
614038
614232
614422
614612
614802
614994
615176
615354
615532
615710
615892
616072
616248
616434
616626
616816
617000
617192
617386
617574
617752
617936
618116
618292
618460
618630
618800
618970
619140
619308
619480
619648
619822
620000
620180
620356
620536
620724
620912
621092
621270
621458
621646
621824
622002
622186
622374
622560
622752
622954
623158
623352
623544
623740
623934
624118
624298
624484
624668
624852
625042
625230
625410
625594
625778
625966
626148
626260
626518
626694
626864
627040
627218
627402
627580
627766
627956
628150
628334
628524
628716
628906
629088
629272
629458
629644
629822
630002
630182
630360
630536
630710
630876
631038
631206
631374
631546
631718
631890
632062
632240
632426
632610
632788
632970
633156
633338
633516
633698
633888
634086
634276
634472
634668
634858
635042
635232
635422
635606
635792
635982
636178
636366
636558
636750
636936
637116
637298
637486
637670
637846
638022
638206
638388
638570
638740
638914
639092
639268
639436
639608
639782
639956
640122
640294
640470
640646
640820
640990
641162
641332
641502
641670
641836
642002
642166
642330
642492
642666
642842
643016
643194
643374
643558
643738
643912
644086
644264
644442
644618
644784
644962
645138
645320
645490
645664
645844
646024
646208
646382
646568
646758
646946
647130
647308
647492
647678
647854
648036
648216
648396
648576
648746
648924
649104
649280
649452
649634
649814
650000
650180
650354
650536
650718
650892
651062
651230
651396
651562
651726
651838
652054
652210
652366
652522
652678
652840
652954
653170
653332
653498
653610
653826
653988
654152
654316
654486
654652
654828
655016
655208
655396
655584
655774
655962
656142
656320
656502
656688
656868
657048
657230
657414
657596
657776
657958
658142
658324
658502
658684
658868
659046
659158
659408
659584
659754
659918
660082
660248
660412
660574
660736
660898
661058
661220
661384
661552
661724
661898
662072
662246
662422
662596
662772
662940
663120
663302
663474
663650
663830
664012
664190
664372
664560
664752
664938
665122
665310
665498
665684
665864
666048
666234
666424
666610
666796
666986
667176
667362
667540
667722
667904
668084
668254
668426
668598
668766
668934
669100
669270
669440
669608
669780
669954
670126
670294
670462
670628
670794
670954
671118
671280
671440
671602
671760
671922
672084
672250
672412
672572
672736
672900
673018
673232
673394
673556
673716
673876
674038
674198
674366
674536
674708
674870
675040
675210
675380
675550
675712
675872
676034
676194
676360
676522
676682
676844
677006
677172
677336
677498
677662
677824
677984
678148
678312
678474
678632
678790
678950
679078
679278
679436
679594
679746
679900
680056
680210
680374
680542
680706
680874
680982
681214
681378
681540
681694
681850
682012
682162
682324
682440
682652
682814
682924
683134
683290
683440
683586
683736
683890
684044
684210
684316
684552
684720
684888
685054
685216
685376
685482
685694
685852
686006
686158
686312
686466
686620
686730
686940
687104
687278
687456
687634
687816
687998
688170
688344
688514
688678
688844
689008
689170
689330
689488
689648
689810
689974
690082
690300
690464
690632
690800
690962
691128
691298
691472
691650
691826
692002
692178
692348
692516
692680
692846
693014
693184
693352
693516
693680
693848
694020
694188
694354
694462
694696
694864
695034
695144
695376
695540
695704
695872
696046
696216
696390
696570
696752
696932
697106
697278
697448
697612
697778
697944
698110
698272
698434
698598
698760
698930
699102
699278
699456
699622
699794
699968
700140
700306
700472
700638
700804
700910
701144
701306
701468
701630
701742
701954
702112
702272
702436
702606
702780
702964
703150
703334
703518
703696
703868
704036
704202
704368
704530
704694
704854
705014
705178
705348
705524
705700
705870
706044
706212
706384
706550
706718
706884
707050
707214
707380
707546
707708
707872
708038
708206
708370
708530
708694
708858
708964
709186
709348
709462
709658
709812
709964
710116
710268
710422
710586
710764
710942
711128
711238
711518
711714
711912
712092
712270
712446
712622
712798
712972
713144
713312
713476
713638
713806
713984
714160
714338
714518
714696
714874
715044
715210
715382
715558
715736
715914
716088
716264
716442
716624
716802
716982
717156
717326
717504
717682
717860
718038
718224
718412
718596
718768
718940
719110
719278
719446
719612
719776
719942
720050
720286
720450
720612
720774
720936
721094
721256
721420
721522
721758
721926
722098
722266
722432
722600
722768
722932
723092
723258
723422
723588
723754
723922
724092
724260
724426
724594
724758
724926
725096
725266
725372
725610
725778
725942
726102
726264
726386
726590
726746
726906
727066
727228
727396
727568
727738
727912
728090
728272
728446
728620
728794
728970
729142
729308
729470
729634
729802
729920
730144
730308
730478
730646
730814
730984
731158
731338
731524
731704
731890
732076
732260
732438
732618
732798
732972
733144
733318
733488
733660
733834
734012
734188
734362
734544
734726
734910
735092
735278
735466
735660
735848
736040
736234
736432
736620
736806
736998
737184
737366
737552
737744
737934
738118
738304
738488
738668
738844
739020
739198
739376
739552
739722
739896
740072
740246
740418
740586
740750
740920
741090
741264
741446
741624
741728
741990
742166
742340
742512
742690
742870
743048
743228
743420
743618
743812
744000
744198
744404
744610
744804
744994
745190
745384
745572
745756
745944
746136
746334
746524
746718
746914
747114
747300
747490
747688
747890
748094
748282
748474
748594
748858
749032
749202
749364
749524
749686
749842
749998
750156
750318
750486
750658
750826
750996
751174
751352
751518
751686
751856
752022
752190
752356
752518
752680
752844
753002
753160
753318
753478
753640
753806
753964
754124
754290
754458
754618
754778
754934
755096
755268
755438
755612
755786
755958
756122
756282
756444
756598
756754
756908
757070
757232
757392
757556
757732
757912
758084
758272
758466
758654
758760
759022
759196
759364
759540
759714
759882
760052
760234
760418
760594
760770
760952
761134
761302
761488
761668
761856
762040
762226
762398
762566
762732
762898
763066
763172
763412
763578
763752
763930
764104
764274
764468
764664
764864
765048
765244
765436
765624
765822
765930
766188
766374
766550
766716
766882
767050
767220
767392
767566
767750
767944
768130
768322
768516
768718
768918
769112
769294
769476
769658
769830
770002
770168
770342
770520
770692
770868
771054
771238
771416
771606
771794
771982
772160
772344
772534
772720
772894
773070
773252
773430
773608
773786
773960
774140
774318
774494
774668
774848
775026
775206
775376
775558
775738
775914
776088
776262
776442
776618
776786
776956
777132
777306
777480
777654
777822
777990
778164
778334
778504
778670
778832
778986
779142
779304
779466
779636
779806
779968
780130
780294
780464
780636
780802
780972
781150
781334
781520
781692
781878
782058
782242
782428
782610
782784
782960
783134
783316
783494
783682
783868
784044
784220
784394
784574
784750
784928
785102
785284
785468
785652
785828
786018
786204
786394
786570
786750
786934
787116
787296
787466
787644
787762
788002
788170
788334
788498
788602
788838
789006
789186
789370
789476
789738
789924
790112
790300
790478
790652
790834
791018
791196
791372
791552
791724
791902
792068
792238
792412
792586
792754
792922
793094
793270
793452
793626
793800
793986
794164
794342
794514
794688
794862
795030
795202
795380
795556
795724
795888
796056
796228
796404
796522
796760
796930
797096
797260
797428
797596
797700
797936
798100
798270
798384
798618
798780
798954
799130
799310
799484
799678
799872
800062
800250
800444
800634
800816
800998
801180
801366
801546
801724
801904
802094
802280
802464
802652
802846
803040
803230
803414
803598
803784
803970
804156
804338
804516
804694
804872
805048
805226
805414
805590
805764
805942
806124
806306
806486
806666
806848
807028
807204
807380
807556
807732
807910
808086
808256
808430
808604
808784
808960
809128
809308
809490
809674
809848
810030
810210
810390
810562
810734
810900
811070
811252
811434
811620
811806
811986
812162
812342
812516
812690
812854
813032
813208
813386
813562
813732
813916
814092
814268
814438
814610
814788
814964
815142
815320
815502
815682
815866
816040
816218
816402
816584
816756
816940
817124
817308
817482
817660
817842
818018
818194
818374
818544
818720
818898
819076
819252
819434
819610
819780
819948
820120
820296
820478
820658
820844
821026
821204
821378
821556
821736
821922
822112
822296
822474
822652
822832
823010
823190
823370
823554
823734
823914
824096
824278
824460
824640
824816
824994
825170
825346
825516
825680
825846
826016
826186
826290
826532
826700
826868
827034
827198
827370
827474
827724
827890
827996
828238
828402
828566
828730
828900
829072
829246
829418
829598
829776
829956
830060
830308
830480
830648
830812
830974
831136
831302
831468
831570
831802
831964
832126
832284
832444
832606
832774
832948
833126
833310
833492
833676
833862
833980
834214
834380
834544
834702
834818
835020
835174
835328
835488
835596
835812
835968
836130
836294
836460
836634
836820
837016
837202
837396
837590
837796
837996
838186
838372
838560
838742
838932
839118
839304
839490
839682
839874
840056
840242
840426
840606
840786
840968
841152
841328
841508
841690
841880
842062
842248
842432
842614
842792
842980
843160
843338
843520
843702
843882
844056
844240
844420
844592
844762
844932
845106
845272
845436
845608
845778
845948
846114
846294
846472
846648
846826
847006
847188
847356
847532
847638
847880
848040
848204
848356
848506
848654
848808
848966
849072
849296
849452
849564
849784
849934
850088
850246
850406
850570
850672
850898
851056
851222
851378
851544
851710
851886
852068
852248
852430
852618
852804
852978
853152
853330
853504
853680
853852
854018
854192
854366
854544
854718
854884
855062
855236
855412
855584
855748
855926
856100
856280
856450
856628
856804
856980
857156
857324
857506
857684
857864
858038
858204
858376
858548
858654
858898
859060
859224
859392
859556
859728
859836
860066
860228
860390
860562
860734
860912
861094
861268
861444
861626
861810
861992
862178
862366
862548
862726
862910
863082
863254
863432
863612
863794
863980
864162
864332
864504
864680
864854
865030
865208
865384
865560
865738
865914
866090
866258
866432
866604
866776
866948
867126
867302
867470
867656
867826
867998
868172
868346
868524
868702
868874
869046
869220
869394
869566
869738
869906
870076
870250
870426
870602
870768
870940
871112
871280
871448
871610
871780
871950
872056
872296
872456
872558
872788
872944
873106
873262
873426
873588
873692
873930
874090
874250
874414
874520
874744
874898
875052
875212
875370
875534
875638
875866
876022
876184
876346
876512
876678
876846
877010
877180
877350
877524
877702
877880
878058
878226
878398
878570
878740
878900
879062
879228
879392
879558
879728
879892
879992
880226
880388
880550
880704
880862
881022
881186
881350
881506
881666
881828
881992
882160
882328
882500
882664
882828
882996
883164
883326
883496
883672
883850
884024
884192
884360
884532
884700
884870
885034
885202
885304
885550
885718
885818
886048
886210
886370
886528
886686
886848
887018
887194
887368
887544
887716
887894
888068
888240
888404
888572
888742
888916
889078
889248
889416
889580
889746
889918
890102
890290
890476
890662
890848
891030
891206
891374
891540
891714
891880
892048
892228
892408
892592
892780
892964
893144
893316
893486
893652
893812
893972
894138
894310
894488
894670
894856
895034
895220
895396
895582
895758
895934
896106
896270
896434
896602
896780
896964
897144
897330
897526
897722
897918
898106
898296
898488
898674
898856
899038
899224
899410
899596
899778
899958
900138
900310
900480
900650
900822
901000
901182
901360
901532
901698
901860
901966
902178
902334
902486
902640
902794
902948
903104
903270
903438
903600
903768
903944
904120
904290
904464
904570
904814
904976
905136
905294
905462
905638
905816
905998
906186
906372
906566
906760
906946
907126
907308
907492
907674
907858
908038
908230
908422
908614
908806
908990
909184
909374
909558
909744
909930
910106
910282
910458
910640
910822
911010
911200
911378
911558
911742
911920
912100
912270
912440
912618
912796
912904
913146
913312
913476
913646
913814
913982
914156
914334
914502
914610
914856
915026
915190
915352
915522
915688
915860
916026
916202
916376
916554
916728
916892
917066
917234
917406
917578
917750
917922
918098
918276
918446
918628
918812
918994
919166
919340
919518
919692
919860
920030
920194
920364
920534
920710
920892
921078
921254
921434
921624
921800
921902
922150
922318
922488
922656
922826
923008
923190
923372
923560
923742
923916
924084
924260
924430
924600
924764
924930
925096
925262
925424
925596
925768
925944
926122
926298
926478
926658
926834
927004
927180
927352
927526
927690
927856
927970
928204
928368
928532
928694
928864
929030
929202
929372
929550
929656
929904
930070
930236
930406
930572
930730
930892
931056
931222
931388
931552
931718
931888
932058
932228
932394
932564
932736
932904
933072
933234
933398
933564
933728
933896
934060
934228
934398
934570
934744
934848
935080
935244
935402
935564
935724
935882
936042
936208
936372
936542
936710
936886
937058
937228
937392
937554
937714
937874
938034
938188
938350
938510
938674
938836
938994
939152
939304
939454
939604
939754
939908
940064
940228
940398
940568
940740
940910
941022
941250
941412
941574
941734
941894
942056
942222
942390
942558
942728
942902
943074
943242
943408
943580
943752
943926
944096
944270
944446
944622
944794
944962
945126
945290
945458
945624
945788
945954
946128
946296
946464
946630
946798
946964
947130
947292
947454
947620
947790
947956
948122
948288
948456
948624
948784
948946
949112
949286
949460
949628
949794
949962
950126
950292
950456
950618
950782
950954
951116
951280
951452
951622
951784
951952
952116
952286
952450
952616
952778
952938
953100
953268
953430
953604
953766
953930
954100
954274
954446
954606
954766
954924
955082
955240
955396
955554
955714
955880
956042
956204
956370
956542
956708
956874
957038
957206
957374
957534
957698
957870
958042
958208
958378
958544
958718
958888
959050
959218
959392
959564
959728
959894
960058
960230
960392
960556
960720
960886
961058
961226
961392
961562
961740
961906
962070
962234
962394
962556
962716
962872
963028
963186
963348
963526
963704
963880
964060
964238
964412
964580
964744
964904
965058
965208
965356
965504
965654
965806
965962
966130
966304
966482
966650
966820
966990
967162
967334
967506
967676
967840
968008
968176
968346
968512
968678
968846
969018
969194
969368
969538
969708
969878
970046
970216
970380
970548
970714
970882
971046
971206
971362
971520
971680
971840
971998
972154
972312
972468
972630
972792
972956
973118
973280
973442
973604
973768
973936
974102
974268
974434
974602
974772
974946
975114
975278
975444
975608
975772
975934
976096
976266
976438
976602
976772
976936
977098
977256
977416
977580
977746
977920
978092
978266
978434
978604
978770
978934
979100
979260
979424
979588
979756
979922
980096
980274
980456
980638
980814
980992
981168
981344
981514
981680
981842
982004
982164
982324
982488
982660
982832
983008
983186
983364
983532
983696
983858
984020
984180
984338
984502
984678
984854
985034
985208
985378
985552
985726
985904
986082
986250
986418
986590
986766
986936
987102
987270
987442
987618
987782
987946
988112
988282
988444
988608
988770
988940
989106
989270
989430
989594
989756
989920
990082
990246
990412
990586
990756
990926
991094
991264
991432
991600
991764
991930
992098
992268
992432
992598
992772
992946
993122
993290
993460
993634
993806
993976
994146
994324
994498
994664
994838
995012
995178
995350
995508
995664
995824
995972
996128
996284
996440
996602
996770
996934
997102
997276
997450
997622
997792
997972
998136
998304
998470
998638
998800
998962
999126
999290
999454
999618
999784
999950
1000118
1000292
1000472
1000644
1000826
1001000
1001174
1001340
1001510
1001686
1001854
1002020
1002192
1002368
1002538
1002708
1002876
1003052
1003224
1003396
1003570
1003744
1003912
1004080
1004248
1004418
1004590
1004758
1004926
1005094
1005274
1005446
1005624
1005798
1005974
1006162
1006348
1006520
1006694
1006864
1007030
1007192
1007348
1007502
1007656
1007816
1007978
1008138
1008302
1008472
1008642
1008806
1008968
1009132
1009302
1009474
1009644
1009810
1009978
1010150
1010324
1010490
1010660
1010828
1011006
1011180
1011348
1011518
1011684
1011852
1012024
1012186
1012354
1012526
1012692
1012854
1013016
1013174
1013334
1013498
1013670
1013836
1014012
1014188
1014366
1014538
1014714
1014894
1015064
1015234
1015400
1015566
1015734
1015908
1016074
1016244
1016420
1016590
1016760
1016928
1017094
1017264
1017440
1017608
1017780
1017960
1018138
1018312
1018488
1018660
1018834
1019010
1019176
1019344
1019516
1019694
1019858
1020022
1020184
1020354
1020528
1020702
1020872
1021058
1021238
1021414
1021586
1021756
1021926
1022096
1022260
1022422
1022578
1022736
1022898
1023066
1023236
1023418
1023600
1023774
1023948
1024126
1024304
1024476
1024646
1024818
1024994
1025168
1025334
1025506
1025676
1025852
1026020
1026190
1026364
1026540
1026714
1026886
1027058
1027228
1027402
1027564
1027732
1027902
1028076
1028242
1028406
1028572
1028738
1028904
1029070
1029232
1029396
1029566
1029728
1029890
1030052
1030216
1030378
1030538
1030700
1030866
1031032
1031198
1031366
1031530
1031696
1031866
1032032
1032200
1032364
1032528
1032688
1032848
1033008
1033166
1033328
1033490
1033652
1033814
1033978
1034140
1034300
1034456
1034612
1034768
1034924
1035080
1035234
1035388
1035544
1035694
1035844
1035996
1036150
1036302
1036458
1036610
1036764
1036920
1037078
1037238
1037398
1037560
1037716
1037868
1038018
1038168
1038318
1038472
1038642
1038816
1038992
1039164
1039332
1039502
1039674
1039848
1040020
1040188
1040358
1040528
1040696
1040864
1041040
1041212
1041380
1041546
1041706
1041868
1042038
1042206
1042368
1042536
1042710
1042878
1043044
1043212
1043384
1043546
1043704
1043862
1044024
1044192
1044354
1044518
1044692
1044864
1045038
1045204
1045370
1045536
1045702
1045868
1046034
1046200
1046374
1046540
1046710
1046882
1047064
1047234
1047406
1047578
1047750
1047922
1048094
1048264
1048434
1048610
1048790
1048974
1049156
1049338
1049520
1049702
1049880
1050054
1050224
1050396
1050570
1050750
1050930
1051112
1051292
1051474
1051650
1051822
1051994
1052162
1052328
1052494
1052658
1052822
1052984
1053146
1053306
1053468
1053632
1053790
1053946
1054104
1054264
1054430
1054592
1054754
1054918
1055086
1055248
1055406
1055562
1055720
1055876
1056040
1056196
1056356
1056518
1056686
1056848
1057010
1057170
1057330
1057492
1057650
1057804
1057960
1058114
1058272
1058430
1058588
1058742
1058900
1059058
1059220
1059378
1059536
1059692
1059854
1060016
1060174
1060330
1060486
1060644
1060808
1060966
1061126
1061286
1061454
1061614
1061772
1061930
1062086
1062246
1062404
1062560
1062718
1062876
1063036
1063194
1063354
1063516
1063682
1063844
1064010
1064176
1064346
1064508
1064674
1064838
1065010
1065182
1065350
1065518
1065688
1065862
1066032
1066200
1066372
1066548
1066720
1066888
1067056
1067226
1067392
1067562
1067734
1067904
1068074
1068244
1068402
1068560
1068716
1068872
1069030
1069196
1069358
1069526
1069686
1069850
1070016
1070188
1070348
1070516
1070684
1070864
1071050
1071228
1071402
1071576
1071748
1071914
1072078
1072240
1072404
1072576
1072744
1072914
1073086
1073270
1073438
1073618
1073798
1073972
1074146
1074324
1074504
1074678
1074858
1075030
1075200
1075364
1075526
1075686
1075846
1076004
1076162
1076322
1076494
1076662
1076830
1077000
1077178
1077354
1077534
1077702
1077872
1078044
1078218
1078390
1078558
1078720
1078882
1079042
1079208
1079374
1079542
1079704
1079864
1080026
1080186
1080348
1080506
1080662
1080818
1080974
1081132
1081292
1081450
1081610
1081772
1081934
1082096
1082264
1082430
1082594
1082756
1082916
1083072
1083226
1083388
1083558
1083738
1083916
1084094
1084266
1084432
1084592
1084750
1084902
1085056
1085206
1085358
1085506
1085658
1085810
1085972
1086136
1086298
1086458
1086620
1086778
1086934
1087090
1087244
1087398
1087550
1087704
1087864
1088024
1088182
1088338
1088490
1088638
1088789
1088930
1089083
1089230
1089392
1089578
1089758
1089938
1090132
1090326
1090522
1090720
1090914
1091096
1091270
1091440
1091606
1091772
1091940
1092114
1092284
1092452
1092618
1092782
1092940
1093092
1093242
1093392
1093546
1093714
1093890
1094064
1094230
1094394
1094554
1094714
1094872
1095034
1095202
1095372
1095540
1095710
1095880
1096050
1096224
1096402
1096572
1096736
1096904
1097074
1097246
1097426
1097596
1097776
1097954
1098126
1098294
1098460
1098622
1098780
1098938
1099094
1099246
1099404
1099562
1099722
1099876
1100032
1100194
1100360
1100524
1100684
1100842
1101000
1101162
1101324
1101484
1101642
1101794
1101950
1102106
1102264
1102420
1102576
1102730
1102882
1103032
1103184
1103338
1103496
1103658
1103820
1103980
1104144
1104310
1104474
1104632
1104790
1104946
1105098
1105252
1105408
1105560
1105716
1105876
1106038
1106196
1106356
1106514
1106670
1106824
1106976
1107126
1107282
1107438
1107592
1107750
1107902
1108058
1108212
1108368
1108522
1108678
1108836
1108994
1109150
1109304
1109460
1109616
1109778
1109946
1110118
1110288
1110460
1110628
1110796
1110962
1111120
1111278
1111434
1111586
1111740
1111894
1112054
1112212
1112376
1112540
1112704
1112868
1113034
1113196
1113358
1113522
1113686
1113844
1114002
1114160
1114320
1114480
1114640
1114796
1114956
1115120
1115290
1115466
1115638
1115808
1115982
1116154
1116322
1116486
1116650
1116812
1116974
1117140
1117302
1117466
1117632
1117800
1117968
1118132
1118298
1118470
1118632
1118792
1118956
1119120
1119288
1119450
1119610
1119766
1119926
1120090
1120254
1120422
1120586
1120750
1120908
1121064
1121218
1121370
1121522
1121676
1121832
1121988
1122144
1122300
1122456
1122616
1122776
1122938
1123096
1123254
1123412
1123564
1123722
1123882
1124044
1124208
1124378
1124550
1124726
1124894
1125070
1125246
1125416
1125582
1125748
1125916
1126080
1126242
1126404
1126566
1126726
1126884
1127038
1127188
1127336
1127478
1127620
1127762
1127902
1128042
1128182
1128322
1128462
1128600
1128738
1128874
1129012
1129148
1129282
1129416
1129550
1129686
1129820
1129958
1130100
1130244
1130386
1130532
1130678
1130830
1130980
1131128
1131278
1131432
1131588
1131740
1131892
1132044
1132192
1132340
1132486
1132630
1132772
1132912
1133050
1133188
1133322
1133456
1133588
1133720
1133852
1133986
1134118
1134250
1134384
1134514
1134646
1134776
1134908
1135042
1135174
1135308
1135442
1135576
1135710
1135848
1135986
1136122
1136256
1136392
1136532
1136672
1136814
1136954
1137094
1137238
1137384
1137532
1137680
1137826
1137970
1138112
1138256
1138396
1138538
1138680
1138824
1138966
1139112
1139256
1139400
1139544
1139684
1139824
1139960
1140096
1140234
1140370
1140510
1140648
1140786
1140922
1141060
1141198
1141336
1141478
1141620
1141760
1141900
1142044
1142188
1142334
1142478
1142622
1142766
1142912
1143058
1143202
1143344
1143490
1143638
1143786
1143940
1144098
1144254
1144408
1144566
1144726
1144888
1145042
1145196
1145350
1145504
1145658
1145806
1145954
1146100
1146242
1146384
1146528
1146670
1146812
1146958
1147108
1147264
1147420
1147572
1147730
1147884
1148042
1148196
1148356
1148514
1148668
1148818
1148970
1149120
1149270
1149424
1149572
1149724
1149876
1150030
1150182
1150334
1150486
1150638
1150784
1150926
1151068
1151208
1151348
1151490
1151630
1151776
1151924
1152072
1152218
1152366
1152516
1152662
1152810
1152962
1153116
1153266
1153420
1153576
1153732
1153880
1154028
1154174
1154324
1154472
1154620
1154760
1154900
1155040
1155190
1155346
1155502
1155666
1155836
1156004
1156168
1156334
1156500
1156664
1156836
1157014
1157184
1157350
1157518
1157682
1157840
1157996
1158158
1158320
1158480
1158642
1158806
1158970
1159128
1159284
1159440
1159600
1159764
1159924
1160084
1160250
1160418
1160586
1160750
1160916
1161084
1161242
1161402
1161562
1161722
1161878
1162034
1162192
1162356
1162518
1162680
1162846
1163010
1163170
1163330
1163484
1163638
1163786
1163932
1164082
1164236
1164396
1164566
1164730
1164906
1165076
1165244
1165410
1165578
1165746
1165910
1166066
1166228
1166380
1166532
1166684
1166836
1166990
1167146
1167306
1167470
1167628
1167782
1167932
1168090
1168236
1168386
1168540
1168692
1168844
1168990
1169136
1169280
1169426
1169572
1169722
1169870
1170014
1170160
1170304
1170452
1170604
1170762
1170920
1171074
1171230
1171382
1171536
1171690
1171842
1171990
1172140
1172288
1172434
1172578
1172724
1172870
1173020
1173168
1173314
1173462
1173614
1173766
1173916
1174068
1174224
1174380
1174532
1174684
1174838
1174994
1175148
1175300
1175454
1175612
1175774
1175938
1176098
1176262
1176424
1176584
1176746
1176912
1177074
1177234
1177398
1177564
1177730
1177892
1178058
1178226
1178392
1178552
1178710
1178868
1179030
1179194
1179354
1179518
1179682
1179844
1180006
1180166
1180324
1180482
1180640
1180796
1180948
1181104
1181258
1181416
1181576
1181734
1181896
1182052
1182208
1182366
1182524
1182682
1182842
1183002
1183166
1183324
1183482
1183642
1183804
1183966
1184126
1184290
1184456
1184622
1184790
1184956
1185120
1185286
1185456
1185626
1185794
1185958
1186122
1186294
1186466
1186640
1186810
1186986
1187166
1187348
1187522
1187694
1187866
1188034
1188194
1188352
1188510
1188670
1188832
1189004
1189182
1189372
1189562
1189742
1189932
1190116
1190294
1190478
1190660
1190842
1191016
1191194
1191370
1191540
1191706
1191874
1192042
1192206
1192366
1192526
1192688
1192850
1193012
1193184
1193364
1193546
1193724
1193896
1194072
1194250
1194426
1194594
1194768
1194944
1195114
1195280
1195446
1195612
1195772
1195936
1196098
1196264
1196430
1196608
1196796
1196982
1197170
1197514
1197689
1197852
1198014
1198180
1198354
1198530
1198704
1198870
1199030
1199184
1199336
1199484
1199632
1199780
1199926
1200074
1200222
1200370
1200516
1200658
1200798
1200942
1201088
1201236
1201386
1201532
1201688
1201846
1202010
1202170
1202332
1202498
1202664
1202830
1203004
1203186
1203362
1203548
1203740
1203924
1204096
1204264
1204434
1204602
1204776
1204958
1205142
1205330
1205514
1205690
1205862
1206036
1206208
1206374
1206542
1206714
1206878
1207050
1207216
1207376
1207530
1207682
1207834
1207986
1208140
1208290
1208442
1208592
1208744
1208892
1209040
1209190
1209340
1209494
1209646
1209796
1209950
1210102
1210252
1210406
1210564
1210726
1210890
1211056
1211226
1211394
1211562
1211728
1211888
1212050
1212210
1212368
1212524
1212682
1212836
1212988
1213142
1213298
1213450
1213602
1213758
1213922
1214094
1214280
1214474
1214664
1214852
1215046
1215234
1215410
1215590
1215754
1215916
1216072
1216222
1216368
1216518
1216666
1216818
1216974
1217130
1217294
1217464
1217624
1217794
1217960
1218124
1218286
1218446
1218602
1218756
1218912
1219072
1219230
1219398
1219568
1219734
1219904
1220086
1220270
1220438
1220614
1220784
1220948
1221116
1221284
1221452
1221618
1221786
1221958
1222134
1222306
1222482
1222656
1222828
1222996
1223162
1223330
1223492
1223650
1223808
1223966
1224120
1224280
1224444
1224604
1224762
1224920
1225078
1225238
1225394
1225504
1225714
1225866
1226016
1226162
1226310
1226454
1226598
1226748
1226902
1227052
1227212
1227374
1227534
1227692
1227848
1228008
1228176
1228342
1228508
1228668
1228828
1228988
1229150
1229312
1229470
1229630
1229790
1229956
1230118
1230276
1230434
1230594
1230754
1230920
1231086
1231258
1231424
1231586
1231746
1231906
1232060
1232214
1232368
1232524
1232680
1232838
1232996
1233168
1233340
1233506
1233678
1233850
1234014
1234174
1234332
1234488
1234640
1234794
1234946
1235096
1235246
1235398
1235552
1235706
1235856
1236008
1236160
1236314
1236470
1236624
1236780
1236936
1237088
1237242
1237394
1237546
1237696
1237850
1238004
1238154
1238304
1238456
1238606
1238758
1238912
1239066
1239220
1239374
1239526
1239680
1239836
1239990
1240142
1240292
1240442
1240588
1240734
1240880
1241028
1241176
1241324
1241468
1241614
1241758
1241904
1242644
1242802
1242960
1243116
1243276
1243440
1243604
1243766
1243924
1244082
1244240
1244396
1244550
1244654
1244850
1244998
1245142
1245286
1245430
1245576
1245730
1245880
1246028
1246180
1246330
1246484
1246632
1246780
1246928
1247076
1247226
1247370
1247516
1247658
1247802
1247946
1248086
1248232
1248382
1248536
1248686
1248838
1248994
1249148
1249300
1249454
1249606
1249758
1249914
1250066
1250224
1250382
1250538
1250696
1250852
1251006
1251158
1251308
1251456
1251604
1251746
1251890
1252032
1252170
1252308
1252444
1252582
1252720
1252854
1252990
1253124
1253262
1253402
1253546
1253690
1253834
1253978
1254122
1254266
1254412
1254554
1254696
1254838
1254982
1255126
1255268
1255412
1255556
1255702
1255846
1255994
1256142
1256288
1256430
1256570
1256714
1256856
1256998
1257140
1257284
1257428
1257572
1257716
1257858
1258002
1258150
1258298
1258444
1258590
1258734
1258880
1259022
1259164
1259308
1259452
1259594
1259742
1259892
1260038
1260186
1260338
1260492
1260646
1260798
1260948
1261096
1261250
1261400
1261550
1261698
1261848
1261996
1262140
1262288
1262434
1262586
1262738
1262890
1263040
1263196
1263350
1263500
1263648
1263796
1263944
1264092
1264236
1264380
1264528
1264676
1264826
1264972
1265116
1265258
1265398
1265540
1265680
1265826
1265980
1266136
1266292
1266444
1266600
1266752
1266908
1267064
1267222
1267374
1267530
1267682
1267834
1267982
1268130
1268278
1268422
1268562
1268706
1268846
1268990
1269132
1269274
1269416
1269562
1269708
1269856
1270000
1270150
1270302
1270456
1270606
1270760
1270916
1271070
1271224
1271374
1271528
1271682
1271834
1271986
1272140
1272294
1272446
1272596
1272752
1272910
1273066
1273226
1273386
1273546
1273704
1273862
1274018
1274174
1274328
1274484
1274642
1274802
1274958
1275118
1275280
1275438
1275596
1275754
1275910
1276062
1276220
1276380
1276536
1276690
1276848
1277010
1277160
1277316
1277470
1277626
1277782
1277944
1278098
1278254
1278412
1278570
1278728
1278886
1279046
1279204
1279364
1279526
1279686
1279842
1279994
1280146
1280298
1280446
1280592
1280740
1280890
1281038
1281190
1281340
1281492
1281638
1281784
1281930
1282076
1282222
1282368
1282516
1282662
1282810
1282956
1283102
1283256
1283408
1283560
1283708
1283856
1284010
1284156
1284296
1284444
1284594
1284746
1284902
1285066
1285228
1285380
1285532
1285682
1285830
1285974
1286114
1286250
1286386
1286520
1286656
1286792
1286928
1287066
1287200
1287302
1287492
1287636
1287780
1287926
1288072
1288226
1288384
1288542
1288698
1288856
1289014
1289168
1289316
1289466
1289614
1289760
1289904
1290052
1290196
1290340
1290486
1290632
1290784
1290932
1291080
1291230
1291380
1291532
1291680
1291826
1291972
1292122
1292274
1292426
1292582
1292740
1292896
1293050
1293204
1293356
1293506
1293652
1293800
1293950
1294096
1294240
1294382
1294524
1294666
1294810
1294954
1295100
1295250
1295402
1295552
1295708
1295862
1296016
1296168
1296318
1296470
1296620
1296766
1296914
1297060
1297206
1297354
1297498
1297642
1297784
1297924
1298066
1298206
1298348
1298488
1298630
1298776
1298924
1299070
1299216
1299364
1299510
1299654
1299796
1299938
1300082
1300228
1300378
1300536
1300692
1300846
1301000
1301150
1301298
1301448
1301596
1302354
1302506
1302664
1302818
1302976
1303130
1303282
1303432
1303580
1303728
1303872
1304018
1304160
1304304
1304450
1304596
1304744
1304898
1305046
1305194
1305340
1305490
1305638
1305782
1305930
1306082
1306232
1306380
1306528
1306676
1306826
1306970
1307118
1307266
1307410
1307554
1307698
1307848
1307990
1308134
1308280
1308430
1308576
1308718
1308856
1308996
1309138
1309280
1309422
1309570
1309718
1309866
1310018
1310170
1310320
1310468
1310618
1310766
1310912
1311056
1311198
1311338
1311476
1311614
1311758
1311890
1312024
1312136
1312300
1312438
1312576
1312716
1312858
1313002
1313144
1313288
1313432
1313578
1313722
1313866
1314008
1314152
1314294
1314434
1314574
1314680
1314854
1314992
1315130
1315266
1315402
1315536
1315670
1315778
1315946
1316082
1316216
1316350
1316486
1316624
1316762
1316902
1317044
1317184
1317328
1317472
1317616
1317760
1317904
1318048
1318190
1318332
1318470
1318608
1318744
1318880
1318988
1319152
1319286
1319420
1319556
1319690
1319822
1319956
1320090
1320220
1320352
1320482
1320614
1320744
1320876
1321008
1321138
1321268
1321400
1321532
1321666
1321800
1321936
1322070
1322206
1322342
1322480
1322618
1322758
1322898
1323036
1323178
1323318
1323460
1323602
1323742
1323882
1324022
1324160
1324296
1324430
1324564
1324700
1324836
1324970
1325108
1325246
1325388
1325528
1325668
1325810
1325954
1326094
1326234
1326374
1326512
1326650
1326790
1326930
1327068
1327204
1327340
1327476
1327608
1327740
1327872
1328004
1328136
1328270
1328402
1328538
1328674
1328810
1328944
1329080
1329214
1329350
1329488
1329624
1329762
1329900
1330044
1330190
1330336
1330484
1330634
1330786
1330936
1331088
1331240
1331388
1331532
1331674
1331822
1331970
1332120
1332268
1332416
1332566
1332714
1332860
1333008
1333162
1333314
1333462
1333614
1333766
1333916
1334064
1334202
1334338
1334476
1334588
1334748
1334880
1335012
1335150
1335284
1335412
1335524
1335678
1335808
1335944
1336076
1336210
1336314
1336486
1336622
1336758
1336894
1337030
1337130
1337296
1337430
1337564
1337700
1337804
1337972
1338108
1338242
1338378
1338480
1338656
1338794
1338932
1339070
1339212
1339356
1339502
1339644
1339788
1339934
1340084
1340232
1340340
1340528
1340671
1340813
1340954
1341092
1341232
1341370
1341512
1341652
1341796
1341938
1342084
1342230
1342376
1342520
1342664
1342808
1342948
1343056
1343234
1343374
1343514
1343654
1343792
1343932
1344072
1344212
1344352
1344490
1344630
1344730
1344908
1345048
1345184
1345318
1345446
1345546
1345708
1345838
1345970
1346098
1346228
1346358
1346490
1346592
1346762
1346896
1347028
1347162
1347294
1347426
1347558
1347674
1347818
1347946
1348076
1348172
1348336
1348464
1348590
1348716
1348844
1348970
1349098
1349198
1349352
1349478
1349604
1349730
1349858
1349988
1350096
1350256
1350388
1350520
1350654
1350786
1350920
1351052
1351186
1351324
1351460
1351560
1351744
1351880
1352018
1352154
1352290
1352426
1352562
1352700
1352796
1352978
1353114
1353250
1353384
1353518
1353650
1353748
1353920
1354054
1354190
1354324
1354460
1354552
1354736
1354872
1355008
1355140
1355276
1355410
1355504
1355682
1355818
1355950
1356082
1356214
1356348
1356484
1356620
1356754
1356888
1357022
1357158
1357294
1357430
1357566
1357702
1357846
1357990
1358136
1358280
1358424
1358568
1358712
1358852
1358990
1359126
1359258
1359388
1359520
1359652
1359782
1359910
1360038
1360168
1360268
1360424
1360552
1360680
1360806
1360936
1361066
1361198
1361330
1361466
1361602
1361740
1361878
1362016
1362156
1362294
1362430
1362556
1362702
1362836
1362970
1363106
1363242
1363378
1363482
1363656
1363796
1363934
1364070
1364210
1364350
1364490
1364628
1364768
1364904
1365042
1365180
1365318
1365456
1365600
1365738
1365878
1366016
1366156
1366296
1366434
1366570
1366708
1366848
1366990
1367134
1367282
1367430
1367578
1367726
1367868
1368008
1368150
1368290
1368386
1368574
1368712
1368850
1368984
1369122
1369262
1369404
1369548
1369692
1369838
1369988
1370136
1370284
1370432
1370582
1370732
1370880
1371034
1371184
1371334
1371484
1371636
1371784
1371932
1372076
1372224
1372376
1372530
1372686
1372846
1373006
1373168
1373330
1373490
1373648
1373800
1373952
1374104
1374262
1374426
1374598
1374776
1374956
1375138
1375312
1375476
1375640
1375800
1375954
1376104
1376254
1376410
1376570
1376740
1376912
1377084
1377256
1377414
1377568
1377718
1377866
1378014
1378166
1378320
1378478
1378576
1378784
1378936
1379084
1379234
1379384
1379538
1379704
1379876
1380050
1380220
1380384
1380546
1380710
1380872
1381034
1381192
1381352
1381516
1381682
1381848
1382014
1382182
1382350
1382514
1382672
1382824
1382974
1383126
1383270
1383414
1383556
1383704
1383852
1384002
1384156
1384310
1384468
1384630
1384788
1384948
1385108
1385268
1385426
1385582
1385742
1385900
1386054
1386206
1386360
1386512
1386662
1386814
1386968
1387126
1387284
1387440
1387600
1387758
1387922
1388086
1388244
1388400
1388560
1388722
1388880
1389038
1389204
1389374
1389538
1389706
1389882
1390052
1390216
1390380
1390542
1390708
1390874
1391038
1391210
1391388
1391566
1391738
1391914
1392088
1392256
1392414
1392572
1392728
1392890
1393052
1393222
1393402
1393576
1393746
1393914
1394086
1394260
1394436
1394614
1394784
1394956
1395126
1395296
1395462
1395630
1395806
1395980
1396150
1396328
1396508
1396698
1396884
1397068
1397246
1397418
1397588
1397758
1397930
1398100
1398268
1398440
1398618
1398796
1398972
1399150
1399334
1399514
1399694
1399870
1400040
1400210
1400376
1400546
1400710
1400878
1401046
1401210
1401374
1401538
1401702
1401868
1402032
1402188
1402344
1402450
1402658
1402810
1402958
1403108
1403264
1403420
1403578
1403738
1403906
1404068
1404232
1404400
1404570
1404740
1404908
1405074
1405234
1405398
1405568
1405740
1405908
1406086
1406264
1406442
1406610
1406778
1406942
1407108
1407274
1407440
1407602
1407764
1407938
1408114
1408288
1408470
1408646
1408820
1408986
1409152
1409320
1409492
1409668
1409842
1410010
1410184
1410364
1410534
1410706
1410882
1411054
1411226
1411404
1411580
1411756
1411924
1412096
1412268
1412440
1412604
1412768
1412932
1413104
1413276
1413448
1413624
1413792
1413962
1414132
1414300
1414466
1414630
1414798
1414970
1415136
1415302
1415472
1415644
1415810
1415972
1416140
1416306
1416472
1416632
1416800
1416960
1417120
1417278
1417438
1417608
1417776
1417942
1418110
1418280
1418450
1418620
1418796
1418962
1419130
1419306
1419470
1419634
1419800
1419968
1420136
1420298
1420462
1420632
1420796
1420956
1421114
1421276
1421446
1421626
1421810
1422002
1422194
1422378
1422560
1422744
1422928
1423112
1423290
1423474
1423658
1423842
1424024
1424214
1424408
1424598
1424780
1424964
1425144
1425320
1425492
1425666
1425840
1426014
1426182
1426354
1426526
1426700
1426876
1427046
1427218
1427390
1427562
1427726
1427836
1428054
1428210
1428362
1428514
1428668
1428824
1428984
1429146
1429306
1429466
1429636
1429814
1429994
1430164
1430334
1430510
1430690
1430872
1431044
1431214
1431390
1431564
1431732
1431894
1432058
1432222
1432388
1432552
1432712
1432872
1433034
1433210
1433396
1433586
1433770
1433958
1434144
1434330
1434500
1434668
1434840
1435014
1435190
1435368
1435540
1435706
1435872
1436036
1436194
1436352
1436512
1436674
1436836
1436998
1437174
1437352
1437534
1437714
1437890
1438066
1438240
1438404
1438570
1438734
1438896
1439058
1439220
1439382
1439542
1439648
1439870
1440026
1440176
1440322
1440470
1440616
1440766
1440918
1441072
1441232
1441394
1441558
1441722
1441888
1442056
1442216
1442380
1442536
1442700
1442870
1443040
1443202
1443370
1443534
1443702
1443860
1444018
1444182
1444348
1444516
1444678
1444840
1445004
1445166
1445322
1445472
1445584
1445782
1445934
1446084
1446238
1446396
1446558
1446732
1446914
1447086
1447266
1447444
1447622
1447808
1447990
1448172
1448354
1448532
1448698
1448860
1449020
1449180
1449340
1449504
1449672
1449844
1450014
1450190
1450366
1450536
1450712
1450888
1451066
1451240
1451414
1451588
1451762
1451938
1452102
1452270
1452434
1452600
1452762
1452926
1453090
1453254
1453414
1453570
1453722
1453878
1454034
1454190
1454296
1454528
1454692
1454858
1455028
1455200
1455372
1455536
1455702
1455868
1456036
1456198
1456364
1456530
1456698
1456862
1457022
1457180
1457332
1457480
1457628
1457776
1457928
1458048
1458248
1458404
1458558
1458710
1458858
1459004
1459152
1459308
1459422
1459652
1459824
1460006
1460188
1460366
1460546
1460726
1460908
1461088
1461264
1461438
1461600
1461756
1461910
1462062
1462212
1462360
1462508
1462660
1462814
1462974
1463148
1463322
1463500
1463694
1463892
1464078
1464276
1464468
1464650
1464834
1465014
1465188
1465364
1465538
1465712
1465882
1466050
1466218
1466380
1466540
1466702
1466866
1467028
1467194
1467360
1467526
1467688
1467854
1468022
1468194
1468362
1468534
1468712
1468890
1469062
1469232
1469404
1469578
1469748
1469916
1470088
1470262
1470434
1470604
1470770
1470938
1471106
1471268
1471430
1471592
1471756
1471916
1472078
1472244
1472410
1472582
1472754
1472922
1473090
1473260
1473428
1473600
1473776
1473944
1474110
1474270
1474436
1474552
1474790
1474962
1475128
1475294
1475460
1475620
1475790
1475960
1476064
1476302
1476472
1476638
1476800
1476964
1477124
1477286
1477448
1477612
1477770
1477936
1478096
1478260
1478422
1478582
1478748
1478916
1479086
1479196
1479420
1479578
1479728
1479876
1480024
1480170
1480318
1480468
1480622
1480774
1480932
1481092
1481204
1481422
1481578
1481732
1481880
1482032
1482184
1482340
1482494
1482646
1482800
1482958
1483114
1483268
1483422
1483578
1483730
1483884
1484034
1484178
1484324
1484472
1484620
1484770
1484922
1485074
1485226
1485378
1485532
1485682
1485832
1485980
1486092
1486280
1486424
1486566
1486708
1486852
1487002
1487154
1487306
1487464
1487628
1487796
1487960
1488066
1488286
1488444
1488596
1488748
1488898
1489048
1489156
1489360
1489510
1489662
1489818
1489978
1490134
1490296
1490458
1490628
1490798
1490970
1491136
1491298
1491460
1491612
1491764
1491914
1492058
1492204
1492354
1492502
1492654
1492806
1492964
1493128
1493288
1493450
1493614
1493778
1493938
1494046
1494254
1494406
1494556
1494658
1494860
1495010
1495172
1495330
1495500
1495678
1495856
1496040
1496224
1496396
1496570
1496729
1496898
1497062
1497232
1497396
1497564
1497742
1497926
1498110
1498290
1498460
1498624
1498782
1498940
1499098
1499254
1499410
1499560
1499710
1499862
1500008
1500154
1500302
1500450
1500602
1500760
1500928
1501088
1501256
1501422
1501592
1501760
1501868
1502088
1502240
1502388
1502534
1502676
1502820
1502964
1503108
1503254
1503400
1503550
1503702
1503856
1504010
1504160
1504270
1504470
1504620
1504768
1504912
1505056
1505200
1505346
1505448
1505640
1505784
1505924
1506072
1506488
1506599
1506770
1506912
1507060
1507222
1507382
1507552
1507726
1507898
1508070
1508238
1508402
1508560
1508718
1508872
1509024
1509180
1509338
1509492
1509650
1509806
1509956
1510070
1510262
1510408
1510552
1510696
1510804
1510988
1511132
1511274
1511416
1511558
1511702
1511814
1511994
1512140
1512278
1512418
1512562
1512659
1512850
1512988
1513128
1513266
1513402
1513539
1513638
1513812
1513948
1514084
1514218
1514354
1514490
1514590
1514762
1514896
1515030
1515162
1515290
1515422
1515552
1515656
1515814
1515944
1516072
1516198
1516326
1516454
1516582
1516708
1516834
1516960
1517088
1517218
1517348
1517478
1517610
1517742
1517872
1518000
1518130
1518258
1518386
1518512
1518634
1518758
1518882
1518986
1519128
1519250
1519370
1519490
1519612
1519732
1519854
1519976
1520098
1520220
1520340
1520438
1520584
1520706
1520826
1520948
1521066
1521186
1521304
1521424
1521542
1521662
1521778
1521896
1521990
1522128
1522244
1522360
1522476
1522590
1522706
1522812
1522936
1523054
1523172
1523290
1523390
1523528
1523650
1523772
1523894
1524022
1524150
1524278
1524408
1524502
1524668
1524796
1524922
1525046
1525168
1525290
1525414
1525538
1525640
1525788
1525906
1526030
1526158
1526258
1526422
1526552
1526684
1526816
1526948
1527080
1527184
1527350
1527482
1527612
1527742
1527872
1527976
1528128
1528254
1528380
1528506
1528632
1528758
1528884
1529012
1529140
1529240
1529402
1529532
1529662
1529794
1529926
1530056
1530158
1530328
1530464
1530596
1530728
1530860
1530994
1531128
1531236
1531390
1531520
1531650
1531780
1531910
1532006
1532168
1532298
1532426
1532558
1532692
1532830
1532968
1533110
1533254
1533398
1533542
1533686
1533828
1533970
1534112
1534252
1534388
1534524
1534658
1534794
1534932
1535070
1535210
1535350
1535494
1535640
1535782
1535920
1536058
1536194
1536290
1536462
1536594
1536726
1536856
1536986
1537114
1537244
1537374
1537507
1537593
1537764
1537892
1538020
1538148
1538280
1538412
1538548
1538688
1538832
1538992
1539158
1539320
1539482
1539642
1539802
1539956
1540110
1540260
1540402
1540544
1540688
1540826
1540962
1541100
1541222
1541378
1541514
1541652
1541788
1541924
1542062
1542204
1542346
1542488
1542638
1542794
1542944
1543094
1543244
1543394
1543542
1543688
1543832
1543978
1544118
1544260
1544372
1544550
1544692
1544834
1544976
1545120
1545264
1545404
1545548
1545696
1545842
1545990
1546142
1546294
1546442
1546590
1546736
1546880
1547022
1547166
1547310
1547450
1547552
1547730
1547868
1548004
1548138
1548272
1548404
1548540
1548676
1548812
1548948
1549084
1549220
1549352
1549500
1549638
1549748
1549912
1550046
1550178
1550310
1550444
1550576
1550708
1550838
1550972
1551104
1551238
1551328
1551502
1551634
1551764
1551894
1552024
1552126
1552280
1552406
1552534
1552654
1552790
1552922
1553054
1553186
1553292
1553460
1553596
1553730
1553864
1553996
1554092
1554264
1554396
1554526
1554654
1554782
1554880
1555040
1555168
1555296
1555424
1555552
1555684
1555820
1555954
1556092
1556232
1556370
1556457
1556654
1556792
1556926
1557058
1557192
1557330
1557458
1557594
1557730
1557868
1558004
1558144
1558286
1558379
1558569
1558706
1558842
1558976
1559112
1559250
1559388
1559514
1559662
1559804
1559948
1560046
1560234
1560374
1560512
1560648
1560782
1560914
1561016
1561180
1561314
1561444
1561574
1561704
1561834
1561962
1562098
1562238
1562382
1562524
1562672
1562820
1562968
1563114
1563260
1563404
1563548
1563690
1563834
1563978
1564120
1564980
1565114
1565254
1565388
1565530
1565670
1565772
1565952
1566090
1566228
1566364
1566502
1566638
1566778
1566918
1567018
1567210
1567348
1567486
1567626
1567762
1567896
1568032
1568168
1568306
1568448
1568590
1568730
1568872
1569018
1569170
1569330
1569490
1569642
1569796
1569948
1570100
1570248
1570398
1570546
1570700
1570852
1570998
1571144
1571254
1571434
1571580
1571734
1571882
1572034
1572188
1572338
1572494
1572650
1572810
1572964
1573118
1573272
1573424
1573574
1573724
1573868
1574010
1574152
1574292
1574434
1574574
1574716
1574862
1575010
1575158
1575304
1575446
1575590
1575732
1575874
1576014
1576156
1576300
1576408
1576588
1576730
1576866
1577004
1577144
1577280
1577420
1577558
1577698
1577806
1577988
1578130
1578274
1578420
1578568
1578718
1578870
1579018
1579166
1579312
1579458
1579556
1579748
1579886
1580022
1580156
1580290
1580424
1580560
1580696
1580812
1580974
1581110
1581250
1581392
1581500
1581682
1581822
1581962
1582106
1582254
1582358
1582566
1582714
1582862
1583014
1583168
1583322
1583478
1583640
1583795
1583945
1584108
1584266
1584428
1584590
1584754
1584912
1585060
1585210
1585358
1585506
1585652
1585798
1585944
1586086
1586232
1586378
1586520
1586662
1586804
1586950
1587052
1587248
1587390
1587530
1587670
1587812
1587958
1588102
1588246
1588404
1588564
1588722
1588878
1589040
1589200
1589360
1589518
1589674
1589828
1589978
1590128
1590278
1590430
1590578
1590726
1590872
1591018
1591162
1591304
1591404
1591590
1591730
1591868
1592008
1592150
1592292
1592434
1592582
1592688
1592892
1593036
1593182
1593328
1593476
1593582
1593780
1593928
1594074
1594220
1594366
1594518
1594620
1594828
1594978
1595128
1595272
1595414
1595514
1595700
1595840
1595978
1596120
1596258
1596400
1596512
1596704
1596850
1597000
1597152
1597308
1597404
1597628
1597776
1597926
1598078
1598232
1598388
1598546
1598710
1598870
1599032
1599194
1599360
1599522
1599688
1599856
1600020
1600182
1600346
1600510
1600674
1600832
1600990
1601148
1601304
1601460
1601618
1601774
1601892
1602088
1602240
1602388
1602534
1602638
1602838
1602990
1603144
1603298
1603450
1603604
1603758
1603916
1604072
1604224
1604374
1604526
1604674
1604824
1604922
1605122
1605268
1605412
1605556
1605698
1605840
1605984
1606132
1606234
1606432
1606578
1606724
1606870
1606980
1607168
1607314
1607462
1607608
1607758
1607912
1608022
1608232
1608384
1608546
1608708
1608864
1609026
1609186
1609342
1609496
1609650
1609760
1609952
1610100
1610244
1610386
1610498
1610664
1610806
1610944
1611084
1611222
1611360
1611500
1611602
1611796
1611940
1612082
1612222
1612364
1612510
1612656
1612764
1612948
1613088
1613228
1613366
1613468
1613644
1613782
1613918
1614056
1614158
1614344
1614486
1614626
1614768
1614912
1615060
1615218
1615378
1615544
1615706
1615870
1616030
1616190
1616344
1616494
1616640
1616790
1616938
1617088
1617244
1617408
1617568
1617738
1617912
1618090
1618266
1618442
1618614
1618780
1618944
1619108
1619264
1619422
1619576
1619728
1619882
1620036
1620186
1620344
1620508
1620682
1620854
1621034
1621208
1621378
1621544
1621730
1621914
1622098
1622284
1622458
1622630
1622804
1622976
1623144
1623306
1623470
1623638
1623806
1623968
1624132
1624302
1624478
1624652
1624834
1625012
1625184
1625356
1625530
1625700
1625868
1626040
1626210
1626374
1626536
1626694
1626852
1627002
1627152
1627302
1627454
1627558
1627762
1627912
1628060
1628206
1628352
1628502
1628652
1628802
1628954
1629110
1629266
1629418
1629568
1629676
1629880
1630026
1630174
1630324
1630480
1630654
1630828
1630996
1631162
1631332
1631504
1631678
1631852
1632024
1632188
1632344
1632502
1632658
1632818
1632976
1633136
1633294
1633450
1633606
1633764
1633926
1634088
1634252
1634414
1634568
1634726
1634880
1634986
1635188
1635338
1635488
1635640
1635794
1635952
1636114
1636286
1636458
1636634
1636814
1636994
1637166
1637340
1637510
1637680
1637848
1638014
1638180
1638338
1638498
1638662
1638832
1638998
1639160
1639326
1639492
1639596
1639826
1639984
1640142
1640298
1640452
1640600
1640746
1640894
1641044
1641198
1641358
1641516
1641682
1641846
1642016
1642188
1642350
1642508
1642666
1642822
1642930
1643134
1643282
1643430
1643580
1643736
1643884
1644036
1644192
1644358
1644534
1644720
1644908
1645092
1645272
1645442
1645608
1645766
1645922
1646078
1646240
1646404
1646570
1646738
1646898
1647064
1647232
1647398
1647564
1647734
1647908
1648070
1648234
1648398
1648560
1648720
1648880
1649046
1649214
1649388
1649560
1649732
1649898
1650064
1650224
1650380
1650536
1650690
1650802
1651006
1651160
1651314
1651472
1651636
1651800
1651966
1652138
1652312
1652476
1652640
1652812
1652984
1653160
1653332
1653500
1653668
1653832
1653994
1654154
1654312
1654466
1654616
1654762
1654904
1655048
1655190
1655338
1655490
1655640
1655786
1655930
1656074
1656220
1656364
1656510
1656652
1656794
1656938
1657080
1657224
1657368
1657508
1657656
1657806
1657962
1658118
1658274
1658430
1658590
1658748
1658902
1659052
1659202
1659344
1659486
1659626
1659768
1659912
1660060
1660208
1660356
1660510
1660668
1660832
1661000
1661170
1661330
1661484
1661634
1661784
1661926
1662068
1662210
1662316
1662516
1662668
1662828
1662988
1663148
1663304
1663460
1663614
1663768
1663918
1664022
1664224
1664372
1664518
1664668
1664822
1664984
1665152
1665316
1665480
1665640
1665794
1665950
1666106
1666264
1666426
1666592
1666758
1666920
1667074
1667226
1667376
1667526
1667678
1667836
1667998
1668168
1668348
1668520
1668700
1668886
1669072
1669260
1669442
1669620
1669786
1669948
1670106
1670270
1670446
1670614
1670786
1670960
1671140
1671322
1671504
1671674
1671842
1672010
1672180
1672358
1672542
1672736
1672926
1673114
1673298
1673468
1673638
1673810
1673986
1674152
1674324
1674504
1674686
1674868
1675044
1675224
1675400
1675570
1675736
1675894
1676050
1676204
1676360
1676510
1676664
1676826
1676996
1677178
1677364
1677546
1677724
1677904
1678072
1678230
1678388
1678542
1678690
1678838
1678988
1679150
1679308
1679468
1679638
1679810
1679982
1680156
1680332
1680512
1680686
1680858
1681032
1681206
1681378
1681546
1681710
1681880
1682046
1682208
1682374
1682548
1682722
1682894
1683072
1683248
1683420
1683586
1683744
1683912
1684086
1684264
1684434
1684596
1684706
1684928
1685080
1685230
1685378
1685528
1685678
1685828
1685938
1686132
1686282
1686434
1686594
1686754
1686916
1687086
1687264
1687450
1687640
1687826
1688016
1688200
1688376
1688546
1688708
1688866
1689022
1689174
1689332
1689500
1689670
1689838
1690012
1690184
1690356
1690526
1690694
1690862
1691024
1691190
1691354
1691516
1691626
1691844
1692004
1692162
1692318
1692476
1692640
1692808
1692980
1693150
1693322
1693498
1693682
1693866
1694056
1694238
1694406
1694570
1694728
1694886
1695042
1695200
1695358
1695512
1695668
1695830
1695996
1696166
1696340
1696520
1696696
1696874
1697050
1697224
1697396
1697564
1697738
1697918
1698106
1698286
1698470
1698654
1698836
1699024
1699216
1699400
1699582
1699760
1699934
1700108
1700266
1700432
1700598
1700766
1700932
1701102
1701268
1701434
1701594
1701754
1701910
1702064
1702216
1702366
1702520
1702672
1702830
1702988
1703146
1703310
1703482
1703650
1703820
1703988
1704142
1704298
1704450
1704602
1704754
1704904
1705056
1705214
1705376
1705548
1705726
1705906
1706090
1706274
1706458
1706636
1706812
1706990
1707170
1707350
1707534
1707716
1707906
1708096
1708278
1708462
1708642
1708820
1708990
1709166
1709348
1709522
1709690
1709858
1710024
1710188
1710352
1710518
1710694
1710876
1711062
1711252
1711442
1711634
1711822
1712006
1712186
1712364
1712540
1712710
1712878
1713046
1713212
1713370
1713528
1713684
1713844
1714002
1714162
1714320
1714482
1714650
1714812
1714976
1715140
1715308
1715480
1715656
1715840
1716026
1716206
1716388
1716570
1716750
1716926
1717102
1717274
1717450
1717622
1717794
1717966
1718128
1718290
1718444
1718594
1718742
1718890
1719040
1719198
1719376
1719562
1719752
1719952
1720156
1720362
1720566
1720766
1720958
1721138
1721310
1721472
1721626
1721780
1721934
1722094
1722262
1722438
1722620
1722792
1722960
1723132
1723302
1723476
1723646
1723814
1723976
1724140
1724304
1724470
1724632
1724788
1724946
1725100
1725258
1725416
1725576
1725746
1725924
1726110
1726300
1726496
1726694
1726890
1727086
1727270
1727452
1727632
1727808
1727978
1728146
1728308
1728468
1728622
1728774
1728922
1729070
1729208
1729350
1729488
1729626
1729766
1729906
1730054
1730220
1730400
1730588
1730786
1730984
1731188
1731386
1731580
1731768
1731944
1732112
1732274
1732432
1732592
1732754
1732924
1733098
1733272
1733448
1733624
1733802
1733986
1734156
1734332
1734506
1734680
1734842
1735006
1735166
1735324
1735474
1735624
1735772
1735924
1736080
1736244
1736422
1736600
1736784
1736978
1737166
1737348
1737522
1737686
1737842
1737992
1738138
1738286
1738450
1738624
1738810
1739002
1739194
1739388
1739582
1739770
1739956
1740132
1740302
1740466
1740630
1740798
1740962
1741136
1741320
1741514
1741704
1741896
1742072
1742252
1742428
1742600
1742772
1742942
1743114
1743286
1743456
1743626
1743786
1743946
1744104
1744264
1744426
1744590
1744750
1744910
1745074
1745248
1745424
1745606
1745792
1745970
1746148
1746326
1746496
1746662
1746820
1746970
1747120
1747270
1747430
1747594
1747778
1747946
1748116
1748284
1748446
1748610
1748772
1748932
1749092
1749204
1749418
1749580
1749740
1749898
1750060
1750224
1750394
1750554
1750716
1750880
1751042
1751202
1751354
1751508
1751666
1751824
1751990
1752176
1752360
1752550
1752750
1752940
1753130
1753310
1753478
1753644
1753808
1753968
1754126
1754286
1754442
1754598
1754754
1754904
1755054
1755202
1755346
1755488
1755630
1755770
1755908
1756048
1756188
1756334
1756490
1756656
1756824
1756984
1757140
1757300
1757458
1757616
1757786
1757956
1758124
1758292
1758460
1758620
1758774
1758926
1759078
1759234
1759398
1759576
1759752
1759940
1760124
1760316
1760496
1760678
1760858
1761032
1761198
1761368
1761536
1761704
1761874
1762040
1762200
1762358
1762514
1762670
1762832
1762996
1763160
1763326
1763484
1763644
1763806
1763972
1764144
1764316
1764492
1764670
1764848
1765018
1765190
1765362
1765532
1765698
1765866
1766038
1766210
1766382
1766550
1766718
1766888
1767062
1767230
1767398
1767562
1767722
1767880
1768030
1768184
1768342
1768514
1768692
1768800
1769040
1769214
1769394
1769560
1769726
1769844
1770068
1770228
1770394
1770566
1770746
1770916
1771100
1771288
1771474
1771658
1771844
1772022
1772192
1772362
1772526
1772688
1772848
1773004
1773162
1773312
1773466
1773618
1773766
1773916
1774068
1774220
1774380
1774550
1774726
1774910
1775090
1775198
1775422
1775582
1775732
1775880
1776026
1776176
1776340
1776510
1776690
1776862
1777054
1777248
1777442
1777638
1777824
1778012
1778190
1778364
1778544
1778718
1778888
1779056
1779226
1779400
1779564
1779728
1779880
1780036
1780190
1780348
1780458
1780676
1780838
1781002
1781166
1781330
1781498
1781684
1781872
1782054
1782246
1782452
1782658
1782864
1783062
1783250
1783438
1783618
1783794
1783970
1784144
1784324
1784506
1784682
1784866
1785056
1785244
1785428
1785610
1785794
1785974
1786148
1786316
1786488
1786666
1786852
1787030
1787218
1787408
1787596
1787780
1787956
1788130
1788298
1788466
1788628
1788792
1788956
1789130
1789298
1789460
1789622
1789780
1789940
1790106
1790284
1790468
1790658
1790850
1791046
1791234
1791412
1791592
1791766
1791938
1792112
1792290
1792480
1792658
1792840
1792948
1793184
1793344
1793502
1793660
1793814
1793970
1794132
1794306
1794488
1794668
1794846
1795020
1795188
1795360
1795534
1795712
1795882
1796058
1796242
1796420
1796600
1796768
1796936
1797098
1797264
1797436
1797600
1797764
1797930
1798110
1798282
1798456
1798618
1798778
1798938
1799096
1799252
1799416
1799578
1799750
1799934
