peaks
53
276
501
742
972
1202
1434
1664
1894
2124
2354
2584
2810
3036
3262
3490
3714
3940
4166
4392
4618
4842
5070
5296
5524
5752
5978
6204
6430
6656
6880
7106
7332
7558
7786
7976
8234
8462
8688
8914
9140
9370
9596
9826
10054
10282
10510
10738
10966
11194
11424
11650
11876
12104
12332
12562
12788
13016
13244
13472
13700
13928
14154
14380
14610
14838
15064
15292
15518
15748
15974
16202
16434
16666
16896
17126
17356
17586
17816
18046
18276
18504
18736
18966
19196
19428
19658
19890
20118
20352
20584
20816
21048
21280
21512
21740
21970
22200
22426
22656
22886
23116
23344
23574
23802
24030
24256
24486
24714
24942
25172
25400
25632
25864
26096
26328
26558
26788
27016
27246
27474
27702
27930
28156
28384
28612
28838
29072
29302
29530
29758
29986
30214
30442
30668
30898
31126
31354
31582
31812
32040
32268
32496
32724
32952
33180
33406
33632
33858
34084
34312
34538
34768
34994
35222
35450
35678
35908
36136
36362
36590
36816
37040
37264
37490
37714
37938
38164
38388
38614
38838
39064
39288
39512
39738
39964
40186
40410
40634
40858
41082
41306
41534
41760
41986
42216
42442
42672
42898
43124
43350
43576
43802
44026
44252
44476
44702
44930
45156
45384
45612
45838
46066
46290
46516
46740
46962
47184
47406
47628
47848
48072
48294
48516
48740
48964
49188
49412
49636
49862
50086
50310
50536
50760
50988
51212
51440
51666
51890
52116
52338
52562
52786
53008
53230
53452
53674
53896
54120
54344
54568
54796
55022
55248
55480
55708
55936
56164
56392
56622
56848
57078
57306
57536
57764
57994
58222
58448
58678
58906
59134
59364
59592
59820
60048
60276
60508
60736
60966
61198
61426
61656
61886
62114
62344
62574
62800
63026
63252
63478
63706
63932
64160
64388
64614
64842
65070
65298
65528
65758
65986
66214
66442
66670
66896
67120
67346
67570
67794
68022
68248
68474
68702
68930
69156
69382
69610
69836
70064
70290
70516
70742
70968
71194
71420
71646
71872
72096
72318
72542
72766
72988
73212
73438
73664
73890
74116
74342
74568
74794
75020
75246
75472
75698
75924
76148
76374
76598
76822
77046
77272
77498
77724
77952
78178
78408
78634
78862
79090
79318
79544
79770
79996
80222
80448
80674
80898
81122
81346
81568
81790
82012
82232
82454
82674
82896
83118
83340
83564
83786
84010
84232
84454
84678
84900
85122
85344
85566
85788
86012
86234
86456
86682
86906
87132
87360
87586
87814
88042
88266
88492
88718
88944
89168
89394
89620
89848
90074
90298
90526
90752
90980
91208
91436
91666
91894
92122
92350
92578
92804
93030
93254
93480
93706
93930
94156
94380
94606
94832
95056
95280
95506
95728
95952
96174
96396
96618
96840
97060
97282
97502
97722
97944
98166
98388
98610
98830
99052
99274
99496
99720
99946
100170
100394
100616
100840
101064
101288
101512
101742
101968
102196
102422
102648
102878
103106
103332
103562
103786
104012
104238
104464
104690
104918
105146
105372
105598
105824
106052
106276
106498
106724
106950
107176
107404
107632
107860
108090
108318
108546
108776
109002
109228
109452
109678
109902
110128
110352
110578
110804
111030
111254
111480
111704
111928
112152
112376
112600
112824
113050
113272
113496
113720
113944
114166
114390
114612
114836
115058
115280
115502
115724
115946
116168
116390
116614
116836
117062
117286
117510
117736
117960
118186
118410
118636
118862
119086
119310
119534
119758
119980
120206
120432
120658
120882
121106
121328
121548
121772
121994
122216
122438
122662
122890
123118
123344
123570
123796
124020
124244
124466
124690
124912
125134
125358
125580
125802
126024
126246
126470
126690
126910
127132
127352
127570
127792
128014
128238
128462
128688
128914
129142
129368
129596
129820
130044
130272
130500
130728
130958
131186
131416
131646
131874
132102
132328
132554
132778
133002
133228
133454
133680
133910
134138
134366
134596
134824
135052
135278
135502
135726
135950
136174
136398
136622
136848
137072
137296
137522
137746
137970
138196
138420
138644
138868
139090
139318
139540
139764
139988
140212
140436
140660
140884
141106
141328
141550
141770
141992
142212
142432
142654
142876
143096
143316
143536
143754
143974
144194
144414
144636
144856
145082
145304
145528
145754
145980
146202
146428
146652
146876
147100
147326
147550
147776
148002
148226
148452
148678
148904
149130
149358
149582
149808
150032
150254
150476
150702
150928
151152
151378
151602
151828
152052
152278
152504
152728
152954
153178
153402
153626
153850
154074
154298
154522
154746
154970
155194
155418
155642
155868
156092
156316
156542
156770
156996
157222
157448
157670
157894
158118
158340
158564
158788
159012
159238
159462
159686
159910
160136
160358
160580
160802
161024
161246
161468
161692
161916
162142
162364
162588
162810
163030
163250
163468
163684
163894
164111
164328
164539
164666
164960
165184
165396
165600
165804
166002
166192
166386
166576
166762
166948
167132
167314
167494
167680
167864
168054
168246
168442
168638
168834
169032
169224
169426
169626
169824
170024
170222
170422
170620
170822
171024
171230
171438
171650
171862
172072
172284
172494
172704
172912
173120
173332
173544
173754
173964
174178
174390
174606
174818
175034
175250
175464
175678
175892
176106
176320
176534
176752
176970
177192
177408
177628
177848
178066
178284
178496
178712
178924
179132
179340
179550
179764
179974
180186
180398
180614
180832
181044
181258
181469
181692
181906
182124
182342
182560
182780
183000
183220
183444
183666
183888
184108
184320
184536
184750
184966
185178
185390
185600
185812
186022
186234
186448
186664
186880
187100
187320
187542
187762
187980
188200
188420
188638
188858
189078
189294
189510
189728
189948
190166
190384
190604
190824
191040
191260
191478
191694
191912
192128
192346
192564
192784
193006
193228
193448
193668
193888
194110
194328
194546
194764
194982
195200
195418
195638
195854
196068
196282
196494
196699
196908
197032
197314
197508
197696
197884
198070
198254
198440
198624
198804
198986
199172
199358
199546
199732
199920
200102
200292
200482
200672
200866
201064
201262
201458
201650
201846
202046
202244
202446
202644
202844
203042
203238
203436
203640
203840
204040
204242
204440
204640
204838
205038
205236
205434
205626
205822
206018
206212
206406
206596
206782
206972
207162
207352
207542
207730
207920
208110
208300
208488
208670
208854
209038
209222
209408
209590
209776
209966
210156
210348
210540
210732
210926
211118
211310
211500
211690
211874
212062
212246
212430
212616
212802
212990
213180
213370
213564
213760
213958
214158
214358
214554
214756
214956
215152
215348
215542
215736
215930
216122
216312
216502
216694
216886
217082
217274
217470
217664
217858
218052
218246
218438
218630
218822
219012
219206
219398
219590
219782
219976
220170
220364
220556
220750
220946
221138
221332
221524
221718
221910
222102
222294
222486
222678
222868
223060
223254
223446
223638
223830
224022
224216
224410
224602
224794
224988
225178
225368
225560
225752
225944
226134
226328
226522
226714
226906
227100
227294
227490
227684
227880
228072
228264
228454
228638
228824
229010
229196
229382
229570
229766
229958
230156
230356
230554
230748
230942
231132
231324
231514
231704
231894
232086
232280
232474
232668
232864
233060
233256
233450
233644
233836
234028
234220
234414
234608
234802
235000
235196
235396
235592
235792
235994
236194
236392
236588
236780
236976
237170
237362
237554
237750
237946
238148
238348
238550
238756
238964
239170
239378
239582
239786
239988
240190
240386
240584
240782
240978
241182
241390
241596
241806
242018
242228
242438
242650
242858
243066
243274
243482
243684
243886
244094
244300
244504
244708
244910
245118
245322
245524
245728
245930
246134
246338
246542
246744
246948
247150
247354
247562
247770
247974
248182
248390
248598
248804
249012
249216
249418
249618
249818
250018
250212
250404
250596
250792
250992
251190
251388
251586
251786
251986
252186
252386
252584
252780
252974
253170
253366
253560
253758
253956
254160
254362
254562
254764
254968
255172
255374
255578
255780
255980
256176
256372
256568
256764
256960
257154
257346
257538
257734
257926
258122
258320
258518
258718
258914
259114
259310
259508
259704
259900
260098
260292
260486
260680
260874
261068
261264
261460
261656
261850
262042
262234
262426
262542
262808
263000
263188
263376
263564
263748
263936
264122
264310
264498
264690
264878
265066
265254
265442
265630
265816
266002
266188
266374
266558
266744
266930
267114
267302
267486
267674
267864
268052
268238
268428
268614
268802
268994
269186
269380
269578
269772
269964
270156
270348
270542
270730
270920
271110
271298
271484
271670
271858
272046
272238
272428
272616
272810
273002
273196
273388
273582
273772
273962
274148
274334
274516
274702
274886
275066
275250
275434
275620
275804
275990
276180
276368
276556
276744
276934
277124
277314
277506
277694
277884
278072
278258
278448
278638
278824
279012
279198
279386
279572
279760
279946
280132
280324
280514
280708
280900
281094
281286
281480
281676
281872
282068
282264
282458
282652
282848
283042
283234
283428
283618
283810
284004
284198
284390
284584
284776
284970
285162
285356
285548
285742
285936
286130
286324
286516
286706
286896
287084
287272
287458
287644
287830
288014
288200
288390
288580
288772
288962
289156
289350
289542
289732
289922
290112
290300
290486
290674
290862
291052
291242
291432
291622
291812
292002
292190
292378
292564
292756
292944
293132
293322
293512
293700
293888
294076
294264
294452
294638
294824
295010
295196
295380
295566
295752
295938
296124
296308
296496
296684
296872
297054
297242
297426
297608
297792
297972
298154
298334
298516
298702
298886
299074
299260
299446
299634
299818
300006
300190
300374
300560
300742
300924
301104
301286
301470
301654
301838
302020
302206
302392
302580
302770
302956
303148
303334
303522
303710
303898
304084
304272
304458
304646
304832
305018
305206
305392
305578
305762
305946
306130
306314
306496
306680
306864
307048
307232
307416
307600
307782
307966
308150
308338
308522
308708
308894
309080
309266
309452
309638
309824
310012
310198
310380
310564
310746
310930
311112
311296
311478
311664
311848
312036
312224
312412
312600
312788
312976
313162
313348
313534
313722
313908
314096
314282
314468
314656
314844
315030
315218
315404
315588
315774
315958
316144
316330
316518
316702
316886
317074
317260
317448
317634
317824
318012
318202
318390
318584
318776
318970
319164
319360
319558
319756
319954
320152
320348
320544
320736
320928
321116
321302
321486
321670
321854
322038
322226
322410
322596
322784
322970
323156
323344
323530
323718
323904
324092
324280
324466
324654
324844
325036
325238
325440
325640
325844
326052
326264
326476
326692
326906
327120
327332
327542
327752
327958
328162
328364
328562
328760
328954
329148
329340
329532
329724
329916
330108
330300
330492
330682
330874
331062
331248
331430
331616
331800
331986
332168
332352
332540
332722
332908
333094
333284
333466
333648
333834
334022
334212
334400
334588
334776
334968
335160
335352
335542
335736
335930
336122
336312
336506
336698
336890
337084
337280
337476
337674
337870
338066
338262
338458
338654
338848
339042
339234
339422
339608
339794
339976
340160
340344
340528
340718
340902
341090
341278
341468
341658
341848
342040
342232
342424
342616
342810
343002
343194
343384
343576
343766
343954
344140
344324
344506
344694
344872
345054
345238
345422
345602
345784
345966
346144
346326
346508
346684
346866
347044
347222
347402
347582
347762
347944
348124
348306
348488
348670
348854
349036
349216
349398
349580
349760
349944
350124
350306
350486
350664
350846
351034
351220
351408
351598
351786
351978
352170
352360
352550
352740
352930
353116
353304
353494
353678
353862
354046
354234
354422
354608
354798
354986
355170
355358
355544
355728
355912
356098
356284
356470
356656
356846
357034
357222
357408
357596
357784
357970
358156
358340
358522
358706
358892
359072
359256
359440
359620
359802
359988
360174
360360
360546
360732
360920
361108
361296
361482
361668
361854
362040
362226
362410
362594
362782
362966
363152
363338
363524
363708
363892
364078
364264
364450
364632
364818
365008
365202
365396
365588
365780
365974
366164
366354
366542
366730
366920
367108
367298
367488
367678
367868
368058
368248
368440
368634
368826
369020
369218
369414
369614
369814
370016
370218
370420
370620
370824
371024
371220
371420
371616
371814
372010
372208
372408
372606
372802
372996
373190
373384
373580
373770
373966
374162
374358
374556
374758
374958
375160
375360
375558
375758
375960
376156
376358
376558
376758
376958
377158
377356
377556
377754
377950
378146
378342
378536
378736
378938
379138
379338
379540
379738
379938
380134
380330
380526
380722
380918
381114
381310
381508
381706
381904
382104
382302
382498
382696
382894
383090
383288
383490
383688
383888
384090
384292
384494
384696
384902
385102
385304
385506
385706
385904
386106
386302
386498
386696
386896
387098
387296
387496
387698
387900
388100
388300
388500
388700
388900
389100
389300
389500
389702
389904
390104
390308
390510
390712
390912
391112
391314
391512
391712
391910
392112
392312
392514
392716
392916
393112
393310
393508
393700
393890
394076
394264
394454
394642
394822
395010
395194
395380
395564
395742
395918
396098
396276
396454
396634
396814
396994
397178
397370
397562
397756
397948
398140
398332
398524
398720
398916
399112
399312
399516
399720
399920
400122
400326
400528
400734
400942
401150
401362
401572
401782
401990
402200
402410
402618
402826
403028
403236
403442
403646
403856
404066
404274
404484
404696
404910
405130
405346
405564
405780
405992
406206
406420
406634
406850
407064
407276
407486
407698
407906
408114
408322
408530
408736
408944
409150
409352
409554
409756
409952
410156
410354
410554
410756
410962
411172
411382
411594
411806
412020
412232
412446
412658
412870
413080
413292
413504
413718
413932
414152
414364
414582
414800
415018
415236
415452
415670
415886
416102
416320
416538
416754
416972
417194
417418
417642
417868
418096
418326
418552
418778
418998
419218
419436
419652
419874
420088
420302
420520
420734
420944
421160
421378
421590
421808
422028
422246
422466
422686
422908
423124
423344
423570
423792
424012
424232
424456
424682
424908
425130
425358
425582
425804
426030
426254
426476
426700
426924
427146
427366
427568
427750
427934
428116
428256
428460
428670
428880
429088
429304
429518
429730
429944
430160
430378
430596
430812
431028
431246
431458
431672
431882
432094
432304
432512
432722
432930
433140
433352
433568
433784
433994
434208
434420
434632
434840
435052
435264
435476
435692
435902
436116
436334
436550
436770
436986
437204
437422
437640
437856
438072
438292
438510
438730
438948
439164
439380
439592
439806
440022
440232
440446
440658
440870
441082
441290
441500
441706
441910
442122
442330
442542
442752
442962
443174
443388
443602
443816
444030
444246
444460
444676
444892
445106
445320
445530
445746
445958
446170
446384
446596
446808
447020
447234
447442
447654
447862
448072
448282
448488
448696
448902
449110
449316
449524
449730
449940
450146
450356
450566
450774
450982
451190
451398
451608
451812
452018
452224
452430
452634
452842
453050
453258
453468
453676
453886
454094
454304
454510
454714
454922
455126
455330
455538
455744
455950
456158
456368
456574
456782
456988
457196
457402
457612
457816
458028
458234
458442
458646
458854
459064
459274
459482
459690
459896
460106
460314
460522
460726
460932
461136
461344
461548
461754
461962
462170
462380
462592
462806
463022
463234
463448
463664
463876
464090
464302
464514
464726
464936
465150
465362
465578
465790
466006
466222
466438
466654
466872
467086
467304
467518
467736
467950
468166
468382
468600
468816
469030
469244
469458
469670
469880
470092
470302
470514
470724
470936
471148
471360
471572
471786
471996
472206
472416
472626
472836
473044
473254
473462
473672
473878
474088
474294
474500
474704
474906
475108
475312
475514
475720
475924
476124
476326
476526
476728
476928
477126
477322
477522
477720
477920
478120
478320
478522
478724
478924
479128
479332
479534
479738
479940
480142
480344
480544
480742
480942
481136
481328
481522
481714
481908
482104
482302
482500
482702
482908
483114
483322
483530
483740
483956
484168
484380
484594
484806
485018
485228
485436
485646
485854
486060
486264
486470
486674
486880
487086
487290
487496
487702
487906
488112
488318
488522
488726
488932
489134
489336
489540
489742
489942
490142
490340
490536
490732
490924
491118
491304
491496
491686
491874
492064
492256
492448
492648
492848
493048
493250
493454
493654
493856
494056
494256
494458
494658
494860
495064
495266
495468
495674
495876
496082
496288
496490
496692
496892
497094
497292
497490
497690
497888
498086
498284
498482
498680
498880
499076
499274
499472
499672
499866
500064
500264
500460
500658
500856
501054
501254
501452
501648
501848
502044
502240
502434
502632
502828
503024
503220
503418
503614
503814
504010
504208
504406
504602
504798
504994
505192
505386
505582
505778
505978
506180
506378
506578
506780
506980
507176
507367
507559
507743
507926
508113
508296
508475
508658
508842
509028
509214
509404
509600
509798
510002
510206
510412
510620
510822
511024
511226
511430
511636
511840
512046
512250
512454
512660
512864
513070
513276
513480
513684
513888
514094
514298
514502
514708
514912
515116
515320
515524
515726
515930
516134
516336
516540
516742
516942
517144
517346
517546
517748
517952
518154
518360
518564
518768
518976
519180
519386
519592
519798
520004
520210
520414
520618
520822
521024
521228
521432
521636
521842
522046
522250
522456
522660
522866
523070
523276
523480
523684
523888
524092
524296
524500
524704
524908
525112
525316
525520
525724
525928
526134
526342
526550
526758
526964
527174
527382
527588
527796
528004
528210
528416
528618
528822
529022
529224
529422
529622
529822
530022
530222
530422
530622
530820
531018
531218
531416
531616
531818
532020
532218
532420
532622
532824
533026
533230
533432
533636
533840
534042
534248
534452
534654
534858
535062
535266
535472
535676
535882
536088
536294
536498
536704
536908
537112
537316
537520
537724
537930
538134
538340
538546
538752
538956
539164
539368
539572
539778
539986
540190
540398
540604
540814
541020
541228
541436
541644
541852
542058
542266
542472
542680
542886
543094
543302
543512
543718
543928
544136
544346
544554
544762
544968
545176
545380
545588
545794
546000
546206
546414
546622
546832
547040
547250
547460
547670
547878
548088
548298
548508
548718
548930
549142
549352
549564
549778
549990
550202
550414
550628
550840
551052
551266
551478
551690
551902
552114
552326
552538
552750
552962
553176
553386
553598
553810
554020
554230
554438
554648
554856
555064
555272
555482
555690
555898
556106
556314
556522
556728
556932
557138
557344
557550
557754
557964
558172
558380
558588
558798
559004
559212
559416
559620
559822
560024
560226
560428
560630
560830
561034
561240
561444
561650
561858
562064
562270
562474
562680
562886
563090
563294
563498
563702
563906
564112
564318
564524
564728
564932
565138
565342
565546
565752
565958
566164
566372
566578
566788
566994
567202
567414
567624
567836
568048
568260
568474
568686
568900
569114
569328
569542
569758
569972
570188
570406
570622
570840
571058
571274
571490
571708
571924
572138
572354
572570
572784
572998
573216
573430
573648
573866
574084
574304
574522
574742
574962
575180
575398
575616
575836
576056
576274
576494
576714
576932
577152
577374
577594
577816
578038
578260
578482
578702
578924
579146
579368
579590
579812
580034
580254
580474
580696
580916
581138
581364
581582
581800
582018
582236
582454
582672
582890
583108
583326
583544
583764
583980
584198
584416
584634
584852
585068
585284
585500
585716
585932
586150
586368
586586
586802
587022
587240
587456
587674
587892
588108
588326
588546
588766
588984
589204
589424
589644
589864
590084
590302
590522
590742
590960
591182
591404
591624
591848
592068
592288
592510
592730
592950
593168
593388
593606
593826
594046
594270
594492
594712
594934
595156
595376
595598
595820
596040
596262
596484
596704
596926
597146
597366
597588
597810
598030
598250
598472
598692
598912
599134
599360
599580
599802
600024
600246
600466
600686
600906
601126
601346
601564
601788
602008
602230
602452
602674
602898
603120
603342
603564
603784
604004
604224
604442
604660
604880
605100
605318
605534
605752
605970
606186
606404
606624
606846
607066
607286
607508
607728
607948
608170
608390
608606
608824
609042
609260
609476
609692
609908
610124
610338
610554
610768
610982
611198
611412
611628
611846
612064
612282
612500
612718
612936
613156
613370
613588
613804
614022
614236
614450
614666
614880
615096
615312
615530
615748
615966
616184
616404
616622
616842
617062
617282
617500
617718
617936
618152
618370
618586
618800
619016
619230
619444
619660
619874
620088
620302
620518
620734
620950
621168
621386
621604
621818
622036
622254
622470
622686
622902
623118
623334
623550
623764
623980
624192
624408
624624
624838
625054
625274
625490
625710
625926
626146
626362
626578
626796
627014
627230
627448
627666
627884
628102
628320
628538
628758
628976
629192
629408
629622
629838
630054
630272
630488
630704
630924
631142
631362
631582
631802
632022
632242
632460
632678
632894
633110
633326
633542
633758
633972
634190
634408
634624
634840
635056
635272
635488
635704
635918
636134
636350
636566
636782
637000
637216
637434
637650
637868
638086
638302
638522
638738
638956
639176
639396
639614
639834
640054
640274
640494
640712
640930
641146
641360
641574
641788
642000
642212
642424
642638
642852
643068
643284
643504
643720
643938
644156
644376
644594
644810
645026
645242
645456
645674
645892
646108
646326
646542
646762
646978
647194
647412
647628
647842
648060
648278
648494
648710
648928
649144
649360
649576
649794
650008
650224
650440
650656
650870
651084
651302
651520
651736
651954
652172
652390
652608
652826
653046
653264
653484
653704
653922
654142
654360
654580
654802
655024
655246
655468
655690
655910
656130
656352
656572
656790
657012
657232
657452
657672
657894
658114
658330
658548
658768
658984
659202
659418
659636
659854
660070
660286
660504
660722
660936
661154
661370
661582
661798
662010
662226
662442
662658
662876
663092
663310
663526
663744
663960
664178
664394
664610
664828
665046
665266
665486
665704
665924
666142
666362
666582
666800
667020
667240
667458
667676
667894
668112
668330
668550
668768
668986
669204
669422
669638
669854
670072
670290
670506
670726
670944
671162
671380
671598
671816
672034
672252
672470
672688
672904
673120
673334
673550
673764
673978
674196
674414
674630
674848
675066
675282
675500
675718
675934
676150
676364
676582
676700
677014
677230
677444
677654
677866
678078
678292
678506
678722
678940
679160
679378
679594
679812
680030
680248
680464
680684
680902
681120
681338
681558
681776
681990
682206
682420
682634
682848
683066
683284
683500
683714
683930
684146
684362
684582
684804
685024
685246
685468
685688
685908
686126
686344
686560
686778
686996
687212
687430
687648
687866
688088
688308
688528
688748
688968
689186
689404
689620
689838
690054
690270
690490
690710
690930
691150
691370
691590
691810
692030
692250
692470
692690
692910
693130
693348
693566
693782
693998
694212
694430
694648
694868
695086
695306
695528
695750
695970
696192
696414
696634
696856
697076
697294
697512
697732
697950
698170
698388
698610
698830
699052
699272
699494
699716
699936
700160
700382
700602
700820
701040
701260
701480
701700
701922
702144
702362
702584
702802
703022
703242
703460
703680
703898
704116
704336
704556
704774
704994
705214
705434
705654
705874
706096
706318
706538
706760
706982
707206
707428
707652
707874
708096
708318
708538
708758
708976
709196
709414
709634
709854
710074
710294
710512
710732
710950
711168
711388
711608
711824
712040
712256
712472
712688
712906
713124
713344
713566
713786
714008
714230
714452
714672
714892
715112
715330
715548
715764
715980
716196
716412
716630
716848
717064
717284
717506
717726
717946
718166
718386
718606
718824
719046
719264
719484
719704
719924
720142
720360
720580
720798
721016
721232
721454
721672
721892
722112
722332
722550
722768
722984
723202
723420
723636
723852
724070
724288
724506
724724
724942
725160
725380
725600
725818
726036
726256
726474
726692
726910
727126
727344
727560
727776
727994
728210
728426
728642
728862
729080
729296
729514
729732
729948
730166
730384
730602
730822
731040
731260
731478
731696
731914
732134
732350
732568
732786
733002
733220
733438
733656
733874
734092
734310
734526
734742
734956
735170
735386
735600
735816
736032
736250
736470
736692
736916
737138
737360
737582
737804
738028
738250
738470
738692
738914
739136
739358
739580
739802
740026
740250
740470
740690
740910
741130
741346
741564
741784
742000
742216
742438
742658
742876
743096
743316
743536
743754
743970
744188
744404
744618
744834
745048
745260
745470
745682
745894
746106
746316
746526
746734
746882
747122
747326
747528
747730
747930
748130
748332
748530
748730
748932
749132
749332
749532
749734
749936
750140
750344
750546
750752
750956
751162
751366
751570
751776
751980
752184
752390
752596
752802
753008
753212
753418
753622
753826
754032
754236
754440
754644
754848
755048
755248
755448
755650
755850
756050
756248
756448
756650
756850
757050
757250
757452
757652
757850
758052
758252
758452
758650
758850
759048
759246
759444
759644
759848
760048
760248
760448
760646
760846
761044
761244
761442
761640
761840
762040
762242
762444
762648
762852
763056
763260
763462
763664
763864
764066
764264
764462
764658
764858
765056
765254
765454
765656
765854
766054
766252
766452
766652
766848
767048
767248
767444
767644
767844
768044
768242
768442
768644
768842
769044
769238
769436
769628
769814
770002
770188
770378
770568
770760
770954
771148
771344
771540
771736
771934
772130
772330
772524
772726
772926
773124
773324
773524
773722
773924
774122
774324
774524
774726
774926
775126
775326
775526
775724
775922
776122
776316
776512
776710
776908
777108
777306
777508
777708
777908
778110
778314
778520
778726
778932
779140
779346
779554
779762
779970
780176
780382
780590
780798
781006
781212
781418
781628
781836
782042
782248
782454
782662
782868
783076
783280
783488
783694
783898
784102
784308
784516
784722
784928
785136
785344
785550
785758
785964
786172
786380
786588
786800
787004
787210
787420
787626
787834
788042
788248
788460
788670
788882
789096
789308
789520
789730
789942
790150
790360
790568
790774
790978
791186
791392
791596
791806
792012
792220
792430
792638
792850
793062
793274
793486
793696
793908
794120
794330
794540
794752
794960
795170
795380
795590
795800
796014
796228
796442
796656
796870
797082
797290
797502
797706
797908
798108
798308
798506
798700
798896
799094
799296
799500
799702
799900
800100
800306
800512
800710
800910
801112
801314
801518
801720
801924
802128
802332
802536
802738
802950
803154
803356
803560
803764
803964
804166
804366
804566
804766
804964
805162
805362
805564
805764
805968
806172
806376
806576
806778
806982
807186
807380
807596
807802
808010
808216
808422
808630
808836
809042
809248
809454
809660
809864
810074
810280
810484
810688
810896
811102
811306
811510
811714
811924
812128
812334
812540
812744
812944
813138
813334
813534
813730
813928
814128
814326
814528
814730
814932
815140
815342
815546
815750
815954
816156
816360
816564
816766
816970
817172
817376
817580
817782
817986
818188
818392
818594
818796
818998
819200
819404
819606
819806
820010
820210
820410
820610
820810
821006
821206
821406
821604
821802
822002
822198
822398
822600
822798
822998
823200
823402
823606
823810
824016
824222
824426
824634
824838
825042
825248
825452
825660
825868
826074
826284
826490
826700
826908
827116
827328
827536
827746
827954
828166
828372
828580
828784
828990
829196
829402
829608
829814
830018
830222
830426
830630
830832
831032
831236
831438
831640
831840
832042
832244
832448
832648
832848
833048
833248
833446
833644
833844
834042
834242
834442
834644
834850
835054
835258
835466
835672
835880
836084
836292
836498
836706
836912
837122
837330
837536
837742
837950
838154
838364
838574
838784
838992
839204
839416
839628
839840
840052
840262
840472
840680
840890
841098
841304
841510
841714
841918
842122
842326
842530
842736
842942
843150
843358
843564
843770
843976
844180
844386
844592
844798
845000
845218
845428
845640
845852
846060
846270
846478
846684
846892
847098
847302
847510
847718
847926
848134
848344
848554
848762
848968
849174
849378
849580
849782
849984
850188
850392
850596
850802
851006
851212
851416
851622
851828
852032
852236
852444
852652
852862
853068
853276
853486
853692
853896
854106
854312
854516
854722
854932
855142
855348
855554
855760
855968
856174
856380
856588
856794
857000
857206
857414
857616
857818
858020
858220
858420
858618
858816
859014
859212
859412
859612
859812
860014
860216
860416
860624
860830
861036
861246
861454
861666
861872
862080
862286
862490
862700
862902
863110
863320
863528
863732
863938
864150
864360
864570
864780
864990
865200
865406
865616
865826
866034
866244
866452
866660
866868
867072
867280
867484
867684
867894
868098
868302
868512
868716
868926
869134
869342
869546
869752
869958
870162
870366
870570
870772
870970
871168
871366
871564
871768
871974
872176
872378
872578
872780
872984
873189
873390
873598
873798
874006
874210
874412
874612
874816
875016
875212
875412
875604
875802
876000
876192
876390
876586
876786
876986
877184
877384
877586
877788
877988
878186
878388
878588
878786
878984
879184
879382
879586
879782
879984
880188
880384
880592
880792
880996
881204
881406
881614
881820
882024
882230
882432
882636
882840
883044
883248
883450
883648
883848
884046
884246
884446
884650
884852
885056
885260
885464
885670
885876
886082
886288
886496
886700
886912
887118
887330
887536
887744
887960
888170
888382
888590
888804
889014
889228
889440
889650
889860
890070
890282
890488
890698
890906
891114
891324
891530
891742
891950
892160
892370
892580
892790
892998
893210
893418
893632
893838
894044
894252
894454
894658
894862
895066
895268
895470
895672
895874
896076
896280
896488
896694
896900
897108
897314
897520
897730
897936
898148
898356
898566
898774
898986
899198
899406
899616
899822
900024
900230
900432
900628
900824
901016
901208
901406
901592
901780
901968
902152
902334
902516
902696
902878
903048
903232
903410
903590
903770
903948
904126
904306
904486
904668
904850
905028
905208
905386
905568
905750
905930
906110
906292
906472
906652
906832
907012
907194
907372
907554
907740
907922
908110
908294
908482
908668
908856
909042
909232
909420
909612
909800
909988
910174
910360
910544
910730
910914
911098
911282
911470
911654
911840
912028
912216
912404
912594
912782
912970
913160
913350
913540
913730
913920
914110
914296
914488
914676
914864
915054
915246
915436
915626
915816
916010
916204
916398
916594
916786
916984
917180
917374
917568
917762
917954
918146
918340
918532
918728
918920
919112
919306
919502
919698
919892
920086
920280
920470
920660
920852
921040
921226
921410
921594
921772
921956
922136
922314
922494
922678
922856
923040
923222
923406
923588
923772
923960
924148
924340
924532
924720
924908
925098
925286
925472
925662
925854
926040
926230
926418
926608
926794
926988
927178
927368
927558
927752
927942
928136
928330
928520
928712
928902
929094
929286
929478
929670
929864
930062
930260
930458
930656
930854
931050
931246
931444
931644
931840
932040
932238
932440
932644
932844
933046
933246
933446
933642
933838
934038
934240
934442
934642
934846
935050
935254
935460
935662
935866
936066
936268
936468
936664
936862
937060
937258
937456
937650
937844
938040
938234
938426
938620
938812
939006
939196
939392
939586
939784
939980
940178
940378
940580
940776
940976
941174
941372
941566
941760
941952
942148
942342
942538
942734
942932
943132
943330
943530
943734
943936
944140
944344
944546
944748
944948
945150
945348
945546
945744
945942
946142
946342
946542
946742
946942
947142
947340
947538
947736
947934
948128
948326
948520
948716
948914
949112
949308
949510
949706
949904
950100
950296
950494
950688
950884
951080
951276
951472
951668
951862
952058
952252
952448
952642
952840
953036
953230
953428
953626
953824
954022
954222
954420
954620
954820
955018
955220
955422
955620
955822
956024
956224
956424
956624
956824
957026
957226
957426
957628
957828
958028
958230
958432
958634
958836
959038
959240
959440
959636
959832
960030
960228
960424
960622
960822
961022
961224
961424
961626
961828
962030
962232
962434
962634
962836
963038
963240
963444
963648
963854
964058
964262
964466
964670
964876
965078
965280
965482
965686
965892
966094
966296
966502
966704
966904
967106
967308
967508
967710
967912
968116
968320
968522
968728
968934
969136
969338
969540
969742
969942
970142
970340
970538
970738
970938
971136
971334
971534
971732
971928
972124
972324
972522
972722
972922
973122
973320
973518
973716
973916
974112
974310
974510
974706
974906
975102
975302
975500
975698
975892
976090
976288
976484
976680
976876
977072
977270
977468
977666
977864
978060
978258
978456
978654
978850
979050
979248
979446
979646
979844
980042
980242
980442
980642
980840
981040
981238
981438
981636
981834
982034
982234
982434
982630
982830
983030
983228
983428
983628
983826
984024
984220
984418
984614
984806
984998
985194
985390
985584
985780
985976
986172
986370
986564
986760
986956
987154
987352
987554
987754
987954
988152
988352
988548
988746
988942
989138
989334
989532
989728
989924
990124
990324
990524
990724
990926
991128
991328
991532
991734
991934
992134
992334
992534
992734
992930
993126
993322
993520
993716
993916
994114
994316
994520
994720
994922
995124
995320
995518
995714
995908
996100
996290
996486
996680
996876
997072
997270
997472
997672
997874
998074
998276
998476
998676
998872
999070
999270
999466
999662
999860
1000056
1000254
1000452
1000650
1000850
1001048
1001244
1001442
1001640
1001836
1002036
1002234
1002432
1002628
1002826
1003024
1003222
1003420
1003618
1003816
1004016
1004212
1004410
1004608
1004806
1005002
1005200
1005398
1005594
1005790
1005984
1006178
1006374
1006572
1006770
1006966
1007164
1007358
1007554
1007752
1007950
1008150
1008346
1008544
1008744
1008944
1009142
1009340
1009536
1009736
1009934
1010130
1010326
1010522
1010718
1010914
1011110
1011306
1011500
1011694
1011890
1012088
1012282
1012480
1012676
1012870
1013066
1013260
1013456
1013654
1013852
1014054
1014252
1014452
1014650
1014848
1015048
1015242
1015440
1015636
1015830
1016026
1016222
1016420
1016616
1016814
1017012
1017208
1017406
1017604
1017800
1017994
1018186
1018382
1018576
1018774
1018972
1019168
1019368
1019568
1019764
1019962
1020160
1020356
1020552
1020748
1020942
1021136
1021328
1021520
1021708
1021900
1022092
1022284
1022476
1022666
1022858
1023050
1023244
1023434
1023626
1023818
1024010
1024204
1024396
1024586
1024780
1024976
1025172
1025370
1025568
1025768
1025964
1026162
1026360
1026554
1026750
1026944
1027140
1027332
1027528
1027722
1027918
1028112
1028310
1028508
1028700
1028892
1029086
1029280
1029476
1029672
1029870
1030064
1030262
1030458
1030654
1030852
1031048
1031246
1031442
1031636
1031832
1032028
1032224
1032422
1032620
1032818
1033012
1033208
1033406
1033604
1033798
1033996
1034194
1034392
1034592
1034792
1034994
1035194
1035398
1035596
1035796
1035996
1036196
1036394
1036594
1036790
1036986
1037180
1037376
1037574
1037770
1037968
1038168
1038366
1038560
1038756
1038952
1039148
1039344
1039540
1039736
1039932
1040126
1040318
1040512
1040704
1040896
1041086
1041280
1041472
1041666
1041864
1042060
1042260
1042458
1042660
1042862
1043064
1043264
1043466
1043666
1043870
1044074
1044274
1044478
1044682
1044890
1045100
1045308
1045518
1045728
1045938
1046148
1046356
1046564
1046772
1046980
1047186
1047392
1047596
1047800
1048004
1048208
1048412
1048618
1048820
1049022
1049226
1049432
1049636
1049842
1050046
1050250
1050456
1050658
1050862
1051068
1051274
1051478
1051684
1051888
1052096
1052300
1052506
1052712
1052920
1053128
1053332
1053540
1053744
1053952
1054158
1054362
1054566
1054770
1054974
1055178
1055382
1055588
1055792
1055994
1056200
1056404
1056608
1056812
1057018
1057224
1057428
1057634
1057842
1058046
1058252
1058460
1058666
1058874
1059080
1059290
1059496
1059704
1059910
1060116
1060320
1060524
1060724
1060924
1061128
1061328
1061528
1061734
1061938
1062144
1062350
1062556
1062762
1062968
1063174
1063378
1063584
1063788
1063994
1064202
1064406
1064610
1064816
1065024
1065228
1065430
1065634
1065838
1066040
1066242
1066446
1066650
1066854
1067056
1067260
1067466
1067668
1067872
1068076
1068282
1068486
1068692
1068894
1069098
1069300
1069502
1069702
1069906
1070110
1070312
1070516
1070722
1070930
1071138
1071348
1071558
1071766
1071972
1072178
1072386
1072592
1072798
1073002
1073208
1073414
1073618
1073824
1074032
1074238
1074444
1074650
1074856
1075062
1075264
1075468
1075672
1075876
1076078
1076284
1076488
1076696
1076904
1077112
1077320
1077526
1077730
1077934
1078136
1078336
1078536
1078738
1078938
1079140
1079340
1079544
1079748
1079948
1080152
1080356
1080562
1080764
1080966
1081170
1081372
1081574
1081774
1081970
1082170
1082366
1082564
1082764
1082962
1083162
1083366
1083568
1083770
1083972
1084174
1084376
1084582
1084784
1084988
1085188
1085392
1085596
1085800
1086002
1086202
1086404
1086606
1086804
1087004
1087204
1087402
1087600
1087798
1087996
1088196
1088398
1088600
1088802
1089006
1089208
1089414
1089618
1089824
1090026
1090230
1090434
1090634
1090836
1091036
1091238
1091438
1091636
1091838
1092040
1092240
1092438
1092638
1092834
1093032
1093230
1093428
1093624
1093822
1094020
1094220
1094420
1094622
1094826
1095030
1095232
1095434
1095638
1095842
1096044
1096244
1096442
1096640
1096842
1097042
1097242
1097444
1097646
1097844
1098044
1098246
1098442
1098640
1098834
1099032
1099226
1099422
1099610
1099804
1099998
1100192
1100384
1100580
1100778
1100974
1101172
1101370
1101566
1101762
1101962
1102158
1102356
1102552
1102744
1102942
1103140
1103338
1103532
1103730
1103926
1104122
1104318
1104516
1104714
1104910
1105106
1105300
1105496
1105696
1105898
1106100
1106306
1106508
1106712
1106914
1107116
1107318
1107520
1107720
1107922
1108124
1108324
1108526
1108726
1108928
1109128
1109330
1109528
1109728
1109928
1110128
1110326
1110524
1110720
1110916
1111112
1111310
1111508
1111706
1111906
1112106
1112310
1112512
1112714
1112916
1113122
1113324
1113528
1113732
1113938
1114142
1114344
1114548
1114752
1114956
1115158
1115362
1115564
1115766
1115968
1116170
1116374
1116580
1116786
1116992
1117200
1117406
1117610
1117814
1118020
1118224
1118422
1118626
1118826
1119026
1119230
1119432
1119636
1119842
1120046
1120254
1120462
1120666
1120872
1121080
1121286
1121490
1121694
1121900
1122106
1122310
1122516
1122722
1122930
1123138
1123344
1123554
1123762
1123972
1124180
1124386
1124594
1124802
1125008
1125216
1125424
1125632
1125838
1126046
1126250
1126454
1126660
1126862
1127062
1127262
1127462
1127666
1127872
1128078
1128286
1128494
1128704
1128912
1129122
1129334
1129544
1129754
1129964
1130172
1130378
1130582
1130788
1130994
1131198
1131404
1131608
1131808
1132014
1132216
1132418
1132622
1132824
1133028
1133232
1133436
1133642
1133846
1134050
1134254
1134456
1134660
1134862
1135066
1135270
1135474
1135676
1135880
1136084
1136286
1136488
1136692
1136890
1137090
1137290
1137490
1137690
1137892
1138094
1138298
1138502
1138706
1138912
1139114
1139320
1139522
1139726
1139930
1140134
1140338
1140542
1140748
1140952
1141156
1141362
1141568
1141772
1141976
1142182
1142388
1142594
1142802
1143010
1143218
1143424
1143630
1143836
1144040
1144244
1144446
1144650
1144854
1145056
1145260
1145464
1145668
1145874
1146078
1146282
1146488
1146690
1146892
1147092
1147292
1147490
1147686
1147884
1148082
1148280
1148476
1148672
1148870
1149066
1149264
1149460
1149658
1149854
1150050
1150248
1150446
1150644
1150844
1151042
1151242
1151440
1151640
1151838
1152038
1152236
1152436
1152636
1152834
1153034
1153234
1153432
1153634
1153834
1154036
1154236
1154436
1154636
1154834
1155032
1155230
1155426
1155622
1155820
1156018
1156216
1156416
1156616
1156818
1157020
1157222
1157422
1157620
1157818
1158018
1158216
1158416
1158618
1158818
1159018
1159220
1159422
1159622
1159822
1160022
1160220
1160420
1160618
1160816
1161014
1161212
1161410
1161610
1161814
1162014
1162216
1162418
1162622
1162824
1163028
1163232
1163436
1163644
1163850
1164056
1164260
1164464
1164664
1164866
1165068
1165268
1165468
1165668
1165872
1166078
1166284
1166490
1166696
1166902
1167106
1167310
1167512
1167714
1167916
1168118
1168318
1168520
1168720
1168922
1169122
1169322
1169524
1169724
1169926
1170126
1170326
1170526
1170726
1170928
1171126
1171328
1171528
1171728
1171928
1172128
1172328
1172528
1172728
1172928
1173128
1173328
1173530
1173732
1173934
1174136
1174340
1174540
1174742
1174942
1175144
1175342
1175538
1175738
1175940
1176140
1176342
1176544
1176748
1176952
1177156
1177360
1177564
1177764
1177966
1178166
1178370
1178570
1178770
1178972
1179176
1179380
1179582
1179786
1179990
1180192
1180396
1180596
1180796
1180994
1181196
1181396
1181600
1181802
1182006
1182210
1182418
1182624
1182830
1183034
1183240
1183442
1183644
1183846
1184046
1184248
1184448
1184650
1184852
1185056
1185258
1185462
1185666
1185870
1186074
1186278
1186482
1186684
1186884
1187086
1187288
1187488
1187688
1187890
1188092
1188294
1188492
1188692
1188892
1189090
1189288
1189488
1189682
1189880
1190076
1190276
1190472
1190670
1190868
1191064
1191262
1191454
1191648
1191840
1192032
1192226
1192420
1192616
1192814
1193012
1193214
1193410
1193610
1193806
1194006
1194204
1194404
1194602
1194798
1194996
1195192
1195388
1195584
1195780
1195976
1196172
1196366
1196558
1196752
1196946
1197142
1197338
1197534
1197734
1197932
1198130
1198328
1198528
1198726
1198924
1199122
1199320
1199518
1199716
1199914
1200112
1200310
1200508
1200708
1200906
1201104
1201302
1201498
1201696
1201894
1202092
1202288
1202486
1202684
1202882
1203082
1203280
1203480
1203678
1203878
1204074
1204274
1204472
1204668
1204866
1205060
1205258
1205456
1205652
1205852
1206050
1206250
1206448
1206644
1206842
1207040
1207238
1207436
1207632
1207828
1208026
1208224
1208424
1208624
1208822
1209022
1209224
1209426
1209628
1209830
1210034
1210234
1210436
1210638
1210840
1211040
1211238
1211436
1211636
1211834
1212032
1212228
1212426
1212626
1212824
1213022
1213222
1213422
1213620
1213818
1214016
1214214
1214410
1214606
1214802
1214998
1215192
1215386
1215582
1215778
1215974
1216170
1216368
1216566
1216764
1216962
1217160
1217360
1217558
1217756
1217954
1218152
1218352
1218550
1218748
1218946
1219144
1219340
1219538
1219736
1219934
1220132
1220328
1220526
1220724
1220922
1221118
1221316
1221514
1221712
1221910
1222110
1222306
1222504
1222700
1222898
1223096
1223292
1223488
1223684
1223882
1224078
1224274
1224474
1224674
1224874
1225074
1225274
1225476
1225678
1225878
1226078
1226278
1226474
1226668
1226866
1227066
1227264
1227464
1227662
1227862
1228062
1228260
1228456
1228652
1228846
1229040
1229232
1229426
1229622
1229814
1230010
1230206
1230404
1230602
1230800
1230998
1231198
1231396
1231594
1231792
1231990
1232186
1232384
1232578
1232776
1232974
1233170
1233370
1233572
1233772
1233974
1234176
1234378
1234582
1234784
1234988
1235192
1235396
1235598
1235798
1236002
1236204
1236404
1236604
1236804
1237004
1237206
1237408
1237612
1237816
1238020
1238224
1238428
1238632
1238838
1239046
1239252
1239458
1239664
1239868
1240074
1240280
1240482
1240686
1240888
1241092
1241292
1241494
1241696
1241898
1242102
1242304
1242506
1242706
1242906
1243102
1243300
1243496
1243692
1243886
1244084
1244280
1244476
1244672
1244872
1245070
1245268
1245464
1245660
1245856
1246050
1246248
1246442
1246640
1246838
1247034
1247234
1247434
1247634
1247834
1248034
1248234
1248434
1248634
1248834
1249036
1249236
1249436
1249636
1249834
1250034
1250234
1250432
1250630
1250828
1251026
1251220
1251416
1251610
1251804
1251998
1252192
1252388
1252582
1252778
1252972
1253170
1253366
1253562
1253760
1253956
1254154
1254350
1254544
1254740
1254936
1255132
1255326
1255522
1255718
1255916
1256110
1256306
1256504
1256704
1256900
1257098
1257298
1257498
1257696
1257898
1258100
1258302
1258506
1258710
1258916
1259122
1259326
1259530
1259736
1259938
1260142
1260344
1260548
1260752
1260954
1261156
1261358
1261558
1261760
1261962
1262164
1262368
1262570
1262772
1262974
1263176
1263378
1263580
1263782
1263986
1264188
1264390
1264592
1264792
1264992
1265192
1265390
1265590
1265788
1265986
1266184
1266382
1266580
1266780
1266982
1267184
1267386
1267588
1267790
1267992
1268196
1268398
1268602
1268806
1269010
1269212
1269416
1269620
1269822
1270022
1270226
1270430
1270634
1270840
1271044
1271250
1271456
1271662
1271868
1272072
1272276
1272476
1272678
1272876
1273070
1273266
1273464
1273660
1273856
1274052
1274250
1274452
1274656
1274860
1275068
1275276
1275482
1275690
1275898
1276102
1276306
1276508
1276712
1276914
1277114
1277316
1277518
1277722
1277922
1278124
1278326
1278528
1278728
1278926
1279130
1279328
1279528
1279726
1279928
1280128
1280326
1280526
1280726
1280928
1281130
1281332
1281534
1281734
1281938
1282140
1282344
1282548
1282752
1282958
1283162
1283368
1283574
1283780
1283984
1284188
1284390
1284590
1284790
1284990
1285192
1285394
1285596
1285800
1286004
1286206
1286404
1286604
1286802
1287002
1287200
1287398
1287596
1287794
1287992
1288192
1288390
1288586
1288782
1288980
1289178
1289376
1289572
1289768
1289966
1290162
1290354
1290548
1290744
1290938
1291132
1291328
1291522
1291716
1291910
1292102
1292296
1292490
1292684
1292876
1293072
1293270
1293466
1293666
1293866
1294070
1294272
1294476
1294678
1294880
1295080
1295280
1295478
1295678
1295876
1296074
1296272
1296472
1296670
1296870
1297068
1297268
1297464
1297662
1297858
1298056
1298254
1298454
1298656
1298856
1299060
1299262
1299464
1299668
1299868
1300070
1300274
1300476
1300678
1300880
1301080
1301282
1301482
1301680
1301882
1302082
1302282
1302484
1302684
1302888
1303088
1303288
1303488
1303686
1303884
1304084
1304282
1304480
1304678
1304878
1305078
1305280
1305482
1305684
1305886
1306086
1306286
1306482
1306678
1306876
1307072
1307268
1307464
1307658
1307856
1308054
1308250
1308450
1308648
1308848
1309048
1309248
1309448
1309650
1309850
1310050
1310252
1310452
1310654
1310854
1311054
1311254
1311452
1311650
1311850
1312048
1312244
1312442
1312640
1312840
1313040
1313240
1313444
1313644
1313846
1314048
1314250
1314450
1314652
1314852
1315052
1315254
1315456
1315658
1315862
1316066
1316272
1316476
1316682
1316886
1317086
1317286
1317488
1317688
1317888
1318088
1318288
1318488
1318690
1318890
1319088
1319286
1319484
1319684
1319876
1320072
1320266
1320464
1320660
1320854
1321048
1321240
1321430
1321620
1321812
1322000
1322184
1322370
1322556
1322740
1322924
1323108
1323296
1323482
1323672
1323862
1324054
1324248
1324444
1324638
1324834
1325030
1325224
1325416
1325610
1325804
1325994
1326188
1326378
1326568
1326760
1326952
1327140
1327334
1327530
1327722
1327920
1328118
1328312
1328508
1328702
1328896
1329094
1329288
1329480
1329674
1329866
1330056
1330250
1330442
1330636
1330832
1331028
1331228
1331428
1331626
1331826
1332022
1332222
1332420
1332620
1332816
1333014
1333210
1333408
1333604
1333800
1333998
1334194
1334390
1334586
1334782
1334980
1335174
1335374
1335572
1335770
1335966
1336164
1336360
1336556
1336752
1336948
1337144
1337338
1337530
1337724
1337916
1338112
1338306
1338502
1338696
1338894
1339088
1339284
1339478
1339674
1339870
1340064
1340260
1340454
1340650
1340844
1341036
1341232
1341426
1341620
1341812
1342004
1342196
1342384
1342564
1342748
1342926
1343098
1343274
1343446
1343620
1343794
1343968
1344142
1344318
1344494
1344672
1344848
1345026
1345202
1345380
1345560
1345738
1345916
1346094
1346272
1346452
1346632
1346812
1346996
1347180
1347366
1347552
1347740
1347926
1348116
1348306
1348496
1348690
1348884
1349078
1349274
1349468
1349662
1349854
1350048
1350240
1350434
1350628
1350820
1351016
1351210
1351404
1351596
1351790
1351984
1352176
1352368
1352562
1352756
1352950
1353146
1353342
1353538
1353734
1353930
1354128
1354326
1354526
1354726
1354926
1355124
1355326
1355524
1355722
1355922
1356122
1356322
1356522
1356722
1356922
1357122
1357322
1357524
1357724
1357922
1358120
1358320
1358522
1358720
1358922
1359122
1359324
1359526
1359726
1359926
1360128
1360328
1360526
1360726
1360924
1361122
1361320
1361518
1361718
1361916
1362112
1362312
1362508
1362704
1362898
1363094
1363290
1363486
1363682
1363878
1364078
1364278
1364476
1364676
1364876
1365074
1365272
1365468
1365662
1365858
1366054
1366250
1366444
1366640
1366834
1367028
1367224
1367420
1367616
1367810
1368004
1368202
1368398
1368594
1368790
1368986
1369184
1369382
1369578
1369776
1369974
1370172
1370366
1370564
1370762
1370960
1371158
1371356
1371558
1371758
1371960
1372162
1372360
1372558
1372756
1372952
1373150
1373346
1373542
1373736
1373928
1374124
1374320
1374512
1374704
1374896
1375092
1375282
1375478
1375672
1375866
1376064
1376264
1376462
1376662
1376862
1377060
1377256
1377452
1377646
1377836
1378030
1378218
1378410
1378602
1378798
1378996
1379190
1379388
1379584
1379778
1379974
1380166
1380358
1380552
1380744
1380936
1381128
1381322
1381516
1381710
1381904
1382098
1382290
1382484
1382678
1382874
1383072
1383268
1383466
1383664
1383860
1384060
1384258
1384456
1384652
1384850
1385044
1385240
1385436
1385630
1385824
1386020
1386216
1386412
1386608
1386804
1387004
1387200
1387398
1387594
1387792
1387986
1388182
1388378
1388572
1388770
1388968
1389166
1389364
1389562
1389758
1389954
1390148
1390344
1390540
1390732
1390924
1391120
1391312
1391508
1391704
1391900
1392098
1392294
1392492
1392690
1392888
1393084
1393282
1393480
1393676
1393872
1394068
1394264
1394462
1394658
1394854
1395052
1395250
1395444
1395638
1395832
1396026
1396222
1396418
1396612
1396808
1397002
1397198
1397394
1397590
1397786
1397982
1398176
1398372
1398568
1398764
1398962
1399162
1399360
1399560
1399758
1399958
1400156
1400352
1400548
1400742
1400934
1401124
1401314
1401508
1401700
1401890
1402084
1402278
1402472
1402668
1402862
1403056
1403252
1403448
1403646
1403842
1404040
1404238
1404432
1404628
1404822
1405016
1405210
1405404
1405596
1405792
1405986
1406180
1406374
1406568
1406764
1406958
1407152
1407348
1407542
1407736
1407930
1408122
1408314
1408506
1408698
1408892
1409084
1409276
1409468
1409662
1409856
1410052
1410248
1410442
1410638
1410832
1411026
1411218
1411410
1411604
1411798
1411988
1412182
1412378
1412574
1412774
1412972
1413172
1413372
1413570
1413768
1413966
1414162
1414356
1414550
1414742
1414936
1415128
1415320
1415516
1415712
1415908
1416104
1416304
1416498
1416694
1416888
1417082
1417276
1417470
1417662
1417860
1418054
1418250
1418446
1418644
1418842
1419040
1419236
1419432
1419630
1419824
1420020
1420214
1420408
1420602
1420796
1420990
1421186
1421380
1421574
1421768
1421964
1422158
1422354
1422546
1422740
1422936
1423130
1423322
1423518
1423710
1423904
1424096
1424288
1424484
1424682
1424878
1425076
1425276
1425474
1425674
1425872
1426068
1426262
1426454
1426644
1426838
1427030
1427222
1427416
1427608
1427804
1428000
1428196
1428392
1428590
1428786
1428982
1429176
1429370
1429562
1429752
1429944
1430136
1430326
1430518
1430710
1430902
1431094
1431290
1431484
1431682
1431884
1432084
1432286
1432488
1432688
1432888
1433084
1433282
1433474
1433668
1433860
1434050
1434240
1434434
1434624
1434820
1435016
1435214
1435410
1435606
1435804
1436002
1436198
1436396
1436594
1436794
1436994
1437194
1437398
1437602
1437806
1438012
1438214
1438416
1438616
1438816
1439014
1439214
1439410
1439606
1439804
1440002
1440200
1440396
1440594
1440792
1440990
1441188
1441384
1441580
1441778
1441978
1442174
1442372
1442570
1442766
1442962
1443156
1443354
1443544
1443742
1443938
1444134
1444330
1444522
1444714
1444908
1445100
1445294
1445488
1445680
1445870
1446058
1446248
1446438
1446626
1446810
1446998
1447184
1447374
1447560
1447748
1447942
1448136
1448328
1448522
1448720
1448916
1449112
1449310
1449506
1449704
1449902
1450098
1450296
1450494
1450694
1450890
1451086
1451282
1451478
1451670
1451864
1452058
1452252
1452446
1452638
1452834
1453030
1453224
1453420
1453618
1453814
1454012
1454208
1454402
1454598
1454794
1454988
1455184
1455380
1455572
1455766
1455958
1456150
1456342
1456534
1456724
1456918
1457112
1457302
1457496
1457688
1457884
1458076
1458270
1458464
1458656
1458848
1459042
1459236
1459430
1459624
1459818
1460010
1460204
1460394
1460582
1460770
1460960
1461148
1461336
1461522
1461712
1461902
1462094
1462288
1462480
1462674
1462862
1463052
1463242
1463432
1463624
1463814
1464004
1464196
1464384
1464572
1464762
1464950
1465140
1465332
1465522
1465714
1465908
1466102
1466296
1466490
1466686
1466880
1467072
1467264
1467456
1467650
1467846
1468042
1468236
1468422
1468624
1468818
1469012
1469204
1469396
1469588
1469782
1469978
1470172
1470368
1470566
1470764
1470966
1471162
1471362
1471562
1471760
1471960
1472160
1472360
1472560
1472760
1472958
1473158
1473358
1473558
1473754
1473950
1474148
1474346
1474544
1474744
1474946
1475148
1475348
1475550
1475752
1475954
1476156
1476356
1476554
1476754
1476948
1477144
1477342
1477540
1477738
1477936
1478136
1478336
1478532
1478734
1478934
1479132
1479330
1479530
1479728
1479926
1480124
1480322
1480522
1480718
1480916
1481114
1481312
1481512
1481708
1481904
1482098
1482294
1482488
1482690
1482884
1483082
1483282
1483482
1483680
1483884
1484084
1484284
1484484
1484684
1484880
1485074
1485270
1485468
1485662
1485858
1486052
1486248
1486444
1486640
1486840
1487040
1487244
1487444
1487640
1487836
1488036
1488230
1488424
1488616
1488808
1488998
1489190
1489386
1489580
1489774
1489970
1490168
1490364
1490562
1490758
1490950
1491144
1491334
1491524
1491712
1491902
1492092
1492284
1492472
1492666
1492856
1493048
1493236
1493426
1493614
1493800
1493988
1494170
1494356
1494538
1494720
1494902
1495082
1495260
1495440
1495618
1495794
1495970
1496152
1496330
1496512
1496696
1496886
1497074
1497258
1497446
1497636
1497822
1498008
1498194
1498378
1498560
1498742
1498928
1499114
1499304
1499496
1499684
1499874
1500064
1500256
1500442
1500632
1500818
1501004
1501190
1501376
1501562
1501750
1501938
1502128
1502316
1502508
1502698
1502886
1503074
1503262
1503448
1503630
1503812
1503998
1504180
1504362
1504546
1504728
1504904
1505092
1505276
1505458
1505642
1505820
1505998
1506178
1506354
1506532
1506710
1506890
1507070
1507240
1507418
1507594
1507770
1507948
1508130
1508310
1508494
1508674
1508854
1509038
1509220
1509398
1509578
1509758
1509938
1510122
1510302
1510486
1510672
1510856
1511042
1511228
1511416
1511602
1511786
1511970
1512154
1512338
1512522
1512706
1512888
1513072
1513258
1513444
1513628
1513816
1514004
1514188
1514374
1514560
1514748
1514938
1515126
1515310
1515498
1515686
1515870
1516050
1516232
1516412
1516594
1516778
1516958
1517134
1517312
1517492
1517664
1517838
1518014
1518186
1518354
1518528
1518700
1518872
1519046
1519222
1519398
1519580
1519760
1519946
1520132
1520312
1520500
1520682
1520862
1521042
1521218
1521394
1521570
1521742
1521914
1522086
1522256
1522428
1522596
1522768
1522938
1523110
1523280
1523450
1523624
1523798
1523974
1524150
1524326
1524502
1524678
1524852
1525026
1525198
1525372
1525542
1525712
1525878
1526048
1526218
1526386
1526556
1526726
1526902
1527076
1527248
1527422
1527594
1527768
1527940
1528112
1528282
1528452
1528618
1528786
1528952
1529118
1529284
1529448
1529616
1529784
1529950
1530118
1530288
1530454
1530624
1530792
1530962
1531132
1531298
1531466
1531634
1531800
1531968
1532134
1532302
1532466
1532632
1532798
1532962
1533130
1533294
1533460
1533626
1533792
1533956
1534120
1534288
1534456
1534622
1534788
1534962
1535134
1535308
1535478
1535650
1535820
1535992
1536162
1536326
1536492
1536658
1536822
1536984
1537146
1537310
1537476
1537644
1537812
1537984
1538156
1538328
1538502
1538678
1538848
1539022
1539198
1539368
1539540
1539712
1539884
1540052
1540222
1540396
1540568
1540742
1540918
1541098
1541274
1541450
1541634
1541812
1541990
1542170
1542344
1542522
1542698
1542870
1543046
1543216
1543390
1543562
1543746
1543932
1544124
1544322
1544518
1544716
1544914
1545110
1545308
1545508
1545706
1545902
1546096
1546286
1546478
1546670
1546864
1547058
1547252
1547448
1547642
1547838
1548036
1548236
1548436
1548636
1548834
1549036
1549232
1549432
1549632
1549830
1550030
1550226
1550422
1550620
1550808
1551000
1551190
1551382
1551576
1551768
1551964
1552160
1552354
1552544
1552740
1552932
1553126
1553320
1553512
1553710
1553908
1554102
1554300
1554498
1554694
1554894
1555094
1555290
1555490
1555692
1555890
1556090
1556294
1556492
1556692
1556888
1557092
1557296
1557492
1557692
1557888
1558090
1558290
1558488
1558694
1558890
1559096
1559302
1559506
1559712
1559916
1560122
1560328
1560526
1560732
1560934
1561142
1561350
1561548
1561750
1561956
1562158
1562360
1562564
1562768
1562972
1563172
1563376
1563578
1563782
1563984
1564184
1564386
1564590
1564788
1564990
1565190
1565392
1565598
1565796
1565998
1566194
1566392
1566582
1566778
1566974
1567172
1567364
1567560
1567756
1567942
1568142
1568338
1568528
1568722
1568912
1569104
1569300
1569500
1569700
1569900
1570100
1570300
1570504
1570696
1570890
1571088
1571278
1571472
1571672
1571862
1572062
1572262
1572458
1572662
1572858
1573062
1573260
1573460
1573662
1573858
1574062
1574258
1574454
1574656
1574850
1575052
1575250
1575446
1575650
1575852
1576056
1576258
1576460
1576666
1576868
1577072
1577276
1577476
1577678
1577878
1578078
1578278
1578474
1578674
1578872
1579070
1579272
1579466
1579668
1579868
1580066
1580264
1580460
1580658
1580860
1581056
1581256
1581452
1581650
1581850
1582044
1582238
1582436
1582634
1582834
1583034
1583234
1583432
1583630
1583830
1584030
1584230
1584432
1584634
1584836
1585038
1585242
1585446
1585650
1585854
1586056
1586260
1586466
1586670
1586876
1587084
1587290
1587498
1587706
1587914
1588122
1588330
1588538
1588746
1588956
1589162
1589366
1589574
1589778
1589986
1590192
1590396
1590604
1590810
1591018
1591228
1591438
1591650
1591862
1592076
1592290
1592494
1592702
1592906
1593110
1593312
1593514
1593722
1593924
1594130
1594334
1594540
1594746
1594952
1595154
1595362
1595566
1595768
1595972
1596172
1596372
1596574
1596774
1596974
1597172
1597370
1597570
1597772
1597974
1598176
1598380
1598582
1598784
1598986
1599190
1599388
1599590
1599790
1599988
1600186
1600386
1600582
1600782
1600982
1601182
1601382
1601582
1601784
1601986
1602190
1602394
1602596
1602800
1603004
1603208
1603412
1603614
1603818
1604020
1604226
1604428
1604630
1604832
1605034
1605238
1605438
1605642
1605846
1606046
1606250
1606452
1606658
1606864
1607066
1607272
1607476
1607680
1607884
1608086
1608290
1608494
1608696
1608898
1609098
1609302
1609504
1609708
1609912
1610116
1610322
1610526
1610730
1610936
1611140
1611346
1611550
1611754
1611960
1612166
1612370
1612574
1612776
1612980
1613180
1613386
1613586
1613788
1613998
1614200
1614402
1614604
1614804
1615006
1615206
1615406
1615608
1615812
1616016
1616218
1616422
1616626
1616828
1617032
1617238
1617442
1617646
1617848
1618054
1618258
1618462
1618668
1618874
1619078
1619282
1619484
1619686
1619886
1620086
1620284
1620486
1620682
1620882
1621076
1621272
1621468
1621666
1621860
1622058
1622252
1622450
1622650
1622848
1623048
1623248
1623446
1623646
1623846
1624042
1624240
1624438
1624636
1624832
1625028
1625228
1625428
1625628
1625828
1626028
1626230
1626430
1626632
1626836
1627036
1627240
1627440
1627642
1627844
1628044
1628246
1628450
1628652
1628856
1629058
1629260
1629466
1629670
1629876
1630082
1630288
1630494
1630698
1630902
1631108
1631312
1631518
1631720
1631924
1632130
1632332
1632536
1632742
1632946
1633150
1633354
1633556
1633758
1633958
1634160
1634364
1634566
1634770
1634974
1635178
1635384
1635590
1635796
1636004
1636208
1636414
1636618
1636822
1637028
1637230
1637434
1637640
1637842
1638046
1638250
1638454
1638660
1638866
1639072
1639280
1639486
1639694
1639898
1640106
1640310
1640516
1640718
1640922
1641128
1641336
1641544
1641754
1641964
1642176
1642392
1642606
1642820
1643030
1643242
1643450
1643658
1643866
1644072
1644280
1644488
1644694
1644902
1645108
1645316
1645524
1645730
1645938
1646146
1646352
1646558
1646762
1646966
1647172
1647378
1647584
1647788
1647992
1648200
1648406
1648612
1648818
1649024
1649230
1649434
1649638
1649842
1650046
1650254
1650456
1650662
1650866
1651070
1651274
1651480
1651682
1651884
1652088
1652292
1652496
1652696
1652902
1653104
1653306
1653508
1653710
1653914
1654116
1654320
1654524
1654728
1654932
1655136
1655342
1655546
1655752
1655960
1656162
1656368
1656574
1656780
1656986
1657194
1657402
1657608
1657814
1658020
1658228
1658438
1658644
1658852
1659032
1659258
1659466
1659672
1659876
1660080
1660282
1660486
1660688
1660888
1661090
1661292
1661494
1661696
1661896
1662100
1662302
1662506
1662708
1662910
1663112
1663314
1663516
1663718
1663918
1664118
1664320
1664520
1664722
1664924
1665126
1665328
1665532
1665734
1665934
1666138
1666340
1666544
1666744
1666946
1667148
1667350
1667552
1667752
1667954
1668152
1668352
1668554
1668754
1668956
1669156
1669360
1669562
1669766
1669970
1670174
1670380
1670586
1670788
1670992
1671196
1671400
1671604
1671806
1672012
1672214
1672420
1672624
1672830
1673036
1673240
1673444
1673646
1673852
1674056
1674262
1674468
1674674
1674880
1675082
1675284
1675486
1675682
1675882
1676082
1676278
1676474
1676674
1676872
1677070
1677268
1677466
1677664
1677862
1678058
1678254
1678452
1678648
1678844
1679038
1679236
1679432
1679630
1679828
1680026
1680224
1680420
1680616
1680814
1681014
1681210
1681408
1681610
1681808
1682006
1682204
1682404
1682604
1682802
1683002
1683200
1683400
1683596
1683798
1683996
1684194
1684396
1684594
1684794
1684992
1685192
1685392
1685590
1685790
1685988
1686186
1686384
1686580
1686776
1686970
1687168
1687364
1687560
1687754
1687950
1688146
1688344
1688540
1688736
1688934
1689132
1689328
1689524
1689720
1689918
1690116
1690312
1690512
1690712
1690910
1691112
1691312
1691514
1691716
1691914
1692114
1692314
1692510
1692710
1692906
1693102
1693298
1693494
1693688
1693886
1694082
1694280
1694478
1694678
1694878
1695078
1695284
1695486
1695690
1695884
1696084
1696278
1696472
1696666
1696862
1697058
1697258
1697454
1697654
1697858
1698062
1698268
1698474
1698682
1698890
1699096
1699306
1699516
1699722
1699930
1700138
1700344
1700550
1700754
1700958
1701164
1701368
1701572
1701774
1701978
1702180
1702384
1702586
1702788
1702992
1703194
1703398
1703602
1703804
1704006
1704204
1704406
1704606
1704806
1705006
1705210
1705412
1705616
1705820
1706024
1706228
1706430
1706634
1706836
1707038
1707240
1707442
1707644
1707848
1708048
1708254
1708458
1708662
1708866
1709070
1709276
1709478
1709684
1709888
1710094
1710300
1710504
1710710
1710916
1711122
1711330
1711536
1711742
1711948
1712152
1712358
1712562
1712764
1712968
1713168
1713374
1713578
1713780
1713984
1714190
1714394
1714598
1714804
1715010
1715214
1715420
1715624
1715830
1716036
1716240
1716444
1716648
1716854
1717058
1717262
1717466
1717670
1717872
1718076
1718280
1718484
1718688
1718892
1719096
1719302
1719506
1719710
1719914
1720118
1720318
1720520
1720720
1720920
1721118
1721314
1721514
1721712
1721908
1722106
1722304
1722500
1722696
1722892
1723088
1723280
1723476
1723668
1723862
1724054
1724246
1724432
1724636
1724832
1725030
1725226
1725426
1725624
1725822
1726022
1726222
1726422
1726622
1726822
1727024
1727230
1727430
1727632
1727838
1728040
1728246
1728452
1728654
1728862
1729066
1729268
1729472
1729676
1729880
1730084
1730284
1730490
1730692
1730890
1731094
1731296
1731496
1731700
1731902
1732102
1732308
1732508
1732712
1732916
1733116
1733320
1733520
1733722
1733926
1734126
1734330
1734530
1734732
1734938
1735136
1735338
1735538
1735738
1735938
1736136
1736336
1736534
1736732
1736930
1737130
1737330
1737528
1737726
1737928
1738126
1738324
1738522
1738722
1738922
1739118
1739318
1739520
1739720
1739920
1740124
1740326
1740530
1740734
1740938
1741144
1741346
1741550
1741754
1741954
1742158
1742358
1742564
1742768
1742976
1743184
1743388
1743596
1743802
1744006
1744212
1744414
1744618
1744820
1745024
1745230
1745436
1745642
1745850
1746060
1746266
1746474
1746680
1746890
1747096
1747304
1747510
1747716
1747924
1748130
1748336
1748544
1748750
1748956
1749162
1749368
1749574
1749780
1749984
1750190
1750396
1750600
1750808
1751016
1751224
1751430
1751638
1751848
1752054
1752262
1752470
1752678
1752888
1753096
1753306
1753514
1753722
1753928
1754136
1754342
1754548
1754756
1754962
1755170
1755374
1755582
1755790
1755996
1756202
1756410
1756620
1756832
1757042
1757252
1757462
1757670
1757874
1758080
1758284
1758484
1758684
1758888
1759088
1759292
1759498
1759708
1759918
1760126
1760336
1760546
1760756
1760964
1761172
1761382
1761590
1761798
1762006
1762212
1762420
1762626
1762834
1763040
1763246
1763454
1763662
1763868
1764076
1764286
1764490
1764700
1764906
1765110
1765318
1765524
1765728
1765934
1766136
1766340
1766544
1766748
1766954
1767160
1767368
1767576
1767782
1767988
1768198
1768404
1768612
1768820
1769024
1769232
1769436
1769642
1769846
1770052
1770254
1770462
1770666
1770872
1771078
1771288
1771492
1771696
1771900
1772104
1772306
1772508
1772706
1772908
1773110
1773308
1773510
1773714
1773916
1774120
1774324
1774526
1774730
1774932
1775138
1775342
1775544
1775748
1775950
1776154
1776356
1776556
1776758
1776958
1777158
1777360
1777560
1777762
1777966
1778166
1778368
1778570
1778770
1778972
1779170
1779370
1779568
1779768
1779968
1780166
1780368
1780568
1780768
1780972
1781174
1781374
1781576
1781778
1781980
1782184
1782386
1782590
1782796
1783002
1783206
1783414
1783618
1783824
1784024
1784224
1784424
1784624
1784820
1785016
1785216
1785414
1785614
1785810
1786010
1786204
1786398
1786588
1786782
1786970
1787162
1787354
1787546
1787738
1787932
1788126
1788320
1788514
1788706
1788898
1789092
1789282
1789474
1789668
1789858
1790052
1790250
1790440
1790640
1790834
1791032
1791228
1791424
1791624
1791818
1792016
1792210
1792406
1792606
1792798
1792994
1793190
1793386
1793582
1793780
1793978
1794180
1794380
1794584
1794790
1794996
1795202
1795406
1795610
1795816
1796018
1796220
1796422
1796624
1796828
1797030
1797234
1797440
1797644
1797848
1798056
1798262
1798468
1798674
1798880
1799086
1799292
1799496
1799704
1799912
