peaks
73
299
520
746
978
1212
1446
1678
1916
2152
2386
2614
2844
3076
3310
3542
3780
4026
4268
4510
4756
5000
5246
5488
5734
5978
6218
6454
6692
6928
7162
7392
7628
7864
8100
8338
8570
8802
9026
9250
9474
9698
9920
10138
10358
10578
10798
11020
11248
11484
11726
11972
12222
12468
12712
12956
13198
13444
13688
13928
14166
14396
14624
14842
15060
15274
15482
15684
15892
16098
16302
16500
16700
16902
17102
17304
17504
17704
17904
18104
18304
18504
18704
18910
19114
19316
19522
19726
19934
20146
20364
20586
20806
21028
21262
21510
21742
21966
22190
22418
22638
22858
23078
23296
23514
23732
23950
24170
24388
24608
24830
25058
25284
25512
25736
25962
26186
26412
26638
26864
27086
27304
27522
27744
27960
28180
28404
28628
28854
29084
29314
29544
29772
30002
30236
30472
30710
30954
31196
31438
31680
31918
32150
32380
32604
32830
33054
33274
33494
33710
33926
34140
34352
34564
34772
34976
35180
35384
35590
35800
36014
36232
36452
36676
36898
37122
37346
37570
37792
38016
38242
38468
38696
38930
39166
39398
39634
39870
40102
40336
40568
40798
41026
41252
41478
41706
41930
42156
42384
42614
42842
43066
43286
43502
43718
43932
44148
44364
44580
44794
45010
45226
45442
45664
45890
46116
46350
46588
46824
47060
47296
47534
47768
48002
48240
48472
48708
48942
49174
49410
49648
49884
50120
50354
50588
50822
51052
51282
51512
51742
51976
52216
52454
52694
52932
53168
53400
53632
53862
54092
54318
54544
54772
54998
55224
55454
55682
55912
56146
56382
56614
56850
57084
57316
57546
57772
57996
58222
58448
58678
58908
59140
59374
59608
59840
60070
60298
60522
60748
60972
61196
61420
61644
61866
62090
62312
62532
62754
62978
63202
63428
63654
63878
64100
64322
64540
64758
64976
65188
65400
65612
65826
66042
66266
66490
66714
66938
67158
67378
67598
67818
68038
68254
68470
68686
68900
69114
69330
69548
69766
69986
70206
70426
70648
70866
71086
71302
71526
71752
71978
72206
72434
72666
72898
73130
73360
73592
73822
74050
74276
74508
74742
74978
75222
75466
75704
75942
76174
76408
76638
76870
77102
77336
77568
77798
78028
78256
78478
78694
78910
79124
79336
79544
79750
79964
80182
80398
80608
80814
81022
81230
81436
81644
81852
82062
82270
82480
82688
82898
83108
83318
83526
83736
83946
84156
84368
84578
84788
85000
85210
85418
85624
85834
86046
86262
86480
86700
86918
87136
87360
87582
87804
88026
88248
88470
88690
88908
89128
89346
89568
89788
90008
90226
90446
90666
90886
91106
91320
91530
91740
91948
92154
92360
92564
92770
92974
93178
93378
93580
93780
93982
94184
94388
94592
94798
95004
95206
95408
95606
95800
95994
96180
96368
96556
96746
96936
97130
97322
97514
97700
97888
98074
98260
98442
98622
98806
98986
99166
99348
99528
99706
99884
100066
100246
100430
100614
100802
100988
101180
101374
101564
101754
101942
102130
102322
102516
102706
102900
103096
103288
103480
103674
103862
104054
104242
104430
104620
104808
104994
105182
105370
105556
105742
105928
106114
106300
106488
106676
106866
107056
107248
107438
107630
107818
108008
108196
108382
108570
108756
108942
109130
109320
109508
109698
109886
110074
110262
110454
110646
110838
111034
111230
111424
111620
111820
112014
112212
112408
112604
112798
112994
113186
113380
113572
113764
113956
114148
114338
114530
114722
114914
115104
115294
115484
115672
115864
116058
116252
116448
116646
116844
117042
117244
117442
117640
117840
118036
118234
118432
118630
118828
119024
119222
119420
119616
119814
120010
120204
120402
120598
120794
120992
121186
121382
121582
121780
121978
122178
122380
122578
122780
122980
123178
123380
123582
123782
123982
124180
124378
124574
124772
124968
125166
125370
125574
125776
125978
126182
126384
126588
126796
127004
127210
127418
127622
127824
128028
128230
128430
128630
128830
129028
129226
129422
129620
129818
130018
130214
130410
130606
130800
130992
131186
131382
131578
131772
131966
132154
132344
132534
132724
132912
133102
133288
133476
133664
133854
134040
134230
134418
134606
134794
134984
135170
135356
135544
135728
135914
136098
136284
136466
136650
136838
137026
137212
137398
137580
137762
137942
138126
138306
138488
138672
138856
139042
139232
139420
139610
139798
139986
140172
140360
140548
140738
140930
141120
141310
141502
141692
141880
142070
142260
142446
142634
142820
143006
143196
143384
143570
143756
143942
144124
144308
144492
144676
144862
145046
145230
145412
145596
145780
145960
146144
146328
146512
146696
146882
147068
147252
147436
147620
147802
147984
148166
148350
148534
148722
148910
149100
149288
149476
149662
149848
150030
150212
150394
150576
150754
150930
151110
151286
151462
151640
151816
151994
152170
152350
152530
152714
152900
153084
153268
153448
153630
153812
153994
154178
154362
154544
154732
154914
155098
155280
155464
155646
155830
156014
156198
156380
156562
156744
156928
157110
157290
157472
157652
157830
158010
158188
158366
158542
158724
158904
159084
159268
159452
159632
159814
159996
160172
160350
160530
160706
160884
161060
161234
161410
161584
161758
161932
162108
162288
162466
162648
162832
163014
163196
163378
163560
163738
163916
164096
164272
164446
164624
164796
164970
165146
165318
165492
165668
165844
166018
166192
166370
166544
166720
166896
167070
167242
167416
167592
167764
167934
168108
168282
168456
168626
168796
168968
169138
169308
169478
169650
169820
169990
170162
170328
170500
170672
170842
171014
171188
171360
171532
171706
171878
172050
172222
172396
172564
172736
172908
173076
173246
173416
173584
173752
173922
174092
174260
174428
174588
174766
174934
175104
175272
175440
175608
175776
175944
176112
176282
176450
176618
176788
176958
177126
177294
177464
177630
177796
177964
178128
178292
178458
178622
178786
178946
179106
179266
179426
179586
179748
179910
180074
180238
180404
180572
180740
180908
181078
181246
181414
181584
181754
181922
182090
182258
182426
182594
182762
182926
183094
183260
183426
183584
183760
183926
184092
184260
184426
184590
184756
184920
185082
185246
185408
185570
185730
185894
186060
186222
186386
186552
186714
186878
187042
187206
187370
187534
187700
187862
188024
188186
188348
188508
188668
188826
188982
189144
189296
189458
189616
189774
189930
190086
190244
190402
190560
190718
190876
191034
191190
191350
191508
191664
191822
191980
192136
192294
192452
192610
192766
192922
193080
193242
193402
193560
193718
193876
194032
194190
194348
194502
194660
194818
194976
195132
195288
195450
195608
195764
195922
196078
196232
196390
196546
196702
196858
197014
197170
197326
197482
197636
197788
197942
198096
198250
198402
198554
198708
198860
199012
199166
199316
199470
199622
199776
199926
200078
200232
200384
200534
200686
200840
200990
201142
201296
201448
201600
201756
201908
202058
202198
202364
202516
202666
202818
202968
203118
203270
203420
203570
203720
203870
204018
204166
204314
204460
204608
204756
204904
205050
205198
205346
205496
205644
205794
205944
206092
206242
206392
206544
206692
206842
206994
207144
207296
207446
207594
207744
207894
208042
208192
208340
208488
208634
208782
208930
209074
209218
209364
209470
209654
209800
209944
210088
210230
210374
210516
210656
210800
210942
211082
211224
211366
211508
211650
211792
211936
212076
212218
212360
212502
212644
212784
212926
213066
213204
213346
213486
213624
213766
213906
214046
214186
214326
214470
214608
214750
214892
215034
215176
215318
215460
215600
215742
215884
216024
216162
216306
216440
216576
216712
216850
216984
217120
217254
217390
217522
217656
217788
217920
218054
218186
218320
218454
218586
218720
218856
218986
219120
219254
219388
219522
219656
219782
219924
220058
220192
220324
220456
220590
220722
220854
220988
221120
221252
221384
221516
221648
221778
221910
222042
222174
222304
222436
222568
222698
222828
222960
223090
223222
223354
223486
223618
223748
223880
224012
224142
224272
224402
224532
224662
224790
224922
225052
225180
225310
225438
225566
225696
225824
225950
226078
226204
226332
226458
226586
226712
226840
226966
227092
227216
227342
227468
227596
227714
227844
227970
228094
228210
228322
228418
228586
228718
228844
228970
229094
229216
229340
229464
229586
229708
229830
229954
230074
230196
230318
230428
230562
230684
230804
230926
231048
231168
231288
231408
231530
231650
231770
231888
232010
232128
232246
232366
232484
232604
232720
232838
232958
233078
233194
233312
233430
233550
233670
233786
233904
234022
234140
234258
234374
234492
234610
234726
234842
234958
235076
235192
235308
235424
235538
235654
235770
235886
236000
236116
236230
236344
236458
236572
236686
236802
236914
237030
237144
237256
237370
237482
237598
237712
237824
237938
238052
238166
238278
238390
238506
238618
238732
238844
238958
239070
239184
239296
239410
239522
239634
239746
239858
239972
240082
240196
240308
240420
240532
240647
240756
240866
240978
241088
241200
241312
241424
241532
241642
241754
241864
241974
242084
242194
242304
242414
242524
242634
242744
242856
242964
243074
243184
243294
243402
243512
243624
243732
243840
243955
244058
244168
244278
244386
244494
244604
244712
244820
244928
245036
245144
245252
245358
245468
245574
245664
245788
245896
246004
246110
246216
246324
246430
246536
246644
246750
246856
246962
247068
247174
247280
247384
247492
247598
247704
247808
247914
248020
248126
248232
248336
248442
248546
248652
248756
248862
248968
249072
249176
249282
249388
249492
249598
249704
249810
249914
250020
250126
250232
250336
250440
250548
250654
250758
250864
250970
251076
251182
251290
251394
251502
251608
251716
251824
251930
252038
252146
252254
252360
252470
252578
252686
252794
252904
253014
253122
253230
253340
253448
253558
253668
253776
253886
253996
254106
254214
254324
254438
254544
254652
254764
254876
254984
255094
255206
255316
255428
255536
255648
255760
255870
255982
256094
256206
256318
256430
256542
256652
256764
256876
256986
257098
257210
257322
257434
257544
257658
257772
257884
257996
258110
258224
258336
258448
258564
258678
258790
258904
259020
259134
259250
259364
259480
259594
259712
259826
259940
260058
260174
260290
260404
260520
260636
260752
260868
260984
261100
261216
261334
261452
261566
261684
261802
261920
262036
262154
262272
262390
262508
262626
262744
262862
262980
263098
263216
263334
263452
263570
263688
263806
263924
264040
264162
264280
264400
264518
264636
264746
264874
264994
265114
265234
265354
265474
265596
265716
265836
265956
266078
266198
266320
266440
266554
266688
266812
266936
267060
267184
267308
267430
267554
267662
267800
267926
268046
268148
268278
268414
268540
268660
268784
268892
269028
269150
269274
269398
269508
269642
269766
269888
269998
270134
270262
270388
270510
270626
270758
270880
271006
271132
271256
271370
271502
271626
271750
271874
271996
272120
272242
272366
272490
272614
272726
272860
272984
273108
273232
273344
273480
273604
273728
273856
273982
274106
274230
274350
274484
274610
274738
274862
274974
275112
275236
275362
275488
275612
275736
275860
275986
276112
276238
276362
276488
276612
276736
276860
276982
277106
277228
277352
277474
277594
277710
277840
277964
278084
278206
278328
278450
278572
278692
278816
278942
279066
279190
279312
279436
279562
279688
279814
279938
280062
280186
280312
280434
280556
280680
280804
280926
281050
281158
281294
281416
281538
281660
281782
281906
282026
282148
282272
282394
282516
282640
282764
282888
283010
283136
283262
283386
283512
283638
283764
283890
284014
284140
284266
284392
284518
284644
284770
284896
285022
285146
285270
285396
285520
285644
285770
285894
286018
286144
286268
286394
286520
286646
286772
286900
287028
287158
287286
287412
287542
287672
287800
287928
288056
288186
288316
288444
288572
288700
288828
288956
289086
289216
289344
289476
289606
289734
289866
289998
290128
290260
290392
290522
290654
290784
290916
291048
291178
291308
291438
291570
291700
291830
291950
292092
292222
292352
292484
292614
292746
292878
293008
293142
293276
293408
293542
293676
293810
293942
294066
294208
294340
294472
294604
294722
294868
294984
295130
295266
295396
295528
295660
295792
295924
296056
296188
296320
296452
296584
296718
296850
296984
297118
297250
297384
297518
297654
297790
297926
298062
298198
298332
298466
298602
298736
298866
299004
299136
299272
299404
299538
299670
299806
299938
300072
300188
300342
300478
300614
300748
300884
301018
301152
301284
301404
301550
301684
301814
301948
302080
302212
302344
302476
302610
302742
302876
303008
303142
303272
303406
303540
303674
303808
303944
304078
304214
304348
304486
304620
304754
304890
305028
305160
305300
305436
305572
305708
305846
305984
306120
306258
306396
306536
306670
306814
306954
307094
307236
307376
307516
307656
307796
307936
308074
308216
308356
308498
308598
308784
308928
309044
309210
309352
309490
309630
309770
309910
310050
310190
310330
310472
310614
310758
310900
311044
311188
311276
311486
311644
311782
311934
312074
312212
312352
312490
312628
312766
312904
313040
313180
313322
313464
313606
313750
313894
314038
314184
314326
314470
314614
314758
314902
315048
315148
315348
315508
315656
315800
315944
316090
316236
316380
316528
316676
316824
316974
317126
317276
317426
317576
317724
317874
318022
318168
318316
318464
318612
318762
318912
319060
319208
319360
319510
319660
319812
319966
320118
320230
320426
320536
320728
320880
321030
321174
321322
321472
321620
321770
321922
322048
322234
322388
322544
322698
322852
322964
323044
323170
323314
323428
323614
323764
323914
324064
324214
324366
324524
324682
324842
325006
325168
325332
325496
325660
325822
325986
326148
326308
326472
326594
326794
326952
327112
327268
327432
327592
327760
327930
328102
328272
328446
328620
328796
328968
329140
329317
329488
329657
329831
330005
330170
330340
330512
330684
330854
331024
331196
331366
331540
331712
331886
332058
332228
332400
332570
332742
332920
333096
333266
333438
333608
333774
333940
334104
334270
334438
334608
334782
334958
335134
335310
335482
335656
335826
335998
336166
336338
336510
336680
336852
337022
337190
337356
337522
337690
337856
338024
338194
338366
338540
338714
338886
339056
339230
339402
339572
339746
339918
340088
340260
340432
340606
340780
340954
341132
341310
341488
341666
341846
342022
342200
342376
342550
342726
342904
343082
343260
343440
343624
343806
343988
344168
344346
344524
344702
344880
345060
345240
345418
345596
345770
345946
346122
346300
346474
346648
346822
346996
347176
347336
347538
347718
347894
348068
348240
348402
348580
348752
348922
349092
349266
349440
349614
349786
349958
350132
350306
350482
350656
350834
351010
351184
351360
351540
351718
351894
352074
352252
352430
352604
352780
352950
353126
353298
353472
353642
353812
353984
354154
354328
354500
354672
354844
355016
355186
355356
355528
355702
355876
356058
356238
356418
356596
356776
356956
357134
357314
357494
357672
357852
358030
358212
358394
358578
358758
358942
359122
359302
359484
359666
359792
360044
360250
360444
360626
360804
360980
361158
361338
361524
361710
361896
362082
362266
362452
362634
362818
362998
363180
363362
363542
363714
363906
364088
364272
364454
364632
364810
364988
365164
365340
365516
365690
365864
366040
366216
366392
366566
366736
366908
367080
367254
367432
367612
367792
367982
368162
368344
368528
368714
368902
369088
369274
369462
369652
369840
370018
370216
370402
370588
370774
370964
371154
371342
371530
371714
371896
372078
372260
372438
372616
372794
372976
373156
373340
373522
373710
373890
374070
374254
374434
374614
374796
374982
375162
375342
375524
375708
375888
376068
376252
376430
376612
376792
376976
377158
377344
377526
377708
377896
378084
378264
378448
378628
378814
378994
379174
379354
379540
379724
379910
380092
380274
380462
380640
380826
381008
381184
381364
381542
381718
381892
382068
382246
382422
382598
382782
382960
383138
383318
383502
383686
383868
384050
384230
384408
384584
384760
384946
385128
385306
385488
385664
385836
386010
386188
386366
386542
386722
386908
387096
387284
387472
387656
387840
388028
388212
388400
388580
388766
388952
389136
389316
389496
389674
389850
390028
390210
390390
390574
390758
390944
391130
391318
391504
391690
391876
392062
392244
392430
392618
392806
392992
393180
393370
393556
393742
393926
394112
394298
394484
394670
394854
395042
395228
395416
395606
395794
395984
396174
396364
396554
396742
396932
397120
397308
397498
397686
397876
398064
398252
398440
398630
398820
399012
399202
399394
399584
399776
399968
400164
400360
400552
400746
400940
401132
401320
401506
401692
401878
402064
402250
402436
402624
402808
402994
403182
403370
403558
403740
403926
404110
404292
404476
404660
404844
405028
405212
405398
405582
405764
405944
406128
406294
406492
406674
406860
407046
407234
407420
407612
407802
407992
408182
408372
408560
408748
408932
409114
409294
409474
409654
409832
410008
410184
410362
410540
410720
410900
411078
411260
411442
411622
411802
411982
412160
412334
412510
412684
412856
413030
413204
413376
413548
413720
413894
414070
414244
414424
414608
414794
414980
415166
415356
415542
415726
415912
416096
416278
416456
416636
416816
416998
417182
417370
417560
417752
417944
418136
418328
418522
418712
418902
419088
419276
419464
419650
419842
420034
420226
420420
420612
420806
421000
421194
421386
421578
421770
421958
422154
422346
422534
422722
422910
423098
423284
423470
423658
423848
424040
424234
424428
424620
424814
425006
425196
425388
425580
425772
425968
426166
426368
426572
426778
426992
427212
427428
427640
427854
428066
428264
428482
428690
428896
429100
429308
429514
429720
429926
430128
430332
430534
430732
430930
431130
431328
431526
431722
431922
432124
432318
432514
432704
432826
433058
433248
433432
433608
433752
433956
434126
434298
434462
434630
434792
434958
435120
435284
435448
435614
435776
435940
436106
436270
436434
436600
436766
436932
437098
437266
437432
437602
437770
437938
438108
438274
438442
438610
438776
438940
439106
439274
439442
439608
439780
439950
440120
440292
440464
440634
440804
440976
441140
441306
441472
441636
441800
441964
442126
442288
442452
442614
442778
442942
443104
443266
443432
443594
443758
443922
444088
444254
444420
444588
444756
444926
445098
445268
445444
445618
445794
445974
446152
446332
446510
446688
446868
447046
447222
447398
447572
447742
447914
448086
448258
448430
448604
448776
448948
449118
449282
449454
449622
449788
449954
450120
450286
450450
450614
450780
450944
451106
451272
451432
451592
451752
451916
452078
452240
452398
452560
452720
452878
453038
453198
453358
453516
453674
453830
453986
454144
454300
454456
454612
454770
454930
455088
455246
455406
455564
455724
455882
456040
456200
456362
456522
456684
456846
457008
457174
457336
457498
457662
457828
457994
458158
458322
458488
458654
458820
458982
459148
459312
459472
459634
459800
459960
460122
460286
460448
460610
460776
460940
461102
461268
461432
461594
461758
461924
462090
462250
462414
462580
462746
462908
463074
463240
463404
463568
463732
463896
464060
464224
464386
464550
464710
464870
465030
465190
465354
465514
465676
465842
466006
466174
466342
466512
466680
466852
467022
467188
467356
467526
467692
467858
468024
468194
468362
468534
468706
468882
469060
469240
469422
469608
469792
469972
470156
470338
470520
470702
470886
471068
471252
471440
471628
471816
472006
472196
472384
472570
472756
472940
473116
473278
473490
473680
473874
474060
474244
474424
474604
474780
474956
475134
475308
475484
475656
475834
476016
476206
476404
476604
476802
476998
477192
477386
477576
477766
477954
478140
478328
478518
478708
478902
479104
479310
479512
479718
479922
480122
480328
480538
480748
480956
481164
481370
481576
481782
481986
482190
482398
482604
482814
483026
483238
483448
483656
483860
484062
484268
484470
484674
484876
485076
485278
485480
485686
485890
486092
486296
486500
486702
486902
487110
487314
487518
487724
487928
488130
488334
488544
488756
488966
489176
489384
489594
489806
490024
490240
490454
490670
490880
491088
491298
491506
491712
491922
492136
492350
492564
492784
493002
493216
493434
493646
493854
494062
494274
494480
494686
494894
495100
495308
495518
495722
495928
496134
496340
496550
496762
496972
497182
497396
497606
497814
498026
498224
498448
498664
498876
499088
499306
499518
499730
499948
500160
500374
500594
500810
501024
501232
501440
501648
501854
502064
502274
502486
502694
502902
503112
503322
503534
503742
503952
504158
504358
504560
504764
504966
505168
505370
505574
505774
505976
506178
506378
506574
506770
506968
507162
507358
507556
507756
507950
508132
508332
508522
508710
508898
509086
509272
509458
509642
509824
510006
510180
510348
510548
510728
510912
511094
511274
511456
511648
511836
512022
512208
512390
512572
512752
512932
513114
513290
513470
513648
513826
514006
514192
514378
514570
514770
514974
515182
515390
515602
515810
516018
516228
516438
516644
516850
517058
517264
517466
517670
517872
518074
518274
518472
518668
518866
519064
519262
519458
519658
519858
520058
520254
520450
520648
520844
521038
521234
521432
521632
521830
522030
522232
522436
522636
522840
523044
523244
523446
523646
523844
524044
524244
524444
524644
524844
525048
525248
525450
525654
525846
526054
526254
526452
526648
526846
527038
527232
527426
527618
527810
528000
528192
528384
528578
528774
528972
529174
529376
529582
529790
529998
530202
530410
530616
530824
531034
531250
531464
531680
531900
532118
532336
532556
532778
532994
533212
533432
533650
533868
534082
534296
534506
534720
534932
535140
535348
535554
535760
535960
536166
536372
536574
536776
536980
537184
537386
537588
537790
537994
538196
538396
538598
538800
538996
539194
539388
539580
539776
539964
540158
540346
540536
540728
540916
541104
541290
541476
541660
541846
542028
542211
542404
542594
542787
542984
543170
543368
543567
543768
543966
544160
544360
544556
544754
544948
545142
545338
545528
545718
545912
546106
546298
546490
546680
546870
547064
547260
547458
547656
547858
548058
548258
548462
548662
548860
549062
549258
549456
549656
549852
550052
550250
550450
550646
550844
551044
551240
551434
551630
551822
552016
552206
552400
552592
552784
552976
553170
553364
553560
553756
553952
554148
554344
554538
554734
554926
555116
555312
555502
555696
555888
556084
556280
556470
556672
556868
557060
557254
557450
557646
557842
558038
558234
558434
558632
558830
559030
559228
559424
559620
559818
560008
560206
560404
560600
560798
560998
561196
561394
561590
561792
561990
562188
562390
562592
562792
562992
563190
563388
563588
563788
563986
564184
564380
564576
564772
564974
565180
565382
565586
565794
566002
566210
566418
566626
566828
567030
567228
567422
567618
567814
568010
568204
568402
568602
568802
569004
569208
569412
569614
569820
570024
570228
570434
570638
570840
571042
571240
571444
571658
571866
572074
572282
572484
572684
572882
573084
573284
573492
573698
573910
574120
574332
574548
574764
574980
575194
575408
575618
575830
576042
576256
576466
576674
576884
577092
577298
577502
577708
577914
578120
578328
578540
578748
578952
579156
579354
579554
579750
579946
580144
580342
580538
580738
580938
581138
581336
581534
581732
581928
582126
582324
582522
582720
582914
583110
583306
583496
583690
583884
584080
584276
584478
584678
584882
585086
585286
585478
585672
585862
586052
586234
586412
586590
586766
586936
587108
587276
587442
587608
587772
587932
588092
588252
588410
588570
588730
588894
589060
589228
589396
589566
589736
589908
590084
590260
590436
590612
590788
590962
591136
591310
591482
591658
591832
592010
592190
592368
592544
592722
592900
593076
593250
593426
593604
593778
593954
594126
594298
594472
594642
594814
594990
595164
595338
595494
595690
595866
596040
596214
596390
596564
596734
596904
597072
597242
597412
597576
597742
597908
598072
598232
598402
598568
598734
598898
599064
599232
599406
599580
599754
599926
600100
600278
600454
600628
600804
600980
601158
601334
601510
601682
601856
602030
602198
602372
602544
602722
602900
603078
603256
603438
603618
603798
603978
604162
604338
604516
604692
604866
605040
605210
605386
605564
605744
605926
606106
606290
606472
606658
606844
607030
607206
607416
607612
607806
608014
608212
608416
608618
608820
609020
609220
609418
609610
609810
610002
610192
610382
610576
610768
610958
611150
611340
611532
611724
611912
612104
612292
612482
612672
612862
613050
613236
613422
613608
613798
613988
614176
614366
614558
614752
614944
615136
615324
615518
615714
615912
616114
616312
616512
616714
616916
617118
617322
617520
617718
617914
618110
618304
618494
618682
618868
619056
619242
619428
619614
619798
619980
620162
620344
620526
620706
620886
621070
621254
621438
621626
621816
622006
622196
622386
622570
622754
622936
623116
623296
623476
623654
623832
624010
624186
624362
624534
624708
624884
625060
625240
625424
625610
625800
625986
626176
626366
626552
626738
626926
627114
627298
627484
627670
627856
628044
628230
628416
628604
628792
628978
629166
629354
629540
629728
629916
630104
630288
630476
630662
630850
631042
631230
631420
631614
631810
632010
632212
632410
632612
632812
633014
633212
633410
633612
633812
634010
634210
634410
634612
634816
635016
635220
635424
635624
635828
636030
636232
636436
636628
636840
637042
637230
637440
637642
637844
638046
638254
638456
638660
638862
639066
639272
639480
639690
639902
640118
640334
640546
640762
640978
641190
641406
641624
641838
642052
642270
642488
642702
642920
643142
643364
643586
643806
644024
644240
644456
644672
644888
645104
645316
645530
645744
645956
646170
646384
646600
646816
647028
647244
647460
647678
647898
648118
648336
648558
648778
648998
649218
649438
649658
649880
650102
650320
650542
650764
650986
651206
651432
651652
651868
652086
652304
652518
652736
652950
653160
653366
653572
653780
653984
654188
654390
654590
654792
654994
655200
655406
655616
655826
656042
656260
656482
656702
656924
657148
657370
657596
657822
658046
658268
658494
658718
658940
659166
659386
659608
659828
660050
660270
660490
660706
660920
661136
661352
661568
661786
662006
662222
662442
662660
662876
663092
663310
663522
663736
663950
664160
664374
664592
664808
665026
665244
665444
665676
665890
666104
666316
666526
666736
666948
667154
667360
667568
667780
667990
668206
668420
668636
668852
669068
669280
669492
669704
669916
670130
670344
670556
670768
670980
671190
671400
671608
671818
672024
672228
672436
672642
672850
673060
673268
673480
673692
673902
674116
674328
674538
674752
674964
675176
675392
675606
675822
676036
676250
676468
676684
676902
677118
677334
677554
677774
677994
678210
678424
678636
678844
679056
679258
679490
679714
679936
680162
680390
680614
680840
681062
681290
681518
681746
681970
682196
682422
682646
682874
683098
683324
683550
683774
683998
684220
684444
684668
684888
685110
685336
685560
685780
686002
686224
686448
686668
686890
687108
687326
687536
687750
687966
688176
688392
688606
688822
689036
689256
689474
689690
689908
690128
690346
690562
690778
690990
691200
691416
691630
691840
692046
692252
692458
692662
692870
693078
693294
693512
693732
693954
694174
694394
694620
694842
695066
695290
695512
695738
695962
696190
696422
696650
696882
697112
697346
697578
697810
698040
698268
698496
698724
698950
699176
699402
699628
699856
700084
700310
700538
700762
700984
701204
701422
701642
701864
702076
702310
702534
702758
702982
703208
703432
703660
703898
704126
704352
704576
704800
705022
705238
705458
705676
705896
706118
706338
706560
706784
707004
707224
707440
707658
707878
708096
708314
708534
708746
708964
709176
709388
709602
709816
710030
710242
710454
710672
710888
711106
711324
711538
711756
711976
712196
712416
712636
712854
713076
713298
713516
713738
713958
714180
714400
714622
714842
715060
715276
715494
715708
715920
716134
716350
716566
716780
716990
717198
717406
717614
717824
718032
718244
718454
718670
718890
719104
719318
719528
719740
719958
720182
720408
720640
720872
721106
721340
721572
721806
722040
722272
722504
722738
722970
723202
723432
723658
723884
724110
724334
724556
724778
725000
725220
725438
725656
725872
726088
726304
726516
726728
726944
727160
727380
727602
727824
728048
728272
728496
728722
728946
729170
729400
729634
729864
730098
730328
730556
730784
731010
731234
731458
731688
731918
732148
732376
732598
732820
733040
733260
733476
733696
733912
734128
734342
734548
734756
734962
735166
735370
735574
735778
735984
736192
736400
736608
736818
737028
737240
737450
737664
737878
738094
738314
738530
738746
738960
739170
739382
739596
739816
740040
740266
740492
740718
740944
741168
741394
741618
741840
742064
742294
742522
742752
742986
743214
743444
743674
743904
744138
744374
744612
744848
745084
745318
745550
745784
746014
746244
746476
746706
746936
747164
747390
747618
747846
748076
748300
748528
748754
748980
749200
749424
749642
749862
750078
750298
750520
750742
750964
751192
751416
751642
751870
752094
752320
752546
752770
752996
753218
753440
753664
753884
754104
754324
754544
754766
754988
755212
755438
755666
755896
756116
756354
756582
756808
757034
757260
757484
757710
757934
758156
758376
758602
758816
759042
759260
759476
759688
759902
760114
760316
760536
760752
760962
761174
761388
761596
761806
762016
762222
762430
762634
762840
763042
763246
763450
763654
763860
764068
764278
764490
764702
764912
765122
765328
765532
765736
765940
766148
766356
766562
766772
766982
767192
767404
767618
767830
768044
768256
768468
768680
768894
769106
769316
769530
769742
769952
770164
770374
770582
770794
771006
771218
771426
771636
771846
772054
772264
772470
772676
772884
773090
773298
773508
773716
773926
774126
774348
774562
774780
774996
775212
775430
775646
775862
776078
776298
776518
776740
776958
777174
777390
777600
777812
778018
778224
778432
778640
778846
779058
779270
779482
779694
779902
780114
780320
780528
780736
780944
781152
781362
781570
781774
781980
782182
782384
782582
782782
782978
783176
783372
783572
783774
783974
784176
784382
784588
784796
785000
785206
785404
785602
785800
785996
786192
786386
786582
786774
786966
787158
787336
787536
787724
787914
788102
788294
788484
788674
788864
789054
789244
789434
789628
789824
790022
790222
790428
790630
790834
791034
791234
791430
791622
791810
791998
792188
792376
792566
792760
792954
793150
793344
793536
793730
793922
794114
794306
794498
794688
794876
795064
795250
795440
795626
795812
795998
796180
796364
796548
796730
796912
797090
797272
797454
797638
797820
798006
798190
798378
798566
798754
798944
799138
799330
799528
799728
799928
800132
800334
800538
800738
800938
801134
801336
801540
801742
801946
802150
802352
802552
802748
802940
803130
803320
803508
803694
803884
804078
804280
804486
804656
804908
805114
805324
805536
805748
805958
806168
806376
806586
806798
807006
807214
807422
807630
807838
808050
808260
808472
808680
808890
809100
809306
809514
809720
809924
810126
810328
810526
810724
810922
811118
811316
811510
811706
811898
812090
812276
812460
812642
812826
813014
813208
813404
813606
813804
814004
814206
814408
814608
814804
814996
815184
815372
815558
815740
815924
816108
816292
816476
816658
816842
817024
817206
817386
817570
817752
817940
818128
818316
818510
818708
818906
819100
819296
819488
819688
819892
820100
820304
820512
820720
820926
821132
821332
821528
821722
821914
822102
822288
822480
822674
822870
823068
823266
823468
823672
823874
824074
824264
824472
824670
824866
825058
825250
825444
825636
825826
826018
826210
826404
826598
826792
826986
827180
827372
827562
827758
827950
828142
828336
828532
828728
828926
829122
829318
829512
829702
829894
830080
830268
830454
830638
830830
831026
831228
831434
831636
831836
832036
832230
832420
832606
832792
832976
833160
833348
833538
833724
833914
834104
834294
834474
834678
834868
835062
835258
835454
835648
835842
836038
836232
836428
836624
836824
837024
837222
837422
837618
837814
838010
838202
838398
838592
838784
838978
839166
839354
839542
839728
839914
840102
840292
840484
840676
840872
841072
841268
841466
841664
841862
842058
842254
842446
842642
842840
843038
843236
843434
843634
843828
844022
844216
844410
844600
844792
844984
845176
845366
845556
845744
845938
846130
846322
846516
846708
846898
847090
847284
847474
847662
847850
848036
848220
848400
848578
848744
848918
849086
849250
849412
849574
849732
849894
850056
850218
850384
850556
850736
850924
851110
851292
851480
851668
851860
852050
852240
852434
852628
852822
853022
853224
853426
853630
853834
854034
854236
854440
854644
854846
855050
855256
855460
855666
855874
856078
856286
856490
856694
856900
857102
857306
857508
857706
857906
858106
858308
858494
858708
858906
859104
859298
859492
859688
859876
860070
860260
860450
860638
860826
861018
861208
861398
861584
861772
861960
862146
862334
862526
862718
862910
863106
863306
863506
863706
863910
864116
864320
864526
864732
864940
865146
865352
865556
865762
865966
866168
866370
866576
866778
866982
867182
867382
867582
867782
867980
868178
868376
868572
868768
868966
869170
869374
869580
869788
869996
870208
870422
870634
870848
871062
871276
871490
871704
871920
872134
872346
872556
872766
872974
873180
873386
873588
873792
873994
874194
874394
874592
874794
875002
875200
875404
875606
875814
876020
876226
876432
876638
876842
877044
877246
877448
877642
877838
878034
878228
878422
878614
878808
879006
879204
879402
879602
879802
880002
880202
880402
880606
880810
881012
881216
881418
881610
881824
882026
882228
882432
882634
882836
883038
883242
883444
883646
883846
884048
884250
884450
884650
884850
885048
885248
885448
885650
885852
886054
886256
886460
886662
886864
887068
887272
887474
887674
887874
888074
888268
888470
888670
888872
889074
889276
889478
889678
889878
890074
890272
890468
890665
890860
891056
891252
891448
891646
891850
892054
892258
892462
892664
892868
893072
893276
893480
893682
893884
894084
894280
894478
894674
894870
895064
895258
895452
895644
895834
896024
896212
896400
896590
896782
896976
897172
897370
897570
897770
897970
898172
898374
898578
898780
898984
899188
899394
899598
899802
900008
900214
900420
900626
900832
901038
901244
901450
901656
901862
902068
902274
902480
902684
902890
903094
903296
903500
903700
903900
904100
904296
904496
904696
904894
905092
905288
905486
905682
905878
906076
906272
906468
906666
906862
907060
907256
907456
907654
907854
908056
908256
908456
908654
908850
909048
909232
909438
909634
909834
910032
910230
910430
910628
910828
911026
911224
911424
911622
911820
912020
912218
912416
912614
912816
913018
913218
913418
913616
913812
914008
914204
914404
914604
914804
915004
915202
915400
915598
915796
915994
916192
916390
916592
916792
916994
917194
917396
917598
917802
918006
918208
918414
918618
918824
919026
919228
919430
919630
919830
920032
920230
920430
920630
920828
921030
921230
921432
921632
921834
922034
922236
922438
922638
922840
923040
923242
923444
923644
923844
924044
924242
924442
924642
924838
925038
925238
925434
925634
925832
926030
926228
926428
926628
926828
927030
927230
927430
927632
927832
928032
928230
928430
928630
928828
929026
929224
929420
929616
929812
930008
930204
930402
930600
930798
930996
931194
931392
931590
931788
931986
932184
932384
932580
932778
932972
933168
933364
933560
933754
933952
934146
934342
934540
934736
934932
935130
935326
935522
935718
935910
936104
936296
936488
936680
936872
937066
937258
937450
937646
937842
938036
938234
938430
938628
938828
939026
939224
939424
939624
939822
940020
940218
940412
940608
940804
941000
941198
941396
941594
941792
941992
942192
942394
942594
942794
942996
943196
943394
943590
943786
943980
944172
944364
944554
944742
944930
945120
945308
945498
945684
945872
946058
946244
946428
946612
946796
946980
947162
947348
947532
947718
947906
948094
948282
948470
948658
948844
949030
949218
949410
949602
949796
949994
950194
950396
950596
950800
951002
951204
951404
951606
951806
952010
952214
952414
952618
952822
953024
953226
953426
953626
953826
954028
954228
954430
954634
954834
955036
955234
955432
955628
955826
956022
956220
956418
956618
956816
957016
957214
957412
957610
957808
958006
958206
958404
958604
958802
959000
959198
959396
959594
959792
959988
960186
960386
960586
960784
960982
961180
961378
961572
961768
961962
962156
962346
962540
962732
962926
963122
963318
963512
963708
963904
964100
964294
964490
964684
964878
965070
965266
965458
965652
965846
966038
966232
966424
966616
966808
967000
967194
967388
967580
967772
967966
968160
968352
968544
968738
968930
969122
969314
969504
969696
969886
970076
970266
970456
970644
970834
971020
971206
971394
971582
971772
971960
972150
972338
972528
972716
972904
973092
973278
973466
973656
973846
974038
974230
974422
974614
974806
974996
975186
975374
975564
975754
975946
976138
976332
976526
976720
976912
977106
977300
977496
977690
977884
978078
978272
978468
978662
978858
979052
979246
979440
979634
979830
980024
980218
980414
980608
980804
980996
981190
981382
981574
981766
981956
982148
982340
982534
982728
982922
983116
983308
983500
983688
983876
984066
984252
984436
984564
984784
984968
985150
985332
985512
985688
985864
986040
986216
986392
986564
986732
986847
986986
987196
987366
987540
987710
987880
988050
988218
988386
988556
988728
988902
989076
989250
989428
989602
989776
989952
990126
990300
990474
990646
990818
990984
991154
991320
991486
991654
991820
991984
992150
992316
992480
992646
992812
992978
993144
993312
993478
993646
993814
993980
994148
994318
994484
994652
994822
994986
995156
995324
995492
995656
995826
995990
996154
996322
996486
996654
996822
996988
997156
997324
997496
997666
997838
998010
998180
998352
998524
998696
998866
999038
999208
999380
999552
999726
999900
1000076
1000252
1000426
1000600
1000772
1000944
1001116
1001286
1001456
1001624
1001792
1001962
1002130
1002300
1002470
1002638
1002808
1002980
1003146
1003316
1003482
1003650
1003818
1003988
1004156
1004326
1004498
1004670
1004840
1005006
1005188
1005360
1005534
1005706
1005878
1006048
1006218
1006386
1006552
1006718
1006878
1007038
1007198
1007358
1007514
1007674
1007834
1007992
1008152
1008310
1008474
1008638
1008804
1008970
1009142
1009310
1009480
1009652
1009822
1009994
1010168
1010342
1010518
1010696
1010874
1011052
1011232
1011410
1011588
1011766
1011946
1012126
1012304
1012482
1012664
1012846
1013028
1013212
1013396
1013578
1013766
1013950
1014134
1014322
1014508
1014694
1014880
1015066
1015252
1015438
1015624
1015810
1016000
1016190
1016378
1016570
1016758
1016950
1017138
1017326
1017512
1017696
1017878
1018060
1018238
1018416
1018598
1018776
1018954
1019134
1019310
1019486
1019658
1019834
1020016
1020200
1020388
1020572
1020754
1020936
1021118
1021294
1021474
1021656
1021832
1022014
1022194
1022372
1022552
1022730
1022912
1023094
1023276
1023456
1023640
1023824
1024008
1024192
1024372
1024552
1024732
1024912
1025088
1025266
1025442
1025618
1025794
1025970
1026148
1026326
1026504
1026684
1026868
1027052
1027238
1027426
1027612
1027798
1027988
1028176
1028366
1028558
1028752
1028956
1029164
1029374
1029580
1029782
1029980
1030176
1030370
1030560
1030750
1030942
1031128
1031332
1031536
1031740
1031948
1032158
1032370
1032582
1032796
1033010
1033224
1033436
1033646
1033858
1034070
1034282
1034492
1034702
1034914
1035122
1035330
1035540
1035748
1035956
1036164
1036374
1036582
1036792
1037002
1037212
1037422
1037634
1037844
1038056
1038268
1038480
1038692
1038904
1039116
1039328
1039540
1039752
1039968
1040184
1040400
1040614
1040830
1041046
1041266
1041488
1041708
1041926
1042146
1042368
1042588
1042804
1043022
1043232
1043444
1043652
1043860
1044070
1044280
1044490
1044706
1044920
1045134
1045348
1045566
1045780
1045996
1046214
1046430
1046648
1046866
1047088
1047308
1047532
1047758
1047988
1048216
1048444
1048672
1048898
1049126
1049350
1049574
1049800
1050022
1050246
1050466
1050686
1050900
1051112
1051330
1051540
1051756
1051962
1052072
1052176
1052398
1052622
1052834
1053048
1053260
1053480
1053702
1053916
1054128
1054336
1054546
1054752
1054960
1055166
1055374
1055582
1055790
1055998
1056206
1056414
1056618
1056824
1057032
1057242
1057454
1057670
1057890
1058106
1058326
1058544
1058758
1058968
1059178
1059384
1059586
1059782
1059978
1060168
1060362
1060560
1060764
1060976
1061194
1061412
1061634
1061852
1062072
1062286
1062498
1062714
1062934
1063158
1063384
1063610
1063838
1064064
1064292
1064516
1064742
1064966
1065190
1065412
1065632
1065850
1066068
1066284
1066500
1066716
1066930
1067144
1067358
1067572
1067782
1067992
1068200
1068408
1068614
1068820
1069024
1069230
1069434
1069638
1069842
1070046
1070252
1070460
1070670
1070886
1071104
1071324
1071546
1071770
1071994
1072220
1072444
1072670
1072896
1073120
1073346
1073570
1073794
1074016
1074240
1074462
1074684
1074908
1075128
1075350
1075568
1075788
1076006
1076222
1076438
1076652
1076868
1077084
1077300
1077512
1077726
1077942
1078154
1078368
1078570
1078798
1079012
1079228
1079442
1079658
1079872
1080088
1080302
1080518
1080734
1080948
1081162
1081376
1081588
1081802
1082014
1082226
1082440
1082654
1082870
1083086
1083302
1083518
1083734
1083952
1084166
1084382
1084598
1084814
1085028
1085244
1085462
1085676
1085890
1086104
1086316
1086530
1086742
1086954
1087164
1087376
1087586
1087796
1088006
1088216
1088426
1088634
1088844
1089054
1089266
1089476
1089688
1089898
1090110
1090322
1090532
1090744
1090954
1091164
1091374
1091584
1091796
1092004
1092216
1092424
1092634
1092844
1093054
1093266
1093480
1093694
1093910
1094126
1094344
1094560
1094778
1094994
1095210
1095426
1095642
1095858
1096072
1096286
1096498
1096628
1096740
1097008
1097226
1097444
1097662
1097876
1098092
1098310
1098526
1098744
1098960
1099178
1099396
1099612
1099828
1100046
1100262
1100480
1100696
1100914
1101132
1101350
1101566
1101782
1101992
1102214
1102430
1102644
1102858
1103074
1103290
1103506
1103724
1103942
1104160
1104380
1104598
1104816
1105036
1105254
1105474
1105692
1105912
1106128
1106346
1106566
1106786
1107006
1107224
1107442
1107662
1107880
1108100
1108318
1108536
1108752
1108970
1109188
1109404
1109622
1109840
1110056
1110272
1110484
1110694
1110910
1111120
1111328
1111536
1111742
1111948
1112152
1112356
1112558
1112758
1112958
1113160
1113360
1113560
1113762
1113966
1114170
1114374
1114582
1114788
1114996
1115204
1115414
1115626
1115838
1116050
1116262
1116474
1116686
1116898
1117110
1117320
1117530
1117742
1117952
1118162
1118370
1118576
1118782
1118988
1119192
1119396
1119598
1119798
1120000
1120204
1120406
1120608
1120808
1121010
1121206
1121414
1121618
1121822
1122028
1122234
1122440
1122650
1122858
1123070
1123282
1123494
1123708
1123920
1124132
1124318
1124564
1124780
1124996
1125210
1125426
1125640
1125852
1126066
1126278
1126488
1126700
1126910
1127120
1127332
1127546
1127758
1127970
1128184
1128396
1128608
1128818
1129030
1129242
1129454
1129664
1129878
1130090
1130304
1130518
1130734
1130950
1131168
1131386
1131602
1131820
1132036
1132252
1132468
1132684
1132898
1133114
1133330
1133546
1133764
1133980
1134198
1134418
1134636
1134854
1135074
1135290
1135508
1135724
1135942
1136158
1136376
1136596
1136818
1137036
1137256
1137474
1137692
1137910
1138128
1138346
1138564
1138780
1138996
1139214
1139428
1139644
1139858
1140074
1140286
1140502
1140714
1140928
1141138
1141350
1141562
1141772
1141984
1142192
1142398
1142604
1142810
1143018
1143226
1143432
1143638
1143842
1144046
1144248
1144448
1144648
1144850
1145054
1145260
1145470
1145684
1145900
1146120
1146340
1146560
1146780
1147000
1147222
1147444
1147666
1147888
1148110
1148332
1148556
1148778
1148998
1149216
1149434
1149652
1149866
1150080
1150292
1150504
1150718
1150930
1151142
1151352
1151564
1151772
1151982
1152194
1152404
1152614
1152826
1153038
1153250
1153462
1153672
1153882
1154090
1154298
1154506
1154714
1154922
1155130
1155340
1155550
1155760
1155972
1156182
1156398
1156612
1156828
1157042
1157254
1157470
1157684
1157894
1158104
1158314
1158522
1158728
1158934
1159136
1159338
1159538
1159744
1159948
1160154
1160364
1160572
1160784
1160996
1161212
1161426
1161642
1161856
1162070
1162282
1162490
1162698
1162904
1163108
1163312
1163514
1163714
1163914
1164116
1164314
1164512
1164710
1164902
1165096
1165288
1165478
1165670
1165858
1166048
1166238
1166424
1166610
1166796
1166984
1167172
1167356
1167542
1167728
1167912
1168098
1168282
1168464
1168646
1168828
1169006
1169188
1169366
1169542
1169722
1169902
1170080
1170258
1170436
1170612
1170790
1170970
1171148
1171326
1171506
1171686
1171866
1172048
1172228
1172410
1172594
1172774
1172958
1173142
1173328
1173514
1173700
1173888
1174078
1174266
1174458
1174646
1174838
1175028
1175218
1175408
1175598
1175786
1175973
1176164
1176350
1176534
1176720
1176906
1177094
1177280
1177466
1177656
1177842
1178028
1178216
1178404
1178590
1178778
1178966
1179156
1179344
1179534
1179722
1179912
1180100
1180290
1180478
1180664
1180856
1181046
1181240
1181436
1181628
1181822
1182016
1182210
1182406
1182600
1182792
1182986
1183178
1183370
1183562
1183754
1183944
1184134
1184322
1184510
1184696
1184882
1185066
1185248
1185432
1185612
1185778
1185972
1186150
1186328
1186506
1186670
1186856
1187030
1187204
1187376
1187546
1187718
1187888
1188054
1188224
1188394
1188560
1188732
1188902
1189074
1189248
1189422
1189600
1189778
1189958
1190140
1190324
1190506
1190688
1190870
1191052
1191238
1191422
1191610
1191798
1191988
1192178
1192368
1192560
1192752
1192944
1193136
1193330
1193520
1193714
1193909
1194098
1194290
1194484
1194674
1194868
1195062
1195254
1195450
1195642
1195836
1196032
1196226
1196418
1196614
1196810
1197004
1197198
1197396
1197592
1197790
1197990
1198186
1198384
1198584
1198784
1198982
1199184
1199384
1199584
1199784
1199982
1200182
1200378
1200572
1200768
1200962
1201152
1201342
1201528
1201718
1201908
1202098
1202290
1202484
1202678
1202870
1203062
1203254
1203444
1203634
1203822
1204012
1204202
1204390
1204578
1204766
1204952
1205140
1205328
1205512
1205700
1205890
1206078
1206268
1206458
1206646
1206836
1207028
1207218
1207408
1207600
1207788
1207976
1208164
1208348
1208536
1208718
1208886
1209086
1209272
1209458
1209646
1209830
1210020
1210208
1210398
1210586
1210776
1210964
1211152
1211338
1211528
1211720
1211916
1212112
1212312
1212508
1212708
1212906
1213106
1213304
1213504
1213704
1213904
1214102
1214300
1214496
1214694
1214888
1215084
1215280
1215474
1215666
1215858
1216052
1216246
1216440
1216632
1216826
1217022
1217216
1217406
1217600
1217794
1217988
1218184
1218378
1218570
1218764
1218960
1219152
1219350
1219548
1219746
1219946
1220148
1220350
1220550
1220754
1220958
1221162
1221366
1221570
1221776
1221982
1222190
1222398
1222610
1222818
1223030
1223244
1223454
1223668
1223884
1224096
1224310
1224524
1224736
1224946
1225156
1225364
1225570
1225778
1225986
1226194
1226404
1226614
1226824
1227036
1227248
1227458
1227670
1227882
1228092
1228304
1228520
1228732
1228940
1229148
1229358
1229564
1229774
1229986
1230200
1230414
1230632
1230848
1231062
1231278
1231490
1231702
1231912
1232120
1232328
1232536
1232740
1232944
1233150
1233356
1233564
1233770
1233976
1234184
1234390
1234596
1234796
1234998
1235198
1235398
1235594
1235790
1235986
1236184
1236382
1236580
1236780
1236974
1237172
1237368
1237564
1237756
1237944
1238134
1238324
1238512
1238702
1238890
1239082
1239274
1239468
1239660
1239852
1240046
1240240
1240434
1240628
1240822
1241018
1241216
1241412
1241606
1241798
1241984
1242170
1242354
1242536
1242718
1242902
1243084
1243270
1243454
1243640
1243826
1244012
1244196
1244380
1244564
1244748
1244930
1245114
1245294
1245472
1245652
1245832
1246012
1246194
1246378
1246516
1246748
1246936
1247124
1247316
1247506
1247698
1247888
1248074
1248262
1248450
1248640
1248830
1249018
1249210
1249402
1249600
1249800
1250004
1250210
1250416
1250626
1250836
1251044
1251252
1251458
1251664
1251866
1252068
1252268
1252466
1252666
1252864
1253064
1253264
1253466
1253668
1253872
1254074
1254278
1254482
1254684
1254884
1255084
1255284
1255480
1255680
1255878
1256076
1256276
1256476
1256676
1256876
1257076
1257276
1257476
1257678
1257876
1258072
1258266
1258462
1258658
1258854
1259050
1259250
1259452
1259652
1259856
1260060
1260264
1260470
1260678
1260888
1261092
1261298
1261502
1261710
1261916
1262122
1262336
1262548
1262760
1262972
1263186
1263396
1263612
1263830
1264046
1264266
1264488
1264710
1264932
1265154
1265372
1265590
1265806
1266022
1266232
1266452
1266666
1266880
1267096
1267308
1267526
1267744
1267960
1268180
1268398
1268618
1268834
1269046
1269262
1269474
1269684
1269898
1270108
1270322
1270538
1270754
1270972
1271188
1271404
1271622
1271840
1272058
1272274
1272492
1272710
1272928
1273150
1273370
1273592
1273816
1274036
1274262
1274486
1274706
1274924
1275142
1275356
1275570
1275784
1276000
1276214
1276430
1276646
1276864
1277084
1277302
1277518
1277732
1277944
1278156
1278370
1278582
1278796
1279008
1279222
1279436
1279650
1279864
1280076
1280292
1280506
1280720
1280934
1281150
1281364
1281582
1281800
1282016
1282234
1282452
1282670
1282884
1283100
1283314
1283528
1283742
1283954
1284166
1284378
1284590
1284802
1285014
1285224
1285436
1285648
1285858
1286068
1286278
1286488
1286696
1286906
1287114
1287322
1287528
1287736
1287940
1288144
1288352
1288556
1288762
1288968
1289174
1289376
1289578
1289782
1289980
1290180
1290380
1290580
1290782
1290984
1291188
1291394
1291598
1291802
1292008
1292214
1292422
1292628
1292836
1293040
1293246
1293452
1293660
1293868
1294072
1294280
1294486
1294690
1294898
1295106
1295314
1295524
1295732
1295940
1296150
1296358
1296572
1296784
1296998
1297208
1297420
1297630
1297838
1298044
1298252
1298460
1298672
1298882
1299092
1299302
1299512
1299722
1299932
1300144
1300356
1300568
1300778
1300988
1301198
1301406
1301616
1301828
1302036
1302244
1302456
1302666
1302874
1303086
1303300
1303508
1303722
1303934
1304146
1304360
1304572
1304784
1304998
1305212
1305424
1305638
1305852
1306068
1306282
1306498
1306714
1306930
1307146
1307358
1307576
1307790
1308004
1308220
1308434
1308648
1308864
1309076
1309292
1309508
1309720
1309936
1310152
1310366
1310578
1310792
1311008
1311220
1311436
1311648
1311862
1312072
1312284
1312496
1312704
1312910
1313118
1313326
1313534
1313740
1313950
1314158
1314368
1314578
1314786
1314996
1315204
1315410
1315620
1315824
1316032
1316238
1316444
1316652
1316856
1317064
1317270
1317478
1317686
1317896
1318106
1318318
1318528
1318738
1318946
1319154
1319360
1319568
1319776
1319988
1320200
1320414
1320626
1320840
1321052
1321260
1321470
1321678
1321886
1322094
1322304
1322512
1322724
1322932
1323140
1323350
1323556
1323764
1323974
1324180
1324392
1324596
1324804
1325010
1325214
1325422
1325626
1325832
1326038
1326242
1326446
1326650
1326856
1327062
1327268
1327474
1327680
1327882
1328082
1328282
1328488
1328692
1328894
1329098
1329298
1329500
1329700
1329896
1330092
1330284
1330476
1330666
1330858
1331054
1331256
1331474
1331680
1331920
1332140
1332362
1332580
1332800
1333016
1333230
1333446
1333662
1333876
1334082
1334302
1334514
1334722
1334930
1335140
1335346
1335552
1335762
1335970
1336182
1336396
1336608
1336822
1337038
1337256
1337476
1337698
1337844
1338110
1338348
1338578
1338810
1339040
1339268
1339494
1339722
1339946
1340170
1340394
1340620
1340840
1341060
1341284
1341500
1341722
1341940
1342158
1342378
1342596
1342816
1343034
1343254
1343474
1343696
1343920
1344142
1344364
1344588
1344808
1345028
1345248
1345464
1345682
1345900
1346116
1346332
1346548
1346762
1346976
1347188
1347394
1347602
1347806
1348014
1348222
1348430
1348638
1348848
1349060
1349268
1349476
1349686
1349894
1350104
1350300
1350524
1350734
1350948
1351164
1351378
1351594
1351814
1352030
1352248
1352466
1352686
1352906
1353124
1353342
1353558
1353772
1353986
1354202
1354416
1354630
1354844
1355058
1355272
1355486
1355702
1355918
1356132
1356346
1356556
1356764
1356970
1357178
1357386
1357594
1357806
1358022
1358236
1358456
1358674
1358894
1359114
1359334
1359552
1359770
1359988
1360202
1360418
1360634
1360850
1361062
1361276
1361488
1361700
1361910
1362122
1362330
1362540
1362754
1362964
1363178
1363392
1363608
1363826
1364046
1364268
1364488
1364708
1364928
1365148
1365366
1365584
1365802
1366020
1366238
1366458
1366676
1366900
1367122
1367344
1367566
1367786
1368008
1368230
1368450
1368672
1368894
1369114
1369334
1369552
1369768
1369980
1370190
1370398
1370604
1370812
1371020
1371230
1371444
1371656
1371870
1372084
1372296
1372514
1372726
1372938
1373150
1373362
1373574
1373784
1373996
1374210
1374422
1374634
1374846
1375060
1375274
1375492
1375708
1375922
1376138
1376350
1376562
1376774
1376984
1377194
1377402
1377612
1377818
1378028
1378236
1378446
1378654
1378862
1379074
1379282
1379492
1379706
1379914
1380128
1380342
1380558
1380774
1380992
1381208
1381426
1381646
1381864
1382082
1382300
1382518
1382734
1382950
1383164
1383378
1383594
1383808
1384024
1384240
1384458
1384678
1384894
1385114
1385336
1385556
1385776
1385926
1386188
1386416
1386640
1386862
1387084
1387306
1387528
1387748
1387970
1388192
1388412
1388632
1388850
1389070
1389288
1389504
1389724
1389946
1390166
1390386
1390608
1390826
1391044
1391262
1391480
1391696
1391914
1392130
1392346
1392562
1392776
1392988
1393202
1393414
1393626
1393840
1394052
1394266
1394480
1394692
1394906
1395116
1395328
1395538
1395748
1395962
1396176
1396388
1396600
1396816
1397034
1397252
1397468
1397688
1397904
1398120
1398336
1398552
1398768
1398984
1399202
1399416
1399632
1399848
1400060
1400276
1400488
1400702
1400914
1401124
1401334
1401542
1401750
1401958
1402162
1402368
1402522
1402776
1402980
1403188
1403396
1403606
1403818
1404030
1404244
1404454
1404666
1404882
1405098
1405312
1405528
1405740
1405952
1406164
1406372
1406584
1406794
1407008
1407222
1407436
1407654
1407854
1408090
1408306
1408524
1408742
1408960
1409178
1409396
1409612
1409828
1410046
1410262
1410478
1410694
1410906
1411120
1411334
1411546
1411760
1411974
1412188
1412402
1412622
1412838
1413054
1413260
1413474
1413692
1413912
1414132
1414350
1414570
1414788
1415008
1415228
1415448
1415670
1415890
1416114
1416336
1416560
1416782
1417008
1417232
1417456
1417680
1417904
1418128
1418352
1418576
1418800
1419020
1419240
1419460
1419680
1419900
1420124
1420344
1420558
1420788
1421010
1421232
1421454
1421674
1421894
1422116
1422336
1422558
1422778
1423000
1423222
1423442
1423662
1423880
1424098
1424314
1424530
1424746
1424960
1425170
1425382
1425590
1425798
1426006
1426212
1426418
1426620
1426826
1427032
1427236
1427440
1427646
1427850
1428052
1428252
1428450
1428646
1428840
1429034
1429224
1429414
1429604
1429794
1429982
1430170
1430360
1430552
1430742
1430936
1431130
1431326
1431520
1431716
1431910
1432104
1432298
1432490
1432682
1432874
1433066
1433260
1433452
1433644
1433838
1434030
1434222
1434414
1434602
1434792
1434982
1435172
1435364
1435556
1435748
1435940
1436134
1436328
1436522
1436714
1436910
1437112
1437302
1437496
1437692
1437888
1438086
1438278
1438476
1438672
1438866
1439062
1439260
1439454
1439652
1439854
1440056
1440260
1440468
1440676
1440886
1441096
1441302
1441510
1441718
1441924
1442128
1442328
1442528
1442732
1442932
1443136
1443342
1443550
1443758
1443970
1444182
1444392
1444604
1444816
1445026
1445238
1445450
1445666
1445880
1446094
1446308
1446522
1446738
1446956
1447170
1447388
1447606
1447824
1448044
1448262
1448482
1448700
1448918
1449134
1449350
1449564
1449778
1449982
1450204
1450420
1450632
1450842
1451050
1451250
1451456
1451660
1451858
1452056
1452252
1452450
1452646
1452846
1453044
1453248
1453458
1453670
1453886
1454106
1454330
1454558
1454784
1455016
1455250
1455482
1455716
1455950
1456184
1456416
1456650
1456884
1457108
1457334
1457554
1457774
1457994
1458212
1458426
1458636
1458842
1459046
1459246
1459444
1459640
1459834
1460026
1460216
1460406
1460596
1460786
1460976
1461164
1461350
1461538
1461724
1461910
1462096
1462284
1462472
1462664
1462852
1463044
1463236
1463430
1463624
1463818
1464014
1464214
1464412
1464612
1464810
1465010
1465210
1465408
1465606
1465804
1466002
1466202
1466400
1466600
1466802
1467002
1467208
1467412
1467616
1467822
1468028
1468234
1468442
1468648
1468856
1469064
1469268
1469476
1469680
1469886
1470092
1470296
1470502
1470708
1470916
1471122
1471326
1471530
1471734
1471934
1472136
1472334
1472532
1472730
1472926
1473124
1473318
1473514
1473708
1473902
1474094
1474288
1474482
1474676
1474872
1475068
1475264
1475462
1475664
1475866
1476070
1476274
1476476
1476682
1476886
1477092
1477298
1477502
1477708
1477916
1478120
1478326
1478530
1478732
1478938
1479142
1479346
1479552
1479756
1479962
1480168
1480372
1480578
1480784
1480988
1481192
1481400
1481604
1481808
1482012
1482214
1482414
1482616
1482814
1483014
1483212
1483410
1483608
1483810
1484010
1484212
1484414
1484618
1484822
1485022
1485224
1485428
1485628
1485832
1486032
1486232
1486434
1486630
1486828
1487026
1487220
1487416
1487612
1487804
1488000
1488194
1488390
1488584
1488784
1488982
1489182
1489384
1489588
1489792
1489996
1490198
1490404
1490612
1490816
1491032
1491246
1491460
1491676
1491892
1492106
1492322
1492536
1492748
1492956
1493164
1493370
1493576
1493782
1493986
1494188
1494390
1494588
1494788
1494988
1495184
1495380
1495576
1495772
1495966
1496160
1496354
1496546
1496736
1496926
1497114
1497304
1497494
1497682
1497874
1498068
1498260
1498454
1498648
1498844
1499038
1499236
1499432
1499628
1499828
1500028
1500232
1500436
1500642
1500852
1501062
1501274
1501488
1501702
1501918
1502136
1502354
1502572
1502794
1503016
1503238
1503458
1503680
1503898
1504118
1504326
1504556
1504774
1504990
1505206
1505418
1505632
1505844
1506056
1506266
1506476
1506688
1506894
1507102
1507308
1507512
1507718
1507924
1508128
1508334
1508538
1508742
1508948
1509156
1509362
1509570
1509780
1509988
1510198
1510410
1510620
1510834
1511048
1511260
1511472
1511684
1511896
1512106
1512316
1512526
1512732
1512940
1513148
1513350
1513554
1513756
1513958
1514160
1514364
1514570
1514776
1514982
1515192
1515400
1515610
1515822
1516030
1516244
1516456
1516668
1516878
1517090
1517298
1517506
1517714
1517922
1518132
1518338
1518546
1518754
1518964
1519174
1519385
1519588
1519794
1519998
1520204
1520408
1520608
1520810
1521012
1521212
1521414
1521616
1521818
1522018
1522220
1522424
1522624
1522826
1523030
1523232
1523436
1523640
1523840
1524048
1524252
1524458
1524662
1524864
1525066
1525266
1525464
1525664
1525864
1526064
1526266
1526470
1526672
1526876
1527082
1527288
1527498
1527708
1527918
1528132
1528344
1528556
1528768
1528982
1529192
1529404
1529618
1529830
1530042
1530256
1530470
1530680
1530894
1531106
1531314
1531526
1531734
1531944
1532150
1532358
1532568
1532774
1532978
1533184
1533390
1533594
1533798
1534000
1534200
1534396
1534594
1534792
1534992
1535190
1535392
1535596
1535802
1536006
1536214
1536422
1536628
1536836
1537044
1537250
1537454
1537662
1537866
1538074
1538280
1538486
1538694
1538898
1539102
1539308
1539510
1539714
1539916
1540114
1540312
1540510
1540706
1540898
1541092
1541282
1541472
1541660
1541846
1542030
1542212
1542394
1542574
1542752
1542930
1543106
1543282
1543456
1543634
1543812
1543988
1544168
1544350
1544534
1544718
1544904
1545088
1545276
1545462
1545650
1545838
1546028
1546218
1546408
1546596
1546784
1546972
1547158
1547342
1547524
1547702
1547882
1548060
1548238
1548414
1548590
1548762
1548936
1549110
1549280
1549452
1549620
1549790
1549960
1550132
1550302
1550474
1550646
1550818
1550992
1551164
1551342
1551518
1551692
1551868
1552044
1552216
1552392
1552568
1552744
1552918
1553094
1553270
1553444
1553618
1553794
1553966
1554140
1554314
1554488
1554652
1554834
1555008
1555184
1555362
1555538
1555716
1555896
1556078
1556262
1556442
1556622
1556804
1556986
1557170
1557352
1557534
1557718
1557902
1558086
1558270
1558454
1558642
1558828
1559018
1559204
1559392
1559580
1559772
1559962
1560152
1560346
1560534
1560728
1560918
1561108
1561300
1561488
1561678
1561870
1562060
1562250
1562442
1562634
1562826
1563018
1563210
1563400
1563592
1563786
1563980
1564174
1564370
1564564
1564758
1564952
1565146
1565340
1565534
1565728
1565924
1566116
1566312
1566506
1566698
1566892
1567076
1567278
1567470
1567664
1567860
1568054
1568252
1568448
1568644
1568842
1569040
1569236
1569432
1569628
1569824
1570018
1570214
1570410
1570604
1570798
1570994
1571188
1571382
1571576
1571766
1571960
1572152
1572344
1572538
1572732
1572926
1573124
1573326
1573526
1573728
1573934
1574138
1574346
1574554
1574760
1574970
1575178
1575384
1575594
1575804
1576010
1576218
1576428
1576634
1576840
1577046
1577252
1577456
1577662
1577866
1578070
1578274
1578476
1578678
1578882
1579082
1579286
1579488
1579686
1579888
1580084
1580280
1580476
1580668
1580860
1581052
1581240
1581426
1581618
1581802
1581988
1582176
1582364
1582550
1582740
1582930
1583118
1583314
1583510
1583704
1583900
1584094
1584284
1584476
1584668
1584854
1585044
1585232
1585422
1585612
1585806
1585998
1586190
1586386
1586580
1586772
1586968
1587162
1587356
1587550
1587744
1587938
1588130
1588324
1588518
1588710
1588902
1589096
1589292
1589480
1589674
1589868
1590062
1590254
1590448
1590642
1590834
1591028
1591220
1591398
1591604
1591794
1591984
1592176
1592366
1592554
1592744
1592932
1593120
1593308
1593496
1593682
1593872
1594060
1594250
1594442
1594632
1594824
1595016
1595208
1595404
1595598
1595792
1595986
1596178
1596374
1596568
1596762
1596958
1597156
1597356
1597556
1597760
1597960
1598164
1598368
1598574
1598780
1598988
1599196
1599402
1599608
1599806
1600018
1600220
1600422
1600620
1600820
1601004
1601214
1601410
1601604
1601802
1602000
1602194
1602390
1602588
1602786
1602984
1603184
1603382
1603580
1603782
1603980
1604180
1604380
1604580
1604778
1604976
1605176
1605376
1605580
1605788
1605994
1606206
1606416
1606628
1606842
1607054
1607264
1607476
1607684
1607896
1608108
1608320
1608532
1608746
1608958
1609168
1609382
1609596
1609802
1610004
1610208
1610408
1610610
1610804
1611000
1611194
1611386
1611574
1611760
1611946
1612130
1612312
1612490
1612674
1612856
1613038
1613220
1613404
1613586
1613768
1613950
1614134
1614316
1614496
1614680
1614866
1615050
1615236
1615422
1615608
1615794
1615982
1616168
1616354
1616542
1616726
1616916
1617100
1617286
1617470
1617656
1617842
1618026
1618212
1618396
1618582
1618766
1618952
1619134
1619316
1619500
1619680
1619860
1620038
1620216
1620396
1620574
1620750
1620930
1621106
1621284
1621462
1621640
1621816
1621992
1622168
1622328
1622518
1622694
1622868
1623046
1623222
1623398
1623576
1623754
1623930
1624106
1624282
1624458
1624634
1624806
1624982
1625156
1625330
1625506
1625680
1625854
1626030
1626204
1626380
1626556
1626730
1626906
1627088
1627270
1627454
1627636
1627820
1628004
1628190
1628376
1628562
1628744
1628926
1629108
1629288
1629468
1629646
1629826
1630008
1630186
1630366
1630544
1630720
1630894
1631070
1631242
1631416
1631590
1631762
1631936
1632108
1632282
1632454
1632624
1632792
1632960
1633130
1633292
1633458
1633624
1633788
1633954
1634122
1634286
1634452
1634618
1634784
1634948
1635112
1635280
1635450
1635616
1635790
1635966
1636142
1636322
1636504
1636684
1636866
1637048
1637232
1637416
1637598
1637784
1637968
1638152
1638336
1638522
1638706
1638894
1639082
1639270
1639458
1639646
1639838
1640028
1640218
1640406
1640596
1640784
1640974
1641160
1641350
1641538
1641726
1641914
1642102
1642288
1642472
1642660
1642844
1643028
1643214
1643398
1643582
1643766
1643950
1644132
1644318
1644504
1644690
1644878
1645066
1645256
1645444
1645628
1645818
1646006
1646190
1646378
1646566
1646750
1646938
1647124
1647306
1647496
1647684
1647870
1648054
1648236
1648420
1648608
1648796
1648990
1649180
1649370
1649562
1649752
1649942
1650128
1650318
1650506
1650690
1650876
1651064
1651252
1651440
1651628
1651818
1652010
1652202
1652396
1652590
1652786
1652984
1653180
1653376
1653570
1653762
1653952
1654142
1654330
1654520
1654710
1654898
1655088
1655278
1655466
1655654
1655840
1656026
1656210
1656392
1656572
1656750
1656926
1657102
1657278
1657454
1657632
1657808
1657984
1658160
1658336
1658510
1658688
1658866
1659040
1659218
1659398
1659578
1659760
1659944
1660130
1660316
1660504
1660692
1660876
1661066
1661256
1661444
1661634
1661826
1662018
1662212
1662406
1662604
1662800
1662998
1663198
1663400
1663602
1663806
1664012
1664220
1664430
1664642
1664854
1665066
1665278
1665492
1665702
1665916
1666130
1666344
1666558
1666774
1666990
1667204
1667418
1667632
1667844
1668056
1668266
1668476
1668682
1668886
1669088
1669286
1669482
1669678
1669874
1670068
1670262
1670458
1670650
1670848
1671046
1671246
1671444
1671644
1671842
1672040
1672238
1672438
1672636
1672838
1673042
1673244
1673446
1673648
1673848
1674052
1674250
1674452
1674654
1674854
1675060
1675262
1675456
1675674
1675884
1676094
1676304
1676516
1676726
1676938
1677148
1677360
1677562
1677780
1677992
1678202
1678412
1678624
1678834
1679044
1679254
1679462
1679670
1679876
1680082
1680288
1680494
1680700
1680904
1681110
1681312
1681518
1681722
1681926
1682132
1682338
1682542
1682746
1682948
1683148
1683348
1683548
1683746
1683946
1684144
1684340
1684536
1684734
1684934
1685054
1685304
1685510
1685716
1685920
1686126
1686332
1686538
1686750
1686964
1687180
1687396
1687614
1687832
1688048
1688264
1688480
1688692
1688906
1689118
1689328
1689542
1689754
1689966
1690182
1690394
1690606
1690818
1691030
1691238
1691446
1691656
1691864
1692072
1692278
1692482
1692684
1692882
1693092
1693296
1693500
1693706
1693912
1694116
1694324
1694530
1694736
1694942
1695150
1695354
1695558
1695762
1695968
1696170
1696374
1696580
1696788
1696994
1697200
1697402
1697604
1697806
1698006
1698206
1698402
1698598
1698788
1698980
1699174
1699360
1699550
1699740
1699928
1700116
1700306
1700490
1700676
1700866
1701054
1701242
1701428
1701620
1701814
1702010
1702206
1702404
1702602
1702800
1703000
1703200
1703402
1703598
1703798
1703998
1704200
1704400
1704598
1704796
1704992
1705188
1705382
1705574
1705766
1705956
1706144
1706330
1706520
1706706
1706894
1707082
1707268
1707458
1707650
1707838
1708030
1708220
1708408
1708598
1708788
1708976
1709168
1709360
1709550
1709740
1709930
1710120
1710312
1710504
1710694
1710884
1711072
1711260
1711448
1711638
1711824
1712012
1712200
1712384
1712572
1712756
1712942
1713126
1713310
1713492
1713672
1713854
1714034
1714216
1714394
1714574
1714758
1714940
1715126
1715310
1715496
1715680
1715864
1716052
1716240
1716430
1716618
1716808
1716998
1717188
1717376
1717562
1717750
1717936
1718122
1718310
1718498
1718686
1718874
1719062
1719250
1719438
1719626
1719814
1720002
1720190
1720376
1720560
1720746
1720928
1721110
1721294
1721476
1721658
1721842
1722026
1722210
1722394
1722578
1722762
1722944
1723126
1723306
1723490
1723670
1723854
1724036
1724220
1724404
1724590
1724772
1724956
1725140
1725324
1725510
1725694
1725880
1726068
1726258
1726448
1726642
1726836
1727028
1727222
1727416
1727608
1727800
1727994
1728186
1728378
1728572
1728764
1728958
1729150
1729346
1729536
1729730
1729924
1730120
1730316
1730516
1730718
1730922
1731128
1731340
1731550
1731760
1731970
1732182
1732394
1732608
1732820
1733032
1733244
1733456
1733666
1733874
1734082
1734288
1734494
1734700
1734906
1735110
1735316
1735522
1735724
1735926
1736128
1736330
1736530
1736732
1736930
1737128
1737326
1737524
1737718
1737916
1738114
1738308
1738506
1738702
1738896
1739092
1739288
1739480
1739672
1739866
1740060
1740252
1740446
1740640
1740836
1741032
1741230
1741428
1741626
1741816
1742018
1742214
1742408
1742604
1742800
1742996
1743188
1743380
1743570
1743758
1743944
1744130
1744314
1744498
1744678
1744860
1745038
1745218
1745394
1745568
1745748
1745930
1746114
1746296
1746478
1746658
1746845
1747022
1747206
1747388
1747572
1747754
1747938
1748122
1748302
1748486
1748672
1748854
1749040
1749226
1749416
1749606
1749796
1749990
1750186
1750382
1750582
1750782
1750986
1751190
1751392
1751596
1751800
1752004
1752208
1752412
1752616
1752820
1753022
1753226
1753424
1753624
1753822
1754022
1754220
1754418
1754614
1754806
1755003
1755192
1755382
1755576
1755768
1755966
1756168
1756374
1756584
1756796
1757012
1757230
1757452
1757674
1757894
1758114
1758332
1758558
1758778
1759000
1759216
1759434
1759652
1759868
1760082
1760296
1760510
1760726
1760942
1761160
1761380
1761600
1761822
1762046
1762268
1762486
1762704
1762918
1763132
1763342
1763556
1763764
1763976
1764188
1764402
1764614
1764828
1765044
1765258
1765474
1765692
1765910
1766132
1766356
1766578
1766802
1767032
1767260
1767490
1767720
1767948
1768180
1768406
1768634
1768862
1769090
1769314
1769540
1769766
1769988
1770212
1770434
1770654
1770874
1771094
1771314
1771534
1771750
1771966
1772180
1772340
1772608
1772826
1773044
1773262
1773478
1773710
1773932
1774144
1774356
1774570
1774776
1774980
1775182
1775382
1775578
1775772
1775964
1776152
1776338
1776526
1776724
1776924
1777130
1777342
1777560
1777784
1778008
1778230
1778458
1778682
1778904
1779128
1779344
1779580
1779806
1780030
1780254
1780482
1780706
1780934
1781156
1781376
1781596
1781814
1782032
1782248
1782462
1782674
1782890
1783106
1783322
1783542
1783760
1783978
1784204
1784420
1784642
1784862
1785084
1785304
1785524
1785744
1785966
1786188
1786408
1786628
1786848
1787064
1787280
1787496
1787714
1787928
1788144
1788362
1788578
1788794
1789012
1789228
1789444
1789662
1789878
1790092
1790310
1790526
1790742
1790960
1791176
1791394
1791614
1791830
1792048
1792266
1792480
1792696
1792914
1793128
1793342
1793558
1793770
1793982
1794194
1794408
1794622
1794840
1795056
1795272
1795488
1795700
1795912
1796124
1796334
1796546
1796760
1796968
1797180
1797394
1797606
1797822
1798036
1798250
1798464
1798678
1798892
1799108
1799322
1799536
1799752
1799964
