peaks
58
271
478
682
898
1098
1306
1506
1700
1892
2088
2288
2486
2680
2870
3064
3262
3464
3662
3856
4048
4246
4448
4654
4856
5048
5240
5440
5642
5848
6046
6242
6440
6640
6842
7042
7246
7464
7684
7902
8108
8312
8518
8726
8938
9142
9346
9552
9758
9968
10178
10382
10584
10788
10996
11200
11400
11598
11798
12000
12196
12392
12584
12780
12976
13172
13364
13554
13744
13942
14136
14330
14518
14710
14906
15106
15310
15514
15714
15916
16128
16344
16560
16764
16970
17180
17388
17594
17794
17994
18196
18396
18598
18792
18984
19178
19380
19582
19778
19970
20160
20350
20544
20738
20930
21120
21308
21502
21698
21890
22078
22266
22452
22644
22832
23022
23214
23406
23604
23808
24010
24210
24412
24616
24824
25020
25214
25404
25602
25800
25996
26188
26378
26570
26764
26964
27166
27362
27554
27752
27958
28166
28372
28572
28776
28984
29196
29402
29598
29792
29988
30186
30384
30578
30766
30960
31160
31364
31568
31768
31972
32184
32398
32608
32810
33016
33222
33436
33640
33834
34028
34222
34416
34616
34814
35008
35202
35398
35600
35804
36004
36206
36410
36618
36824
37028
37224
37420
37622
37822
38026
38222
38418
38620
38820
39020
39218
39416
39618
39822
40026
40226
40426
40626
40836
41048
41252
41452
41658
41868
42086
42302
42508
42722
42938
43154
43360
43560
43756
43952
44160
44364
44564
44756
44948
45142
45334
45528
45718
45904
46094
46290
46484
46676
46868
47060
47256
47454
47648
47842
48034
48234
48436
48638
48840
49036
49234
49432
49630
49826
50018
50212
50412
50616
50816
51010
51204
51404
51606
51810
52008
52204
52404
52602
52806
53008
53206
53412
53622
53832
54034
54232
54432
54630
54828
55020
55208
55392
55582
55772
55962
56148
56338
56530
56728
56924
57114
57308
57506
57706
57908
58102
58296
58488
58680
58878
59076
59270
59460
59648
59838
60026
60214
60402
60588
60774
60966
61158
61352
61542
61736
61938
62150
62362
62568
62772
62982
63200
63414
63624
63832
64048
64270
64492
64704
64910
65124
65346
65566
65780
65984
66188
66390
66592
66790
66982
67178
67378
67584
67788
67984
68182
68388
68594
68800
69000
69192
69382
69574
69770
69966
70156
70346
70540
70736
70932
71122
71312
71506
71710
71916
72120
72320
72520
72728
72946
73164
73374
73576
73780
73990
74204
74414
74616
74820
75026
75238
75446
75648
75856
76074
76290
76498
76702
76904
77106
77314
77522
77726
77926
78126
78328
78528
78720
78916
79120
79330
79538
79738
79936
80136
80334
80534
80726
80918
81110
81306
81506
81700
81886
82078
82272
82472
82670
82868
83060
83252
83446
83644
83840
84032
84224
84418
84622
84822
85022
85228
85438
85654
85868
86072
86274
86476
86682
86888
87092
87290
87490
87692
87896
88098
88296
88492
88690
88890
89088
89288
89482
89674
89870
90068
90270
90466
90662
90860
91068
91290
91514
91730
91948
92172
92398
92612
92818
93020
93222
93424
93622
93816
94012
94210
94412
94618
94818
95014
95208
95406
95606
95802
95994
96188
96382
96576
96768
96956
97138
97320
97506
97698
97890
98082
98268
98460
98654
98852
99050
99242
99432
99622
99816
100018
100218
100414
100610
100812
101022
101230
101432
101630
101828
102040
102252
102462
102666
102874
103084
103296
103506
103714
103918
104122
104330
104542
104754
104962
105174
105394
105614
105828
106034
106232
106430
106630
106828
107024
107220
107418
107616
107814
108008
108200
108392
108586
108776
108964
109150
109338
109526
109720
109910
110102
110296
110490
110688
110888
111084
111282
111488
111702
111912
112116
112318
112528
112750
112966
113172
113372
113576
113784
113988
114186
114386
114586
114792
114998
115198
115398
115604
115814
116026
116236
116440
116644
116854
117066
117272
117474
117676
117878
118078
118278
118472
118664
118854
119050
119248
119446
119640
119830
120016
120204
120392
120576
120760
120948
121138
121326
121512
121696
121882
122074
122268
122462
122652
122840
123028
123226
123424
123620
123812
124008
124206
124408
124608
124802
124994
125186
125382
125580
125774
125966
126158
126358
126566
126774
126976
127176
127380
127592
127806
128012
128216
128424
128632
128838
129044
129240
129440
129642
129840
130036
130228
130420
130616
130814
131012
131208
131404
131600
131802
132002
132200
132394
132590
132794
132998
133202
133402
133602
133804
134010
134212
134408
134602
134796
134992
135190
135380
135570
135758
135950
136142
136332
136516
136698
136878
137062
137248
137436
137620
137806
137996
138190
138384
138574
138762
138954
139152
139354
139552
139748
139944
140148
140352
140562
140766
140970
141182
141398
141612
141818
142032
142250
142470
142680
142886
143086
143290
143498
143706
143910
144106
144294
144480
144668
144858
145058
145260
145460
145660
145862
146066
146266
146464
146670
146880
147092
147300
147504
147710
147920
148130
148340
148544
148750
148968
149190
149408
149618
149840
150066
150292
150512
150722
150934
151146
151366
151580
151788
151996
152210
152434
152650
152858
153064
153268
153474
153680
153880
154076
154278
154486
154692
154892
155092
155292
155494
155690
155886
156088
156292
156494
156692
156884
157076
157270
157462
157654
157840
158026
158218
158412
158610
158802
158992
159188
159386
159582
159774
159962
160154
160352
160558
160762
160962
161168
161380
161590
161794
162002
162214
162432
162650
162864
163072
163280
163488
163696
163902
164100
164296
164486
164682
164878
165074
165270
165468
165664
165860
166054
166250
166446
166644
166842
167036
167224
167418
167616
167814
168006
168196
168388
168582
168778
168974
169168
169362
169560
169766
169972
170172
170368
170564
170764
170964
171162
171358
171554
171758
171966
172174
172380
172588
172808
173026
173238
173442
173642
173848
174050
174248
174442
174638
174832
175030
175220
175414
175616
175822
176034
176238
176438
176638
176842
177046
177246
177452
177656
177870
178084
178288
178488
178692
178904
179114
179320
179524
179730
179938
180148
180354
180556
180758
180960
181164
181368
181568
181766
181970
182178
182384
182584
182782
182978
183172
183364
183554
183738
183924
184108
184298
184486
184674
184864
185058
185260
185462
185662
185860
186060
186268
186486
186704
186914
187126
187346
187568
187784
187992
188204
188420
188640
188856
189064
189272
189492
189716
189934
190144
190350
190556
190764
190974
191180
191382
191588
191792
191998
192200
192396
192592
192794
192998
193198
193396
193594
193796
194000
194202
194400
194596
194792
194990
195182
195374
195566
195762
195960
196154
196346
196542
196742
196944
197146
197346
197542
197738
197936
198136
198336
198534
198734
198944
199158
199366
199564
199758
199950
200146
200340
200532
200720
200912
201110
201312
201512
201710
201910
202118
202334
202546
202750
202954
203158
203366
203572
203770
203968
204168
204372
204576
204780
204982
205190
205402
205614
205822
206026
206230
206432
206632
206828
207022
207224
207428
207636
207840
208042
208250
208456
208654
208846
209034
209224
209420
209620
209818
210012
210210
210418
210630
210840
211046
211258
211476
211692
211902
212108
212312
212518
212728
212936
213136
213334
213536
213744
213954
214158
214360
214564
214768
214974
215174
215374
215574
215774
215972
216166
216354
216544
216734
216928
217118
217310
217502
217702
217908
218112
218312
218512
218714
218922
219128
219330
219528
219728
219936
220148
220356
220556
220758
220966
221172
221378
221576
221770
221976
222182
222384
222580
222774
222972
223172
223372
223570
223766
223962
224162
224360
224556
224748
224940
225134
225326
225518
225706
225896
226088
226286
226484
226686
226882
227080
227282
227488
227694
227894
228092
228288
228482
228674
228864
229052
229248
229448
229654
229858
230058
230272
230502
230730
230946
231160
231386
231614
231836
232044
232246
232452
232658
232864
233064
233264
233464
233676
233890
234098
234302
234512
234736
234958
235172
235382
235596
235812
236028
236234
236436
236638
236844
237048
237250
237446
237648
237858
238072
238284
238494
238708
238930
239150
239364
239570
239782
240002
240218
240428
240632
240836
241038
241240
241438
241630
241822
242014
242206
242398
242586
242770
242958
243152
243348
243542
243732
243920
244112
244308
244510
244710
244908
245106
245310
245520
245726
245924
246126
246334
246548
246758
246958
247152
247346
247548
247746
247946
248138
248326
248514
248704
248902
249102
249302
249512
249736
249970
250198
250414
250622
250830
251040
251244
251442
251636
251826
252014
252202
252386
252570
252750
252934
253122
253308
253490
253670
253850
254026
254202
254372
254542
254714
254882
255052
255222
255390
255558
255726
255896
256062
256230
256400
256570
256740
256914
257092
257272
257452
257632
257814
257996
258182
258376
258580
258802
258996
259216
259412
259622
259834
260040
260240
260436
260632
260834
261040
261238
261438
261638
261840
262042
262240
262432
262626
262828
263030
263224
263420
263618
263820
264026
264226
264422
264616
264818
265028
265234
265428
265614
265800
265986
266182
266380
266572
266770
266966
267160
267348
267528
267704
267878
268052
268224
268400
268584
268770
268964
269184
269444
269674
269898
270124
270350
270574
270798
271018
271214
271400
271574
271742
271910
272080
272250
272426
272620
272836
273076
273302
273518
273734
273952
274168
274370
274564
274764
274966
275168
275368
275564
275754
275948
276150
276354
276558
276752
276946
277140
277334
277526
277718
277904
278088
278276
278468
278664
278854
279042
279228
279424
279620
279814
280000
280188
280382
280582
280784
280984
281194
281450
281684
281906
282134
282350
282574
282790
282998
283200
283402
283604
283808
284010
284208
284408
284614
284822
285024
285226
285428
285624
285814
286000
286180
286366
286550
286732
286912
287088
287266
287450
287638
287826
288010
288192
288376
288562
288750
288934
289120
289310
289506
289694
289878
290062
290252
290450
290650
290848
291058
291288
291522
291744
291962
292190
292414
292634
292842
293046
293250
293458
293674
293888
294096
294302
294508
294714
294912
295102
295292
295484
295678
295868
296060
296254
296454
296662
296864
297066
297272
297474
297674
297870
298060
298254
298448
298638
298826
299008
299190
299372
299558
299748
299940
300132
300332
300542
300752
300958
301162
301370
301578
301790
301998
302196
302398
302608
302820
303026
303230
303434
303640
303846
304048
304242
304438
304636
304838
305040
305234
305428
305626
305832
306040
306238
306436
306638
306850
307058
307262
307462
307660
307852
308040
308232
308424
308614
308804
308994
309186
309384
309584
309780
309976
310174
310368
310562
310748
310938
311126
311314
311500
311682
311866
312056
312252
312454
312652
312850
313054
313260
313472
313676
313874
314072
314272
314472
314670
314862
315054
315254
315454
315650
315840
316032
316224
316420
316616
316808
316992
317172
317350
317530
317708
317886
318062
318240
318422
318612
318800
318984
319168
319352
319538
319722
319904
320084
320266
320450
320632
320812
320992
321172
321358
321544
321736
321920
322104
322286
322472
322664
322858
323048
323242
323444
323648
323852
324050
324246
324444
324646
324846
325042
325230
325412
325594
325780
325966
326146
326324
326506
326688
326872
327054
327232
327412
327590
327768
327946
328120
328298
328478
328658
328838
329020
329202
329388
329572
329754
329934
330112
330292
330476
330658
330842
331024
331204
331388
331568
331750
331926
332104
332282
332462
332642
332818
332996
333176
333356
333534
333710
333888
334066
334246
334426
334604
334780
334958
335140
335324
335508
335692
335880
336072
336272
336472
336666
336856
337046
337238
337428
337614
337798
337984
338172
338362
338550
338736
338918
339104
339286
339466
339644
339822
340002
340184
340368
340550
340728
340908
341094
341284
341470
341654
341838
342028
342216
342404
342586
342768
342950
343132
343310
343484
343658
343748
343986
344164
344340
344430
344672
344856
345034
345210
345386
345564
345746
345930
346112
346294
346476
346662
346850
347036
347216
347396
347574
347758
347944
348126
348308
348488
348672
348860
349046
349236
349432
349636
349854
350074
350288
350502
350718
350932
351138
351342
351544
351748
351954
352154
352350
352548
352744
352938
353128
353316
353500
353686
353882
354092
354300
354504
354710
354916
355120
355318
355508
355696
355886
356080
356278
356474
356666
356856
357050
357244
357432
357616
357800
357986
358176
358364
358550
358740
358932
359128
359328
359522
359716
359914
360120
360320
360518
360710
360912
361114
361314
361508
361698
361884
362072
362260
362450
362636
362828
363024
363216
363406
363588
363770
363958
364152
364350
364542
364732
364930
365134
365332
365530
365724
365916
366114
366308
366500
366688
366876
367072
367272
367470
367670
367872
368068
368262
368452
368638
368824
369010
369202
369392
369580
369766
369956
370154
370350
370540
370726
370916
371112
371308
371496
371684
371878
372080
372286
372486
372680
372874
373072
373276
373480
373680
373882
374092
374306
374514
374718
374926
375146
375362
375566
375764
375964
376170
376376
376578
376782
376988
377196
377402
377602
377792
377978
378166
378350
378532
378710
378888
379072
379272
379488
379708
379924
380168
380402
380636
380864
381088
381308
381516
381714
381912
382110
382310
382506
382702
382904
383110
383324
383536
383740
383950
384178
384416
384640
384858
385078
385298
385520
385730
385932
386134
386342
386558
386762
386962
387162
387364
387564
387758
387948
388134
388322
388514
388708
388902
389100
389308
389518
389724
389930
390146
390376
390608
390826
391032
391234
391434
391638
391836
392034
392232
392440
392650
392862
393064
393274
393500
393730
393952
394180
394414
394646
394864
395078
395298
395518
395732
395938
396144
396358
396578
396796
397002
397196
397382
397568
397752
397940
398130
398328
398542
398768
398984
399194
399414
399638
399852
400058
400264
400470
400672
400870
401060
401252
401448
401644
401836
402020
402204
402392
402580
402764
402948
403130
403318
403516
403716
403922
404124
404332
404544
404760
404970
405180
405404
405626
405838
406042
406246
406452
406658
406858
407058
407266
407490
407720
407936
408150
408374
408600
408820
409030
409234
409438
409642
409844
410040
410240
410442
410656
410866
411066
411258
411446
411630
411814
411996
412182
412372
412570
412770
412966
413158
413356
413564
413772
413972
414168
414368
414578
414792
414998
415194
415390
415582
415774
415962
416144
416328
416518
416720
416920
417114
417310
417518
417738
417952
418156
418356
418556
418754
418944
419132
419320
419512
419708
419906
420104
420304
420520
420758
420990
421212
421432
421662
421890
422102
422316
422532
422750
422970
423176
423386
423586
423784
423978
424166
424352
424538
424724
424904
425080
425256
425432
425610
425792
425980
426172
426364
426554
426738
426918
427098
427274
427458
427646
427834
428018
428198
428382
428570
428758
428948
429134
429320
429504
429686
429870
430050
430232
430414
430596
430788
430984
431176
431364
431554
431748
431936
432122
432304
432480
432654
432824
432994
433168
433340
433512
433686
433864
434042
434178
434374
434562
434750
434932
435116
435298
435486
435676
435876
436090
436292
436520
436704
436916
437118
437312
437502
437690
437878
438064
438252
438448
438658
438864
439068
439282
439538
439784
440010
440244
440464
440690
440928
441166
441390
441606
441828
442046
442268
442484
442692
442904
443126
443350
443562
443766
443970
444184
444400
444612
444824
445050
445284
445506
445730
445954
446178
446400
446616
446820
447020
447222
447428
447630
447826
448024
448224
448426
448632
448836
449040
449246
449468
449690
449908
450124
450340
450556
450766
450974
451172
451372
451580
451808
452038
452256
452478
452700
452924
453150
453366
453576
453782
453988
454200
454412
454616
454822
455026
455234
455440
455642
455836
456040
456250
456466
456678
456882
457080
457272
457458
457638
457818
458000
458182
458366
458554
458746
458936
459130
459322
459510
459700
459890
460072
460252
460424
460594
460766
460944
461126
461310
461492
461672
461856
462044
462240
462436
462630
462824
463020
463226
463448
463678
463906
464138
464372
464602
464820
465028
465240
465460
465698
465938
466162
466378
466588
466798
467014
467232
467444
467650
467858
468084
468330
468556
468782
469006
469222
469442
469664
469876
470082
470290
470508
470728
470948
471158
471368
471580
471798
472014
472224
472424
472626
472830
473040
473250
473452
473660
473874
474094
474310
474518
474726
474940
475156
475366
475566
475772
475988
476216
476440
476654
476866
477088
477306
477522
477730
477932
478140
478346
478550
478752
478948
479148
479356
479572
479788
479996
480204
480422
480644
480864
481074
481284
481496
481716
481936
482152
482368
482580
482798
483010
483206
483392
483568
483738
483906
484072
484238
484404
484566
484730
484890
485050
485210
485368
485528
485686
485844
486000
486156
486312
486464
486618
486772
486926
487082
487236
487392
487546
487700
487852
488004
488156
488306
488456
488606
488756
488906
489056
489208
489358
489510
489660
489812
489966
490120
490274
490428
490586
490742
490900
491062
491224
491384
491546
491704
491858
492014
492168
492328
492486
492648
492810
492976
493152
493330
493518
493712
493906
494114
494300
494494
494680
494854
495022
495184
495340
495494
495644
495794
495944
496094
496242
496388
496530
496676
496822
496970
497114
497260
497404
497546
497690
497836
497980
498126
498270
498418
498564
498710
498856
499002
499148
499294
499440
499584
499728
499868
500008
500150
500294
500434
500578
500720
500864
501010
501156
501300
501446
501590
501734
501878
502020
502162
502304
502450
502596
502742
502886
503032
503176
503320
503466
503612
503760
503908
504058
504206
504354
504500
504646
504790
504934
505076
505220
505366
505512
505660
505806
505954
506100
506248
506394
506540
506686
506832
506978
507122
507264
507408
507552
507698
507844
507992
508138
508286
508434
508582
508732
508878
509024
509170
509316
509460
509606
509752
509898
510044
510192
510338
510486
510634
510784
510932
511080
511226
511372
511518
511666
511812
511956
512102
512244
512390
512532
512676
512816
512956
513100
513246
513390
513532
513674
513814
513956
514098
514240
514382
514526
514672
514818
514964
515108
515252
515398
515546
515694
515840
515988
516134
516284
516434
516588
516740
516892
517044
517200
517352
517506
517660
517816
517968
518122
518278
518434
518584
518738
518892
519044
519198
519352
519506
519660
519816
519968
520122
520274
520428
520580
520732
520886
521036
521186
521334
521484
521634
521784
521934
522082
522232
522384
522536
522688
522840
522988
523138
523286
523436
523584
523736
523886
524038
524188
524342
524494
524648
524804
524962
525120
525280
525444
525608
525772
525938
526108
526284
526468
526658
526858
527072
527260
527476
527658
527844
528034
528236
528436
528644
528834
529044
529242
529448
529660
529854
530030
530198
530354
530504
530648
530792
530934
531076
531216
531354
531494
531638
531780
531924
532068
532210
532352
532494
532636
532774
532914
533052
533192
533332
533474
533616
533756
533898
534042
534188
534334
534484
534632
534780
534928
535076
535226
535374
535520
535668
535814
535962
536108
536256
536402
536550
536696
536840
536984
537130
537276
537422
537566
537712
537858
538006
538154
538300
538448
538594
538742
538890
539038
539186
539334
539482
539626
539770
539914
540058
540206
540350
540496
540642
540786
540934
541080
541226
541372
541516
541658
541800
541944
542088
542232
542376
542520
542664
542808
542952
543096
543242
543392
543540
543688
543836
543984
544130
544278
544426
544574
544720
544872
545024
545178
545332
545488
545644
545802
545960
546116
546270
546424
546576
546730
546882
547036
547188
547340
547492
547640
547788
547936
548084
548232
548378
548526
548670
548814
548958
549102
549244
549388
549532
549676
549824
549972
550120
550264
550410
550554
550698
550840
550986
551130
551272
551414
551558
551702
551846
551992
552138
552280
552422
552568
552714
552862
553010
553156
553300
553444
553586
553728
553868
554012
554154
554300
554446
554592
554740
554886
555036
555186
555332
555478
555624
555770
555916
556060
556208
556358
556508
556660
556810
556958
557104
557252
557402
557552
557700
557848
557992
558138
558284
558426
558570
558714
558860
559008
559158
559306
559454
559600
559746
559892
560036
560184
560328
560472
560618
560762
560908
561052
561196
561342
561486
561628
561774
561920
562066
562214
562362
562508
562654
562802
562948
563090
563236
563380
563526
563670
563814
563962
564108
564254
564402
564548
564694
564838
564982
565126
565270
565414
565558
565702
565848
565994
566136
566282
566426
566574
566720
566868
567012
567156
567300
567446
567588
567730
567872
568014
568158
568302
568450
568598
568742
568886
569034
569178
569324
569468
569610
569752
569894
570038
570180
570322
570462
570604
570744
570884
571020
571160
571302
571446
571590
571734
571874
572014
572154
572294
572438
572582
572726
572872
573018
573164
573306
573450
573598
573744
573894
574042
574192
574340
574486
574636
574782
574930
575076
575226
575374
575524
575672
575820
575968
576120
576270
576418
576566
576712
576856
576946
577140
577284
577426
577572
577718
577862
578004
578148
578290
578434
578580
578728
578878
579038
579200
579360
579454
579668
579824
579978
580134
580288
580440
580596
580752
580908
581060
581212
581364
581512
581664
581814
581966
582118
582272
582424
582576
582664
582872
583024
583172
583320
583470
583618
583770
583920
584072
584222
584376
584528
584680
584828
584978
585128
585280
585434
585588
585744
585898
586052
586206
586358
586510
586662
586816
586972
587128
587282
587440
587598
587762
587922
588084
588244
588404
588560
588718
588876
589042
589208
589376
589546
589714
589880
590042
590202
590358
590518
590678
590842
591004
591168
591332
591498
591662
591824
591986
592150
592318
592488
592656
592824
592998
593172
593348
593526
593708
593896
594078
594260
594446
594640
594844
595050
595224
595426
595600
595794
595966
596162
596362
596562
596750
596948
597150
597362
597588
597818
598036
598250
598452
598642
598826
598998
599174
599348
599522
599704
599922
600166
600388
600606
600822
601040
601258
601478
601704
601922
602134
602332
602530
602736
602964
603210
603434
603658
603886
604112
604336
604558
604784
605010
605232
605454
605680
605902
606120
606342
606568
606792
607014
607232
607452
607670
607892
608110
608328
608542
608756
608988
609204
609422
609640
609860
610080
610300
610522
610744
610964
611184
611406
611626
611846
612064
612282
612500
612722
612944
613168
613392
613616
613836
614056
614278
614500
614720
614940
615164
615384
615608
615830
616046
616240
616426
616620
616836
617064
617280
617488
617694
617914
618136
618342
618546
618756
618972
619186
619394
619606
619828
620046
620256
620462
620674
620888
621092
621284
621472
621670
621876
622092
622306
622520
622740
622958
623170
623382
623598
623812
624010
624206
624408
624616
624824
625028
625242
625476
625706
625922
626138
626366
626586
626796
626996
627200
627416
627636
627850
628058
628274
628498
628716
628928
629146
629372
629598
629814
630026
630242
630466
630680
630888
631100
631310
631518
631718
631914
632114
632334
632554
632760
632960
633172
633394
633614
633822
634030
634254
634480
634694
634906
635124
635342
635552
635760
635972
636200
636446
636672
636898
637120
637342
637562
637774
637980
638196
638410
638624
638840
639064
639294
639518
639730
639950
640166
640378
640578
640772
640972
641190
641416
641636
641858
642084
642318
642538
642762
642986
643202
643418
643628
643830
644026
644222
644418
644608
644794
644988
645198
645404
645598
645794
646002
646218
646432
646634
646826
647014
647202
647384
647566
647748
647938
648138
648338
648534
648730
648940
649160
649372
649574
649780
649986
650182
650372
650568
650772
650982
651182
651376
651572
651774
651984
652190
652390
652594
652810
653026
653230
653432
653638
653840
654038
654230
654422
654622
654826
655028
655222
655414
655610
655810
656004
656188
656368
656558
656750
656940
657128
657310
657494
657678
657864
658048
658230
658416
658610
658808
659012
659210
659402
659594
659788
659986
660178
660366
660556
660748
660938
661126
661308
661498
661696
661892
662084
662276
662470
662668
662860
663048
663236
663442
663662
663888
664116
664352
664580
664800
665004
665204
665406
665606
665800
665988
666178
666370
666566
666762
666954
667148
667348
667554
667756
667952
668152
668358
668568
668770
668966
669166
669374
669584
669786
669984
670188
670396
670600
670796
670990
671192
671402
671612
671816
672026
672260
672498
672724
672950
673178
673404
673618
673828
674040
674262
674478
674690
674906
675134
675360
675576
675790
676000
676216
676432
676634
676836
677040
677248
677458
677662
677864
678068
678270
678466
678660
678858
679056
679252
679442
679632
679826
680024
680222
680416
680610
680808
681006
681194
681384
681578
681776
681978
682174
682366
682560
682760
682960
683158
683356
683556
683760
683966
684172
684378
684596
684818
685034
685238
685438
685640
685838
686030
686218
686410
686604
686794
686980
687160
687340
687524
687716
687912
688110
688318
688532
688738
688940
689142
689346
689552
689752
689948
690144
690346
690550
690754
690954
691158
691364
691576
691788
691986
692186
692382
692576
692766
692946
693124
693304
693484
693668
693854
694050
694260
694482
694700
694910
695116
695320
695518
695712
695900
696088
696280
696470
696662
696852
697050
697260
697466
697670
697878
698092
698308
698518
698734
698948
699156
699360
699558
699754
699956
700156
700356
700554
700764
700994
701232
701460
701690
701918
702138
702360
702584
702794
703006
703218
703438
703646
703852
704064
704276
704490
704696
704900
705096
705294
705486
705672
705854
706034
706218
706406
706592
706772
706952
707134
707318
707514
707712
707918
708128
708344
708560
708766
708970
709178
709382
709588
709786
709980
710178
710380
710584
710784
710982
711184
711386
711592
711800
712002
712208
712420
712638
712848
713050
713254
713460
713666
713866
714064
714264
714468
714676
714878
715080
715292
715504
715712
715914
716114
716320
716522
716720
716912
717108
717310
717510
717706
717892
718076
718260
718442
718622
718802
718976
719152
719342
719542
719760
719980
720202
720434
720670
720890
721104
721318
721534
721752
721962
722168
722380
722588
722794
723002
723216
723446
723670
723890
724110
724336
724556
724768
724980
725198
725422
725636
725842
726056
726268
726480
726682
726882
727084
727290
727502
727708
727906
728106
728308
728506
728694
728876
729056
729238
729424
729614
729806
730008
730220
730464
730698
730928
731156
731382
731606
731828
732036
732244
732454
732666
732870
733072
733270
733474
733682
733886
734094
734308
734534
734754
734968
735184
735402
735620
735832
736042
736256
736472
736686
736896
737108
737328
737548
737762
737966
738170
738380
738590
738800
739010
739222
739438
739660
739882
740094
740310
740524
740738
740944
741150
741360
741572
741780
741978
742170
742358
742548
742750
742958
743162
743362
743562
743768
743974
744174
744366
744558
744750
744948
745150
745350
745548
745746
745944
746144
746346
746546
746752
746974
747188
747390
747584
747774
747960
748142
748320
748498
748674
748848
749024
749200
749374
749546
749718
749898
750084
750282
750488
750698
750906
751110
751304
751504
751708
751912
752116
752320
752528
752738
752946
753148
753350
753556
753764
753972
754172
754362
754550
754732
754914
755098
755286
755480
755682
755912
756150
756368
756582
756798
757010
757214
757410
757606
757806
758008
758208
758404
758604
758808
759016
759222
759420
759624
759826
760026
760220
760412
760614
760838
761072
761306
761548
761780
762004
762226
762436
762652
762874
763098
763318
763536
763766
763994
764216
764426
764640
764866
765092
765314
765530
765758
765982
766198
766408
766618
766834
767044
767252
767458
767666
767880
768092
768300
768514
768732
768952
769166
769394
769624
769848
770064
770274
770488
770704
770918
771124
771330
771540
771748
771952
772148
772344
772538
772728
772914
773100
773292
773486
773680
773874
774066
774256
774448
774642
774832
775016
775198
775376
775554
775734
775908
776084
776264
776456
776660
776874
777088
777300
777508
777722
777936
778144
778352
778566
778776
778978
779174
779370
779572
779778
779980
780182
780384
780590
780794
780994
781194
781402
781614
781820
782018
782220
782428
782638
782844
783044
783252
783466
783678
783878
784074
784262
784448
784632
784812
784988
785166
785350
785546
785760
785974
786190
786414
786638
786860
787070
787278
787486
787694
787900
788102
788302
788506
788712
788914
789116
789326
789538
789742
789942
790144
790350
790556
790758
790958
791160
791368
791578
791790
791998
792206
792416
792628
792836
793042
793246
793450
793652
793848
794038
794226
794412
794594
794770
794948
795130
795310
795492
795678
795862
796044
796224
796418
796628
796846
797066
797288
797522
797772
798012
798238
798462
798684
798900
799112
799320
799528
799748
799968
800188
800406
800640
800882
801114
801342
801564
801786
802004
802212
802414
802610
802804
802998
803192
803386
803580
803782
803990
804208
804424
804634
804848
805068
805282
805488
805690
805896
806104
806312
806516
806718
806916
807116
807314
807512
807712
807920
808138
808356
808572
808796
809024
809252
809474
809698
809922
810142
810360
810578
810800
811026
811242
811454
811678
811902
812122
812332
812540
812752
812960
813164
813362
813568
813772
813976
814176
814368
814556
814742
814932
815120
815306
815488
815672
815860
816054
816246
816434
816622
816814
817006
817200
817394
817590
817788
817984
818176
818364
818552
818738
818924
819108
819288
819466
819648
819832
820016
820200
820376
820556
820742
820926
821108
821288
821470
821658
821850
822040
822228
822420
822614
822808
823004
823196
823388
823582
823774
823962
824146
824330
824516
824704
824890
825070
825252
825436
825620
825808
825996
826180
826362
826544
826730
826918
827104
827288
827472
827664
827854
828040
828222
828408
828594
828778
828962
829152
829346
829538
829726
829914
830100
830284
830472
830662
830846
831030
831214
831402
831594
831784
831972
832166
832362
832558
832752
832942
833130
833320
833510
833698
833884
834072
834258
834442
834628
834808
834988
835166
835346
835524
835698
835874
836050
836230
836412
836594
836776
836960
837144
837330
837512
837692
837870
838050
838232
838416
838596
838776
838952
839130
839310
839488
839666
839844
840024
840204
840386
840564
840748
840932
841118
841306
841494
841682
841868
842054
842240
842428
842612
842792
842976
843162
843348
843530
843712
843894
844076
844258
844444
844626
844806
844984
845158
845330
845502
845674
845842
846010
846180
846350
846520
846688
846856
847024
847192
847360
847530
847704
847880
848056
848234
848410
848590
848770
848948
849128
849306
849484
849660
849838
850022
850208
850392
850578
850762
850950
851138
851324
851510
851692
851874
852060
852250
852442
852636
852826
853020
853216
853408
853598
853784
853968
854160
854350
854538
854724
854912
855104
855294
855482
855666
855850
856034
856218
856404
856586
856772
856962
857158
857356
857550
857744
857938
858132
858326
858512
858696
858874
859054
859236
859418
859596
859776
859950
860126
860308
860488
860668
860850
861038
861230
861420
861606
861792
861980
862168
862356
862544
862728
862914
863098
863286
863470
863650
863832
864024
864220
864412
864602
864794
864988
865178
865368
865552
865736
865924
866112
866294
866474
866656
866844
867036
867236
867434
867624
867814
868008
868198
868386
868570
868756
868950
869144
869336
869526
869714
869906
870100
870292
870480
870666
870856
871054
871254
871454
871644
871836
872032
872228
872424
872616
872806
872998
873190
873384
873582
873778
873980
874194
874402
874604
874802
875004
875214
875422
875620
875816
876012
876210
876406
876598
876784
876964
877138
877310
877480
877648
877820
878002
878200
878406
878624
878860
879106
879332
879562
879782
880006
880222
880430
880632
880838
881048
881262
881472
881676
881886
882098
882310
882514
882722
882938
883146
883348
883548
883762
883978
884188
884392
884598
884810
885028
885244
885452
885666
885890
886112
886324
886528
886726
886934
887144
887348
887550
887754
887962
888170
888374
888568
888766
888972
889180
889378
889578
889788
890006
890220
890424
890624
890822
891026
891230
891432
891634
891848
892066
892278
892478
892678
892878
893080
893274
893466
893660
893864
894082
894302
894534
894776
895006
895232
895458
895672
895886
896108
896322
896526
896736
896952
897168
897370
897568
897764
897964
898156
898342
898526
898722
898924
899128
899324
899518
899718
899920
900122
900318
900504
900688
900882
901084
901288
901484
901678
901876
902092
902314
902524
902732
902942
903154
903366
903566
903768
903974
904184
904398
904604
904808
905036
905274
905498
905704
905904
906108
906314
906514
906708
906904
907106
907322
907534
907734
907932
908128
908330
908530
908722
908914
909112
909310
909506
909694
909880
910068
910260
910458
910656
910850
911044
911244
911458
911680
911894
912094
912292
912488
912678
912870
913074
913304
913532
913748
913954
914160
914364
914566
914760
914956
915156
915374
915592
915798
916010
916234
916458
916668
916870
917078
917284
917484
917686
917884
918080
918276
918468
918660
918850
919046
919246
919440
919636
919834
920040
920256
920478
920690
920892
921096
921296
921490
921674
921862
922062
922268
922474
922674
922874
923096
923342
923570
923788
924004
924224
924440
924644
924844
925044
925254
925472
925684
925890
926096
926304
926518
926736
926946
927148
927348
927548
927752
927952
928144
928336
928534
928732
928928
929120
929308
929498
929694
929896
930102
930300
930496
930698
930904
931108
931304
931494
931686
931882
932080
932276
932472
932672
932886
933114
933338
933554
933774
933994
934208
934418
934626
934836
935054
935270
935482
935684
935876
936068
936264
936462
936658
936848
937036
937228
937420
937612
937800
937986
938172
938358
938544
938726
938906
939088
939276
939470
939664
939850
940036
940216
940396
940574
940750
940928
941114
941308
941508
941708
941906
942106
942310
942518
942720
942918
943116
943318
943518
943712
943906
944102
944300
944494
944684
944870
945060
945252
945446
945640
945826
946010
946198
946388
946580
946772
946956
947144
947336
947536
947740
947940
948152
948368
948584
948794
948998
949198
949406
949612
949816
950016
950220
950434
950654
950880
951096
951306
951518
951734
951952
952158
952356
952556
952764
952976
953184
953390
953596
953806
954018
954224
954422
954622
954832
955048
955258
955460
955666
955874
956086
956290
956488
956686
956884
957082
957284
957482
957674
957866
958062
958260
958454
958644
958830
959018
959208
959402
959596
959784
959972
960162
960360
960558
960752
960950
961152
961356
961566
961764
961962
962160
962362
962564
962760
962948
963138
963324
963518
963708
963896
964088
964288
964492
964696
964894
965098
965308
965516
965720
965922
966122
966318
966516
966708
966906
967106
967310
967508
967702
967900
968098
968292
968480
968666
968852
969040
969230
969414
969600
969784
969972
970166
970356
970540
970726
970918
971118
971318
971512
971704
971900
972106
972314
972514
972710
972908
973114
973328
973540
973744
973948
974158
974372
974576
974772
974968
975170
975380
975586
975792
976008
976232
976454
976668
976872
977068
977260
977450
977638
977820
977998
978174
978354
978548
978746
978940
979142
979356
979582
979800
980006
980208
980416
980628
980834
981030
981222
981416
981610
981806
982000
982188
982378
982572
982772
982976
983174
983372
983572
983776
983978
984172
984362
984558
984756
984958
985156
985352
985554
985764
985984
986194
986400
986608
986816
987020
987218
987410
987606
987804
988008
988208
988402
988600
988800
989008
989224
989432
989634
989844
990066
990292
990508
990724
990948
991182
991412
991628
991834
992040
992252
992454
992648
992844
993054
993270
993480
993678
993878
994078
994284
994490
994690
994888
995086
995292
995492
995688
995874
996056
996236
996412
996584
996756
996930
997102
997276
997450
997628
997806
997980
998150
998318
998486
998652
998818
998986
999154
999326
999496
999668
999842
1000016
1000188
1000362
1000536
1000710
1000886
1001062
1001234
1001410
1001592
1001778
1001962
1002146
1002330
1002516
1002708
1002910
1003106
1003300
1003498
1003708
1003926
1004138
1004346
1004560
1004784
1005006
1005220
1005422
1005620
1005824
1006036
1006242
1006440
1006644
1006856
1007076
1007288
1007494
1007704
1007930
1008160
1008382
1008592
1008802
1009016
1009228
1009432
1009632
1009846
1010072
1010294
1010508
1010724
1010944
1011160
1011366
1011574
1011784
1011990
1012196
1012394
1012590
1012790
1013010
1013238
1013452
1013666
1013886
1014114
1014338
1014550
1014754
1014952
1015150
1015346
1015542
1015734
1015924
1016114
1016302
1016486
1016670
1016854
1017044
1017232
1017422
1017612
1017810
1018010
1018204
1018390
1018574
1018760
1018948
1019140
1019328
1019518
1019714
1019908
1020100
1020286
1020478
1020672
1020872
1021064
1021252
1021440
1021630
1021820
1022008
1022194
1022382
1022576
1022778
1022978
1023176
1023376
1023578
1023778
1023970
1024158
1024342
1024532
1024728
1024920
1025106
1025288
1025472
1025662
1025850
1026046
1026256
1026482
1026702
1026920
1027144
1027370
1027582
1027786
1027990
1028196
1028402
1028604
1028798
1028996
1029202
1029422
1029638
1029848
1030068
1030300
1030532
1030750
1030958
1031156
1031356
1031558
1031750
1031938
1032130
1032324
1032530
1032742
1032948
1033150
1033350
1033550
1033748
1033946
1034142
1034342
1034550
1034762
1034972
1035170
1035368
1035576
1035788
1035990
1036190
1036392
1036596
1036794
1036988
1037186
1037394
1037602
1037800
1037992
1038188
1038386
1038580
1038770
1038956
1039146
1039342
1039542
1039736
1039926
1040118
1040310
1040504
1040704
1040896
1041086
1041284
1041482
1041680
1041876
1042064
1042258
1042454
1042652
1042844
1043038
1043238
1043450
1043676
1043896
1044108
1044322
1044538
1044748
1044950
1045140
1045328
1045514
1045700
1045884
1046062
1046244
1046430
1046622
1046816
1047004
1047192
1047388
1047586
1047786
1047982
1048176
1048376
1048578
1048782
1048984
1049180
1049382
1049588
1049802
1050016
1050220
1050418
1050612
1050806
1050996
1051188
1051376
1051564
1051752
1051944
1052130
1052312
1052494
1052680
1052868
1053058
1053240
1053424
1053616
1053812
1054008
1054204
1054396
1054596
1054798
1055002
1055206
1055406
1055608
1055818
1056032
1056234
1056438
1056648
1056866
1057076
1057276
1057478
1057686
1057890
1058090
1058282
1058472
1058660
1058848
1059034
1059218
1059398
1059582
1059772
1059962
1060150
1060334
1060516
1060698
1060880
1061060
1061236
1061414
1061594
1061780
1061972
1062170
1062366
1062554
1062744
1062932
1063122
1063310
1063492
1063678
1063862
1064050
1064240
1064434
1064626
1064820
1065012
1065204
1065396
1065582
1065764
1065948
1066136
1066328
1066520
1066714
1066910
1067116
1067322
1067528
1067736
1067950
1068162
1068364
1068556
1068742
1068926
1069108
1069288
1069462
1069636
1069814
1069992
1070168
1070342
1070510
1070682
1070854
1071030
1071204
1071382
1071556
1071732
1071910
1072088
1072268
1072446
1072622
1072798
1072978
1073154
1073330
1073502
1073678
1073856
1074036
1074220
1074404
1074584
1074762
1074944
1075124
1075306
1075488
1075672
1075856
1076042
1076230
1076420
1076606
1076792
1076980
1077170
1077360
1077552
1077738
1077922
1078104
1078288
1078474
1078662
1078842
1079022
1079206
1079386
1079562
1079740
1079924
1080114
1080304
1080490
1080678
1080868
1081058
1081242
1081428
1081612
1081800
1081988
1082178
1082360
1082546
1082734
1082930
1083122
1083310
1083498
1083692
1083890
1084094
1084290
1084486
1084684
1084886
1085086
1085284
1085478
1085676
1085876
1086080
1086282
1086478
1086674
1086868
1087058
1087244
1087426
1087610
1087792
1087978
1088162
1088344
1088528
1088712
1088896
1089078
1089256
1089436
1089616
1089800
1089982
1090160
1090340
1090520
1090704
1090888
1091070
1091254
1091442
1091634
1091826
1092016
1092202
1092386
1092574
1092764
1092952
1093140
1093324
1093512
1093704
1093892
1094078
1094260
1094444
1094632
1094822
1095012
1095196
1095382
1095578
1095780
1095978
1096168
1096360
1096556
1096758
1096956
1097152
1097350
1097552
1097758
1097966
1098168
1098368
1098574
1098780
1098982
1099180
1099382
1099588
1099796
1100002
1100220
1100450
1100692
1100914
1101126
1101332
1101542
1101760
1101976
1102180
1102382
1102580
1102772
1102970
1103158
1103344
1103530
1103722
1103914
1104104
1104294
1104488
1104690
1104890
1105088
1105280
1105472
1105672
1105870
1106070
1106266
1106458
1106654
1106850
1107044
1107236
1107424
1107616
1107808
1108000
1108188
1108374
1108562
1108752
1108942
1109128
1109312
1109500
1109692
1109890
1110088
1110286
1110488
1110704
1110930
1111142
1111352
1111562
1111780
1111994
1112198
1112400
1112600
1112810
1113020
1113230
1113436
1113644
1113860
1114080
1114292
1114496
1114702
1114910
1115116
1115318
1115522
1115726
1115940
1116166
1116388
1116596
1116796
1116996
1117198
1117398
1117592
1117784
1117984
1118188
1118396
1118592
1118790
1118998
1119214
1119422
1119624
1119836
1120054
1120266
1120470
1120666
1120858
1121056
1121250
1121440
1121624
1121806
1121996
1122192
1122398
1122608
1122812
1123022
1123240
1123468
1123688
1123902
1124118
1124340
1124560
1124770
1124972
1125176
1125386
1125598
1125810
1126014
1126216
1126422
1126634
1126840
1127036
1127232
1127430
1127626
1127820
1128012
1128202
1128396
1128592
1128792
1128986
1129176
1129368
1129564
1129762
1129956
1130144
1130330
1130520
1130708
1130896
1131078
1131258
1131440
1131624
1131812
1131998
1132186
1132378
1132574
1132774
1132968
1133158
1133352
1133548
1133742
1133934
1134128
1134332
1134538
1134736
1134930
1135134
1135352
1135574
1135786
1135996
1136210
1136428
1136638
1136850
1137072
1137296
1137512
1137718
1137922
1138122
1138318
1138512
1138704
1138900
1139096
1139298
1139502
1139706
1139904
1140100
1140298
1140492
1140678
1140862
1141048
1141240
1141434
1141620
1141806
1141998
1142194
1142396
1142598
1142792
1142982
1143182
1143392
1143600
1143796
1143986
1144182
1144388
1144604
1144822
1145036
1145254
1145468
1145672
1145872
1146068
1146264
1146462
1146658
1146850
1147040
1147232
1147430
1147636
1147838
1148042
1148262
1148510
1148736
1148964
1149178
1149392
1149602
1149804
1149996
1150188
1150384
1150580
1150780
1150976
1151170
1151370
1151576
1151796
1152018
1152228
1152436
1152644
1152850
1153054
1153250
1153440
1153630
1153824
1154016
1154206
1154392
1154578
1154768
1154968
1155166
1155362
1155564
1155774
1155992
1156198
1156396
1156592
1156786
1156978
1157162
1157344
1157532
1157720
1157908
1158094
1158278
1158464
1158652
1158848
1159044
1159234
1159424
1159624
1159836
1160052
1160254
1160450
1160650
1160850
1161048
1161242
1161434
1161630
1161832
1162032
1162232
1162430
1162630
1162836
1163044
1163246
1163440
1163628
1163810
1163998
1164186
1164374
1164560
1164750
1164954
1165164
1165368
1165564
1165760
1165964
1166168
1166364
1166552
1166738
1166926
1167122
1167328
1167534
1167736
1167944
1168160
1168390
1168608
1168818
1169036
1169268
1169502
1169724
1169938
1170154
1170368
1170576
1170778
1170980
1171182
1171388
1171594
1171792
1171982
1172172
1172366
1172562
1172758
1172948
1173134
1173322
1173516
1173710
1173902
1174094
1174290
1174492
1174694
1174890
1175084
1175278
1175472
1175668
1175862
1176052
1176240
1176430
1176624
1176820
1177012
1177206
1177398
1177596
1177798
1177994
1178188
1178382
1178578
1178776
1178968
1179154
1179344
1179534
1179726
1179912
1180092
1180276
1180462
1180652
1180840
1181030
1181226
1181424
1181620
1181812
1181998
1182182
1182368
1182558
1182744
1182930
1183122
1183320
1183520
1183718
1183914
1184118
1184334
1184554
1184764
1184962
1185160
1185352
1185548
1185740
1185926
1186112
1186308
1186512
1186722
1186924
1187124
1187330
1187546
1187754
1187966
1188186
1188412
1188636
1188850
1189062
1189278
1189494
1189706
1189910
1190118
1190330
1190536
1190738
1190938
1191134
1191332
1191534
1191732
1191928
1192120
1192312
1192514
1192720
1192924
1193124
1193326
1193534
1193744
1193954
1194156
1194350
1194540
1194736
1194936
1195130
1195322
1195518
1195722
1195936
1196142
1196340
1196538
1196742
1196950
1197152
1197348
1197544
1197744
1197942
1198134
1198320
1198504
1198690
1198874
1199060
1199240
1199424
1199612
1199802
1199986
1200178
1200374
1200572
1200764
1200950
1201132
1201316
1201504
1201696
1201884
1202076
1202270
1202478
1202698
1202912
1203130
1203362
1203598
1203828
1204048
1204256
1204464
1204678
1204898
1205104
1205308
1205510
1205716
1205920
1206118
1206316
1206518
1206716
1206910
1207098
1207284
1207474
1207668
1207864
1208054
1208242
1208428
1208620
1208820
1209016
1209210
1209412
1209630
1209864
1210096
1210314
1210534
1210756
1210976
1211192
1211398
1211606
1211818
1212028
1212230
1212430
1212632
1212830
1213020
1213206
1213388
1213576
1213768
1213960
1214148
1214336
1214526
1214724
1214926
1215124
1215316
1215506
1215704
1215906
1216106
1216296
1216486
1216680
1216870
1217056
1217234
1217410
1217586
1217764
1217946
1218130
1218310
1218494
1218680
1218874
1219066
1219250
1219434
1219620
1219804
1219986
1220164
1220344
1220528
1220710
1220890
1221070
1221256
1221448
1221644
1221834
1222024
1222212
1222400
1222590
1222778
1222964
1223154
1223350
1223554
1223752
1223946
1224140
1224340
1224546
1224752
1224954
1225154
1225360
1225564
1225764
1225960
1226152
1226342
1226534
1226728
1226918
1227108
1227298
1227496
1227704
1227908
1228110
1228320
1228536
1228752
1228960
1229162
1229366
1229578
1229794
1230010
1230230
1230474
1230712
1230940
1231172
1231400
1231626
1231852
1232074
1232302
1232516
1232728
1232938
1233140
1233336
1233528
1233714
1233898
1234082
1234266
1234446
1234624
1234812
1235004
1235198
1235392
1235578
1235768
1235960
1236146
1236330
1236510
1236692
1236878
1237062
1237246
1237428
1237610
1237794
1237986
1238180
1238372
1238560
1238752
1238946
1239152
1239358
1239560
1239758
1239964
1240170
1240376
1240572
1240764
1240954
1241150
1241348
1241542
1241728
1241910
1242092
1242282
1242474
1242664
1242854
1243052
1243258
1243472
1243686
1243890
1244092
1244294
1244494
1244694
1244886
1245078
1245272
1245470
1245666
1245856
1246046
1246242
1246454
1246672
1246888
1247098
1247308
1247522
1247736
1247944
1248140
1248328
1248512
1248694
1248874
1249048
1249224
1249402
1249582
1249770
1249956
1250138
1250324
1250516
1250712
1250900
1251088
1251272
1251460
1251652
1251838
1252020
1252198
1252376
1252552
1252728
1252912
1253106
1253314
1253526
1253730
1253934
1254134
1254332
1254524
1254712
1254904
1255102
1255304
1255500
1255692
1255884
1256084
1256294
1256500
1256700
1256896
1257088
1257286
1257486
1257686
1257882
1258076
1258276
1258482
1258692
1258898
1259098
1259298
1259508
1259720
1259922
1260118
1260314
1260518
1260726
1260940
1261152
1261362
1261590
1261814
1262022
1262214
1262400
1262580
1262760
1262942
1263130
1263316
1263506
1263724
1263958
1264170
1264374
1264584
1264804
1265020
1265224
1265430
1265642
1265858
1266070
1266270
1266474
1266692
1266920
1267140
1267364
1267606
1267834
1268056
1268280
1268506
1268728
1268950
1269170
1269384
1269586
1269790
1269988
1270188
1270386
1270590
1270806
1271030
1271242
1271452
1271666
1271878
1272088
1272292
1272490
1272686
1272882
1273072
1273260
1273448
1273640
1273836
1274034
1274224
1274412
1274602
1274794
1274986
1275176
1275374
1275574
1275770
1275966
1276164
1276368
1276574
1276776
1276972
1277164
1277354
1277544
1277732
1277916
1278102
1278294
1278486
1278678
1278870
1279070
1279270
1279466
1279656
1279840
1280024
1280204
1280382
1280556
1280724
1280892
1281062
1281230
1281400
1281564
1281728
1281890
1282054
1282216
1282384
1282558
1282730
1282904
1283082
1283278
1283490
1283698
1283894
1284092
1284296
1284506
1284714
1284910
1285098
1285284
1285472
1285658
1285846
1286028
1286206
1286392
1286586
1286794
1287004
1287212
1287430
1287650
1287866
1288068
1288262
1288452
1288646
1288840
1289032
1289216
1289400
1289584
1289772
1289966
1290160
1290356
1290558
1290760
1290960
1291156
1291344
1291528
1291718
1291910
1292096
1292274
1292448
1292626
1292812
1293008
1293210
1293416
1293628
1293846
1294064
1294274
1294472
1294666
1294860
1295050
1295236
1295414
1295588
1295770
1295958
1296150
1296346
1296540
1296736
1296932
1297126
1297314
1297500
1297686
1297880
1298076
1298270
1298460
1298648
1298838
1299020
1299198
1299372
1299550
1299732
1299916
1300100
1300284
1300468
1300654
1300836
1301012
1301184
1301356
1301526
1301700
1301882
1302072
1302262
1302454
1302652
1302864
1303066
1303262
1303452
1303638
1303822
1304004
1304186
1304366
1304544
1304722
1304898
1305072
1305250
1305428
1305608
1305790
1305970
1306144
1306320
1306498
1306684
1306870
1307056
1307240
1307432
1307626
1307816
1307998
1308176
1308352
1308534
1308720
1308906
1309092
1309278
1309468
1309658
1309846
1310030
1310214
1310398
1310580
1310760
1310938
1311114
1311296
1311482
1311670
1311854
1312044
1312238
1312436
1312638
1312838
1313042
1313258
1313498
1313728
1313948
1314168
1314384
1314594
1314798
1314998
1315196
1315396
1315592
1315786
1315980
1316172
1316370
1316574
1316780
1316978
1317172
1317362
1317552
1317740
1317928
1318112
1318296
1318482
1318666
1318846
1319024
1319202
1319380
1319562
1319750
1319940
1320130
1320318
1320508
1320706
1320902
1321094
1321282
1321472
1321664
1321858
1322050
1322238
1322416
1322594
1322776
1322962
1323152
1323338
1323522
1323704
1323890
1324080
1324270
1324454
1324634
1324810
1324988
1325170
1325354
1325538
1325722
1325908
1326094
1326282
1326464
1326642
1326820
1326998
1327178
1327358
1327538
1327718
1327898
1328076
1328260
1328440
1328622
1328804
1328986
1329168
1329346
1329526
1329708
1329892
1330074
1330256
1330434
1330614
1330796
1330974
1331150
1331322
1331496
1331670
1331844
1332018
1332194
1332370
1332548
1332724
1332902
1333080
1333262
1333444
1333626
1333804
1333980
1334160
1334338
1334520
1334698
1334880
1335060
1335242
1335422
1335600
1335776
1335952
1336124
1336298
1336470
1336640
1336812
1336982
1337150
1337318
1337480
1337644
1337808
1337972
1338136
1338296
1338456
1338612
1338768
1338924
1339080
1339238
1339394
1339550
1339710
1339868
1340028
1340186
1340342
1340500
1340658
1340812
1340968
1341122
1341276
1341430
1341586
1341742
1341896
1342050
1342206
1342364
1342522
1342682
1342840
1342996
1343154
1343314
1343472
1343630
1343790
1343950
1344112
1344270
1344426
1344584
1344742
1344900
1345054
1345210
1345362
1345512
1345662
1345812
1345962
1346112
1346264
1346416
1346566
1346716
1346868
1347020
1347174
1347330
1347488
1347648
1347810
1347972
1348132
1348292
1348454
1348618
1348786
1348956
1349128
1349304
1349476
1349646
1349818
1349990
1350164
1350344
1350522
1350698
1350874
1351050
1351230
1351416
1351606
1351804
1351996
1352178
1352358
1352534
1352710
1352884
1353054
1353226
1353398
1353576
1353756
1353940
1354126
1354304
1354484
1354666
1354852
1355036
1355216
1355392
1355568
1355744
1355922
1356096
1356268
1356440
1356614
1356790
1356968
1357146
1357322
1357494
1357668
1357852
1358052
1358262
1358474
1358678
1358882
1359092
1359298
1359502
1359698
1359886
1360076
1360274
1360478
1360684
1360882
1361082
1361288
1361502
1361712
1361912
1362106
1362302
1362506
1362718
1362928
1363124
1363316
1363512
1363710
1363908
1364100
1364286
1364472
1364658
1364842
1365026
1365204
1365384
1365578
1365786
1365994
1366196
1366390
1366578
1366766
1366954
1367144
1367332
1367514
1367708
1367924
1368150
1368358
1368568
1368776
1368986
1369192
1369398
1369604
1369816
1370024
1370238
1370450
1370660
1370868
1371080
1371298
1371510
1371724
1371934
1372128
1372312
1372486
1372654
1372820
1372984
1373146
1373306
1373466
1373626
1373786
1373944
1374104
1374262
1374418
1374576
1374734
1374894
1375054
1375210
1375370
1375532
1375692
1375850
1376006
1376162
1376316
1376472
1376628
1376788
1376948
1377112
1377276
1377440
1377606
1377772
1377946
1378124
1378304
1378484
1378662
1378838
1379014
1379200
1379402
1379636
1379864
1380082
1380300
1380522
1380734
1380950
1381176
1381398
1381616
1381834
1382056
1382284
1382508
1382724
1382942
1383168
1383390
1383614
1383834
1384058
1384284
1384512
1384730
1384948
1385172
1385390
1385610
1385824
1386042
1386266
1386484
1386700
1386920
1387140
1387354
1387576
1387792
1388008
1388226
1388442
1388666
1388884
1389102
1389306
1389504
1389706
1389906
1390098
1390282
1390458
1390632
1390810
1390986
1391158
1391332
1391510
1391704
1391954
1392172
1392388
1392608
1392824
1393040
1393256
1393460
1393662
1393874
1394088
1394294
1394494
1394698
1394922
1395154
1395378
1395596
1395818
1396036
1396254
1396478
1396688
1396900
1397108
1397308
1397498
1397682
1397868
1398070
1398302
1398528
1398752
1398972
1399188
1399404
1399620
1399840
1400056
1400274
1400486
1400686
1400880
1401074
1401260
1401446
1401642
1401844
1402046
1402244
1402434
1402626
1402824
1403030
1403230
1403422
1403608
1403792
1403978
1404166
1404360
1404552
1404736
1404916
1405098
1405280
1405458
1405634
1405808
1405984
1406182
1406432
1406658
1406886
1407116
1407338
1407562
1407784
1408004
1408214
1408428
1408638
1408840
1409040
1409244
1409458
1409684
1409906
1410122
1410348
1410572
1410790
1411006
1411226
1411436
1411644
1411842
1412030
1412210
1412388
1412564
1412754
1412954
1413158
1413412
1413636
1413860
1414080
1414298
1414512
1414726
1414928
1415124
1415322
1415524
1415730
1415930
1416132
1416356
1416604
1416828
1417044
1417254
1417464
1417672
1417874
1418072
1418276
1418500
1418720
1418928
1419134
1419346
1419562
1419770
1419966
1420150
1420330
1420510
1420698
1420888
1421078
1421266
1421462
1421672
1421894
1422110
1422318
1422524
1422734
1422942
1423140
1423326
1423514
1423700
1423890
1424084
1424274
1424462
1424652
1424844
1425042
1425238
1425428
1425616
1425802
1425986
1426168
1426344
1426520
1426700
1426892
1427098
1427318
1427538
1427766
1427988
1428200
1428400
1428594
1428776
1428952
1429128
1429306
1429484
1429670
1429884
1430144
1430374
1430602
1430836
1431068
1431292
1431520
1431748
1431964
1432186
1432410
1432624
1432826
1433020
1433214
1433410
1433612
1433812
1434006
1434196
1434384
1434580
1434776
1434966
1435156
1435350
1435554
1435760
1435956
1436154
1436358
1436570
1436784
1436990
1437186
1437384
1437578
1437764
1437950
1438128
1438304
1438484
1438674
1438898
1439138
1439364
1439594
1439828
1440048
1440274
1440502
1440718
1440932
1441134
1441328
1441520
1441716
1441916
1442118
1442314
1442510
1442704
1442902
1443098
1443290
1443476
1443666
1443870
1444124
1444350
1444580
1444806
1445034
1445254
1445468
1445674
1445878
1446088
1446298
1446504
1446708
1446922
1447146
1447364
1447574
1447782
1447992
1448200
1448398
1448598
1448808
1449026
1449244
1449446
1449642
1449830
1450020
1450208
1450390
1450568
1450754
1450960
1451212
1451442
1451676
1451902
1452134
1452358
1452568
1452770
1452968
1453170
1453374
1453574
1453774
1453978
1454194
1454422
1454642
1454848
1455050
1455256
1455464
1455674
1455874
1456068
1456256
1456448
1456642
1456838
1457032
1457224
1457414
1457610
1457806
1457996
1458180
1458360
1458542
1458736
1458938
1459146
1459350
1459552
1459762
1459980
1460194
1460402
1460608
1460822
1461038
1461246
1461450
1461652
1461858
1462066
1462268
1462466
1462668
1462878
1463092
1463298
1463504
1463708
1463920
1464140
1464354
1464562
1464772
1464990
1465210
1465424
1465626
1465828
1466030
1466230
1466424
1466616
1466810
1467004
1467194
1467380
1467564
1467750
1467940
1468144
1468358
1468570
1468784
1469010
1469244
1469476
1469694
1469908
1470128
1470350
1470568
1470774
1470980
1471184
1471388
1471592
1471786
1471980
1472174
1472364
1472548
1472732
1472912
1473092
1473276
1473464
1473658
1473850
1474046
1474258
1474480
1474706
1474920
1475130
1475342
1475554
1475766
1475968
1476172
1476372
1476574
1476774
1476968
1477162
1477358
1477554
1477744
1477928
1478114
1478306
1478502
1478696
1478884
1479070
1479262
1479462
1479676
1479898
1480112
1480324
1480536
1480756
1480968
1481172
1481366
1481556
1481748
1481942
1482132
1482322
1482518
1482726
1482948
1483174
1483396
1483612
1483836
1484060
1484274
1484480
1484682
1484880
1485082
1485282
1485478
1485676
1485882
1486098
1486318
1486532
1486744
1486956
1487164
1487368
1487562
1487760
1487966
1488194
1488422
1488628
1488824
1489014
1489208
1489402
1489598
1489790
1489978
1490166
1490356
1490554
1490754
1490950
1491150
1491360
1491580
1491802
1492016
1492228
1492448
1492674
1492898
1493108
1493306
1493496
1493688
1493884
1494076
1494268
1494462
1494666
1494876
1495090
1495292
1495486
1495684
1495886
1496092
1496290
1496488
1496686
1496886
1497084
1497278
1497466
1497656
1497846
1498040
1498240
1498438
1498634
1498826
1499022
1499222
1499420
1499614
1499806
1500008
1500206
1500400
1500590
1500784
1500976
1501170
1501364
1501558
1501756
1501964
1502178
1502386
1502588
1502796
1503010
1503226
1503432
1503626
1503820
1504014
1504208
1504402
1504602
1504810
1505030
1505258
1505480
1505700
1505908
1506108
1506310
1506510
1506704
1506898
1507094
1507292
1507488
1507680
1507868
1508052
1508234
1508428
1508634
1508852
1509060
1509264
1509466
1509670
1509872
1510070
1510260
1510454
1510650
1510850
1511046
1511234
1511420
1511604
1511784
1511960
1512132
1512304
1512474
1512642
1512808
1512974
1513138
1513298
1513462
1513622
1513786
1513950
1514116
1514282
1514448
1514618
1514788
1514958
1515128
1515294
1515460
1515626
1515792
1515960
1516126
1516294
1516458
1516622
1516784
1516950
1517116
1517282
1517450
1517618
1517784
1517948
1518114
1518284
1518458
1518638
1518818
1518998
1519178
1519366
1519562
1519780
1520006
1520220
1520436
1520664
1520898
1521122
1521330
1521538
1521750
1521976
1522214
1522440
1522668
1522906
1523134
1523360
1523588
1523816
1524044
1524272
1524496
1524724
1524948
1525170
1525396
1525618
1525848
1526072
1526290
1526494
1526690
1526892
1527102
1527312
1527510
1527714
1527932
1528160
1528378
1528586
1528798
1529012
1529224
1529430
1529628
1529828
1530042
1530258
1530462
1530662
1530870
1531084
1531302
1531514
1531714
1531910
1532112
1532322
1532542
1532748
1532952
1533158
1533376
1533590
1533796
1533998
1534204
1534414
1534626
1534826
1535018
1535210
1535412
1535618
1535816
1536008
1536202
1536398
1536604
1536812
1537014
1537216
1537424
1537646
1537862
1538072
1538280
1538510
1538746
1538966
1539176
1539386
1539602
1539826
1540048
1540258
1540470
1540678
1540888
1541104
1541310
1541518
1541730
1541954
1542172
1542384
1542596
1542808
1543022
1543232
1543430
1543632
1543836
1544042
1544244
1544446
1544658
1544894
1545136
1545362
1545584
1545800
1546024
1546244
1546448
1546648
1546846
1547050
1547260
1547476
1547686
1547888
1548082
1548280
1548486
1548694
1548900
1549104
1549318
1549542
1549758
1549964
1550168
1550372
1550580
1550784
1550984
1551186
1551394
1551604
1551802
1551998
1552198
1552404
1552610
1552810
1553010
1553212
1553426
1553646
1553860
1554072
1554300
1554536
1554764
1554978
1555184
1555394
1555616
1555846
1556066
1556284
1556514
1556750
1556976
1557204
1557422
1557650
1557874
1558084
1558286
1558484
1558686
1558898
1559110
1559318
1559514
1559702
1559894
1560094
1560296
1560494
1560684
1560872
1561068
1561274
1561482
1561686
1561888
1562098
1562346
1562576
1562794
1563014
1563242
1563464
1563678
1563878
1564070
1564262
1564456
1564660
1564864
1565060
1565254
1565456
1565658
1565860
1566054
1566240
1566422
1566610
1566798
1566986
1567170
1567354
1567554
1567782
1568032
1568262
1568498
1568724
1568956
1569176
1569404
1569632
1569860
1570090
1570310
1570534
1570758
1570978
1571220
1571440
1571664
1571892
1572120
1572344
1572570
1572800
1573030
1573258
1573484
1573700
1573910
1574104
1574302
1574514
1574726
1574934
1575134
1575336
1575536
1575740
1575940
1576134
1576320
1576506
1576700
1576896
1577092
1577288
1577488
1577702
1577930
1578150
1578370
1578594
1578816
1579026
1579228
1579422
1579614
1579806
1580002
1580192
1580384
1580584
1580800
1581008
1581210
1581416
1581646
1581886
1582108
1582322
1582542
1582766
1582990
1583202
1583406
1583610
1583826
1584054
1584282
1584494
1584704
1584920
1585154
1585390
1585604
1585828
1586072
1586302
1586528
1586756
1586976
1587194
1587412
1587626
1587828
1588028
1588232
1588440
1588640
1588832
1589022
1589218
1589420
1589620
1589810
1589996
1590178
1590368
1590560
1590750
1590934
1591122
1591318
1591530
1591750
1591960
1592164
1592376
1592592
1592816
1593038
1593244
1593446
1593660
1593888
1594106
1594312
1594514
1594714
1594918
1595128
1595330
1595528
1595728
1595938
1596148
1596348
1596544
1596742
1596942
1597146
1597346
1597540
1597736
1597940
1598158
1598372
1598578
1598784
1599002
1599240
1599464
1599674
1599884
1600106
1600338
1600560
1600768
1600976
1601196
1601432
1601660
1601878
1602096
1602320
1602544
1602762
1602970
1603172
1603376
1603582
1603792
1603998
1604192
1604386
1604582
1604782
1604986
1605186
1605382
1605574
1605766
1605966
1606176
1606376
1606568
1606760
1606960
1607174
1607388
1607590
1607792
1608002
1608222
1608440
1608648
1608850
1609058
1609280
1609506
1609720
1609930
1610148
1610378
1610606
1610820
1611028
1611238
1611458
1611680
1611886
1612090
1612294
1612508
1612728
1612938
1613146
1613352
1613564
1613786
1614000
1614202
1614396
1614586
1614774
1614956
1615136
1615316
1615504
1615708
1615928
1616136
1616342
1616552
1616766
1616976
1617178
1617374
1617572
1617772
1617968
1618162
1618346
1618534
1618722
1618914
1619104
1619296
1619484
1619686
1619894
1620110
1620318
1620514
1620702
1620892
1621088
1621282
1621478
1621684
1621906
1622136
1622352
1622552
1622746
1622940
1623146
1623354
1623560
1623776
1624008
1624246
1624468
1624690
1624922
1625158
1625390
1625610
1625824
1626036
1626252
1626476
1626690
1626902
1627120
1627346
1627568
1627778
1627988
1628200
1628422
1628632
1628838
1629050
1629282
1629522
1629740
1629958
1630174
1630398
1630610
1630816
1631022
1631238
1631458
1631672
1631874
1632072
1632270
1632472
1632680
1632882
1633088
1633302
1633528
1633740
1633942
1634146
1634354
1634566
1634770
1634970
1635172
1635374
1635582
1635788
1635992
1636208
1636444
1636686
1636912
1637120
1637318
1637512
1637712
1637910
1638108
1638310
1638528
1638776
1639014
1639240
1639454
1639674
1639896
1640110
1640310
1640504
1640696
1640884
1641068
1641250
1641434
1641632
1641852
1642086
1642310
1642532
1642762
1642980
1643188
1643390
1643590
1643782
1643970
1644150
1644332
1644522
1644728
1644948
1645164
1645382
1645616
1645846
1646070
1646278
1646476
1646678
1646882
1647086
1647286
1647480
1647668
1647860
1648056
1648260
1648472
1648680
1648902
1649148
1649386
1649608
1649824
1650042
1650254
1650472
1650684
1650886
1651080
1651276
1651482
1651698
1651906
1652104
1652298
1652490
1652680
1652864
1653050
1653236
1653430
1653654
1653902
1654128
1654352
1654586
1654824
1655054
1655274
1655482
1655680
1655878
1656084
1656296
1656502
1656722
1656980
1657224
1657454
1657680
1657892
1658108
1658326
1658532
1658728
1658918
1659114
1659326
1659548
1659776
1660016
1660236
1660450
1660660
1660864
1661074
1661302
1661554
1661786
1662020
1662250
1662478
1662702
1662932
1663160
1663386
1663616
1663848
1664062
1664264
1664464
1664666
1664862
1665054
1665258
1665484
1665720
1665948
1666194
1666438
1666664
1666890
1667092
1667286
1667482
1667684
1667884
1668080
1668274
1668484
1668700
1668908
1669112
1669314
1669514
1669720
1669922
1670122
1670336
1670568
1670800
1671018
1671232
1671452
1671672
1671878
1672082
1672292
1672502
1672702
1672892
1673080
1673268
1673468
1673682
1673900
1674112
1674338
1674588
1674818
1675042
1675268
1675478
1675686
1675894
1676104
1676306
1676498
1676686
1676880
1677080
1677278
1677478
1677704
1677954
1678188
1678408
1678622
1678838
1679050
1679262
1679464
1679658
1679854
1680054
1680256
1680456
1680652
1680852
1681066
1681290
1681508
1681722
1681928
1682130
1682330
1682526
1682718
1682914
1683116
1683326
1683536
1683736
1683936
1684136
1684334
1684532
1684728
1684928
1685136
1685352
1685576
1685792
1686012
1686242
1686480
1686702
1686908
1687106
1687302
1687506
1687716
1687928
1688134
1688346
1688588
1688832
1689054
1689264
1689474
1689688
1689904
1690112
1690322
1690552
1690778
1690988
1691186
1691376
1691568
1691776
1691996
1692214
1692426
1692646
1692872
1693090
1693296
1693492
1693696
1693906
1694118
1694326
1694536
1694762
1694994
1695216
1695426
1695640
1695852
1696054
1696250
1696442
1696644
1696860
1697090
1697316
1697562
1697792
1698022
1698244
1698466
1698674
1698882
1699088
1699288
1699488
1699694
1699914
1700126
1700336
1700552
1700782
1701022
1701258
1701482
1701700
1701906
1702106
1702300
1702492
1702690
1702908
1703146
1703380
1703616
1703860
1704084
1704312
1704538
1704748
1704954
1705160
1705360
1705558
1705762
1705976
1706186
1706390
1706598
1706822
1707040
1707248
1707458
1707674
1707888
1708094
1708296
1708496
1708692
1708884
1709074
1709266
1709468
1709688
1709908
1710118
1710318
1710520
1710728
1710938
1711146
1711388
1711636
1711868
1712108
1712344
1712578
1712806
1713038
1713248
1713454
1713660
1713870
1714078
1714296
1714532
1714774
1714998
1715210
1715420
1715632
1715838
1716038
1716244
1716458
1716670
1716874
1717068
1717272
1717480
1717692
1717898
1718096
1718292
1718494
1718700
1718908
1719112
1719312
1719508
1719718
1719938
1720150
1720356
1720564
1720780
1721000
1721210
1721410
1721598
1721780
1721968
1722168
1722368
1722580
1722838
1723070
1723300
1723530
1723760
1723986
1724214
1724440
1724666
1724894
1725116
1725324
1725528
1725730
1725940
1726150
1726356
1726560
1726776
1727010
1727238
1727454
1727666
1727886
1728102
1728310
1728506
1728696
1728892
1729098
1729302
1729506
1729712
1729928
1730154
1730368
1730576
1730784
1730994
1731194
1731388
1731580
1731776
1731974
1732170
1732358
1732542
1732724
1732906
1733090
1733276
1733458
1733650
1733844
1734048
1734248
1734440
1734626
1734814
1735004
1735200
1735392
1735582
1735776
1735978
1736182
1736374
1736562
1736742
1736920
1737096
1737268
1737440
1737610
1737778
1737942
1738106
1738274
1738442
1738604
1738772
1738938
1739104
1739270
1739432
1739594
1739758
1739922
1740084
1740244
1740404
1740564
1740726
1740884
1741044
1741202
1741362
1741522
1741678
1741836
1741994
1742152
1742312
1742470
1742630
1742794
1742962
1743128
1743296
1743462
1743632
1743802
1743974
1744150
1744324
1744500
1744674
1744846
1745012
1745174
1745338
1745504
1745666
1745828
1745984
1746140
1746292
1746442
1746590
1746738
1746886
1747036
1747182
1747330
1747478
1747624
1747768
1747912
1748054
1748196
1748334
1748474
1748612
1748750
1748888
1749028
1749170
1749312
1749450
1749588
1749726
1749864
1750006
1750150
1750292
1750432
1750574
1750714
1750854
1750992
1751128
1751266
1751404
1751546
1751684
1751824
1751966
1752108
1752250
1752390
1752530
1752674
1752814
1752950
1753090
1753228
1753366
1753502
1753640
1753782
1753926
1754070
1754212
1754352
1754490
1754634
1754778
1754920
1755064
1755206
1755344
1755482
1755618
1755758
1755896
1756036
1756178
1756316
1756454
1756596
1756734
1756876
1757020
1757158
1757300
1757440
1757578
1757716
1757856
1757994
1758136
1758276
1758414
1758554
1758694
1758832
1758970
1759110
1759250
1759390
1759530
1759670
1759806
1759942
1760082
1760218
1760354
1760488
1760622
1760760
1760894
1761028
1761164
1761300
1761434
1761572
1761710
1761850
1761990
1762130
1762270
1762408
1762548
1762686
1762826
1762966
1763108
1763248
1763390
1763530
1763670
1763812
1763954
1764096
1764238
1764380
1764522
1764662
1764804
1764944
1765082
1765220
1765362
1765502
1765644
1765786
1765928
1766070
1766212
1766352
1766494
1766636
1766776
1766918
1767056
1767194
1767334
1767472
1767608
1767750
1767890
1768028
1768166
1768302
1768440
1768580
1768720
1768860
1768998
1769134
1769270
1769406
1769540
1769674
1769808
1769944
1770078
1770210
1770346
1770482
1770616
1770750
1770884
1771018
1771152
1771284
1771418
1771552
1771684
1771816
1771948
1772080
1772214
1772346
1772480
1772612
1772744
1772876
1773008
1773144
1773282
1773418
1773554
1773688
1773824
1773960
1774094
1774228
1774360
1774494
1774630
1774768
1774908
1775048
1775188
1775326
1775466
1775606
1775748
1775890
1776032
1776172
1776310
1776448
1776590
1776730
1776870
1777010
1777152
1777294
1777432
1777572
1777714
1777856
1778000
1778146
1778290
1778436
1778584
1778738
1778892
1779054
1779222
1779398
1779586
1779790
1779996
1780170
1780340
1780524
1780704
1780876
1781038
1781194
1781346
1781496
1781644
1781792
1781938
1782084
1782226
1782370
1782514
1782660
1782806
1782948
1783092
1783232
1783372
1783510
1783650
1783788
1783928
1784066
1784210
1784352
1784490
1784630
1784768
1784906
1785040
1785176
1785314
1785452
1785590
1785726
1785864
1785998
1786136
1786270
1786408
1786542
1786676
1786812
1786946
1787084
1787224
1787368
1787508
1787654
1787796
1787940
1788086
1788230
1788376
1788522
1788668
1788820
1788968
1789118
1789268
1789416
1789564
1789712
1789862
1790006
1790152
1790296
1790440
1790582
1790724
1790866
1791010
1791154
1791298
1791440
1791580
1791722
1791866
1792016
1792162
1792312
1792460
1792608
1792752
1792896
1793042
1793188
1793332
1793476
1793620
1793760
1793904
1794048
1794196
1794340
1794482
1794628
1794772
1794916
1795064
1795210
1795358
1795504
1795650
1795798
1795946
1796090
1796238
1796388
1796538
1796684
1796832
1796978
1797128
1797276
1797422
1797568
1797716
1797862
1798010
1798156
1798298
1798444
1798586
1798734
1798882
1799030
1799174
1799320
1799466
1799614
1799762
1799908
