peaks
58
258
458
656
858
1058
1254
1454
1654
1854
2052
2256
2454
2650
2850
3046
3240
3434
3626
3818
4008
4198
4386
4576
4766
4958
5152
5344
5542
5742
5946
6152
6360
6568
6778
6990
7204
7418
7638
7852
8068
8284
8500
8714
8928
9140
9352
9566
9782
9998
10210
10426
10640
10856
11070
11284
11492
11692
11886
12078
12270
12460
12652
12848
13048
13250
13452
13652
13854
14064
14274
14484
14698
14912
15124
15336
15548
15768
15986
16202
16420
16642
16862
17082
17302
17518
17732
17948
18162
18372
18578
18782
18990
19196
19400
19600
19804
20010
20216
20424
20634
20844
21054
21268
21486
21702
21918
22134
22352
22570
22784
22998
23210
23424
23636
23846
24050
24254
24462
24666
24874
25082
25288
25492
25694
25898
26106
26316
26526
26738
26950
27164
27378
27592
27804
28016
28226
28440
28652
28864
29070
29276
29482
29692
29900
30112
30328
30544
30762
30982
31206
31426
31646
31864
32084
32304
32522
32738
32954
33168
33384
33598
33812
34026
34240
34454
34666
34878
35092
35298
35498
35696
35898
36100
36296
36490
36688
36880
37068
37258
37450
37646
37842
38040
38238
38438
38640
38846
39052
39260
39476
39690
39904
40114
40324
40532
40738
40946
41156
41366
41580
41794
42010
42228
42446
42666
42886
43104
43322
43540
43754
43968
44186
44400
44612
44826
45040
45254
45466
45678
45892
46104
46316
46526
46730
46928
47122
47312
47500
47686
47872
48054
48234
48410
48584
48760
48934
49106
49280
49452
49618
49790
49962
50136
50308
50482
50658
50830
51006
51180
51360
51534
51706
51878
52048
52222
52398
52570
52744
52914
53088
53260
53432
53606
53780
53958
54140
54324
54510
54706
54904
55108
55316
55534
55754
55974
56196
56420
56640
56864
57086
57306
57522
57734
57944
58158
58374
58588
58804
59022
59240
59456
59674
59886
60098
60302
60512
60724
60942
61160
61380
61596
61810
62022
62236
62450
62660
62876
63092
63306
63520
63736
63952
64166
64380
64594
64812
65030
65246
65462
65678
65894
66106
66320
66534
66744
66948
67152
67360
67564
67770
67976
68186
68390
68592
68796
69000
69202
69402
69600
69796
69992
70188
70378
70566
70756
70944
71128
71310
71494
71682
71868
72054
72236
72420
72600
72780
72960
73144
73332
73528
73730
73934
74150
74366
74580
74798
75016
75232
75448
75662
75876
76088
76306
76522
76736
76956
77178
77398
77622
77844
78068
78292
78510
78724
78940
79160
79378
79594
79814
80030
80240
80442
80648
80860
81072
81280
81486
81692
81896
82096
82298
82500
82702
82904
83108
83314
83524
83734
83946
84164
84386
84614
84842
85072
85300
85528
85756
85982
86208
86432
86652
86874
87096
87316
87530
87744
87954
88160
88366
88570
88780
88994
89208
89418
89630
89840
90058
90272
90486
90700
90912
91120
91330
91542
91756
91970
92180
92388
92596
92804
93014
93224
93436
93650
93866
94086
94308
94528
94744
94962
95182
95398
95612
95828
96042
96258
96472
96690
96906
97116
97332
97548
97766
97984
98202
98416
98634
98854
99076
99296
99514
99730
99950
100172
100386
100604
100820
101036
101254
101472
101690
101908
102122
102340
102560
102778
102994
103212
103424
103640
103856
104074
104290
104502
104716
104932
105142
105354
105566
105782
105994
106210
106424
106638
106848
107054
107264
107472
107680
107892
108098
108306
108514
108718
108930
109144
109352
109566
109776
109990
110190
110386
110568
110752
110938
111120
111310
111498
111680
111856
112032
112210
112386
112558
112728
112894
113056
113218
113382
113546
113706
113864
114020
114180
114338
114496
114652
114812
114970
115134
115296
115458
115624
115792
115958
116128
116298
116472
116646
116820
116998
117180
117364
117552
117744
117940
118134
118332
118532
118726
118920
119116
119304
119492
119682
119872
120068
120264
120454
120632
120818
120998
121182
121364
121544
121728
121912
122090
122270
122452
122634
122814
122996
123180
123362
123546
123728
123914
124100
124286
124470
124654
124836
125016
125196
125374
125558
125746
125938
126128
126316
126502
126686
126868
127046
127224
127400
127574
127746
127916
128084
128254
128420
128588
128752
128916
129080
129238
129396
129552
129708
129862
130018
130176
130334
130490
130652
130808
130970
131132
131298
131462
131624
131790
131956
132124
132294
132462
132632
132800
132966
133132
133304
133478
133654
133842
134036
134228
134416
134612
134804
135000
135198
135394
135586
135780
135964
136144
136328
136504
136680
136848
137018
137190
137368
137546
137726
137902
138080
138254
138424
138594
138768
138942
139120
139300
139478
139652
139826
140004
140182
140358
140534
140716
140902
141082
141262
141440
141618
141792
141966
142136
142308
142480
142650
142818
142994
143172
143356
143546
143732
143910
144088
144264
144442
144614
144784
144958
145126
145296
145468
145646
145820
145998
146174
146350
146528
146704
146880
147054
147226
147402
147576
147756
147934
148114
148294
148474
148652
148828
149002
149178
149352
149528
149702
149880
150054
150230
150408
150586
150766
150948
151126
151304
151482
151656
151830
152002
152172
152340
152510
152682
152852
153028
153202
153380
153556
153730
153904
154080
154262
154442
154624
154806
154986
155164
155344
155522
155700
155880
156058
156234
156410
156588
156766
156944
157124
157304
157484
157664
157842
158024
158202
158382
158560
158736
158912
159090
159264
159438
159614
159788
159960
160132
160302
160476
160652
160826
161000
161176
161352
161530
161704
161882
162058
162238
162416
162590
162770
162952
163130
163308
163482
163654
163822
163992
164164
164340
164518
164694
164870
165044
165220
165392
165564
165740
165914
166086
166258
166432
166606
166778
166950
167122
167296
167470
167644
167818
167998
168182
168366
168548
168730
168902
169074
169246
169414
169584
169752
169920
170086
170252
170418
170584
170758
170930
171106
171284
171462
171640
171816
171992
172170
172346
172526
172706
172890
173076
173264
173452
173632
173812
173992
174172
174350
174532
174710
174886
175062
175236
175408
175582
175756
175930
176104
176278
176454
176630
176810
176990
177166
177344
177526
177708
177890
178074
178260
178448
178632
178816
178994
179176
179356
179534
179710
179892
180078
180266
180452
180636
180820
181004
181186
181364
181542
181722
181902
182086
182266
182448
182626
182806
182986
183168
183350
183534
183718
183900
184082
184262
184444
184620
184796
184976
185156
185346
185532
185724
185912
186096
186278
186456
186638
186816
186998
187180
187364
187552
187736
187918
188098
188282
188464
188652
188838
189022
189206
189388
189568
189752
189936
190118
190300
190482
190662
190844
191026
191206
191384
191566
191746
191924
192100
192274
192450
192624
192798
192974
193152
193332
193516
193698
193878
194062
194248
194434
194618
194808
194996
195188
195370
195550
195730
195908
196090
196272
196456
196638
196822
197004
197184
197368
197548
197730
197910
198090
198272
198452
198630
198810
198990
199174
199358
199538
199718
199896
200076
200258
200434
200616
200798
200978
201154
201332
201508
201686
201862
202040
202218
202400
202584
202764
202950
203140
203326
203508
203688
203868
204050
204232
204414
204598
204780
204960
205142
205320
205498
205672
205850
206026
206204
206376
206548
206722
206898
207074
207248
207420
207592
207760
207924
208084
208244
208406
208568
208730
208890
209052
209214
209376
209538
209698
209860
210020
210180
210340
210498
210656
210816
210974
211132
211292
211452
211614
211772
211932
212090
212252
212416
212578
212738
212900
213062
213226
213392
213556
213720
213882
214050
214216
214384
214552
214720
214886
215054
215222
215390
215554
215722
215892
216066
216246
216424
216600
216780
216958
217134
217306
217478
217648
217820
217990
218158
218328
218494
218662
218828
218986
219148
219310
219474
219638
219802
219964
220122
220278
220438
220594
220752
220906
221064
221222
221380
221538
221696
221852
222008
222168
222330
222494
222656
222816
222976
223136
223300
223464
223628
223792
223952
224118
224286
224452
224618
224784
224948
225110
225274
225438
225606
225770
225936
226104
226270
226440
226608
226778
226948
227118
227286
227458
227632
227802
227974
228144
228312
228482
228648
228812
228972
229136
229300
229464
229626
229786
229950
230112
230274
230438
230600
230766
230930
231092
231258
231426
231594
231762
231930
232098
232270
232440
232608
232776
232946
233114
233276
233440
233604
233768
233932
234098
234260
234422
234584
234744
234902
235064
235224
235386
235548
235708
235870
236032
236196
236358
236522
236686
236854
237022
237188
237356
237526
237702
237876
238048
238220
238396
238570
238742
238914
239088
239260
239434
239608
239780
239954
240126
240296
240464
240632
240800
240968
241132
241298
241462
241628
241796
241966
242130
242298
242466
242632
242798
242962
243130
243298
243462
243628
243796
243962
244128
244296
244464
244634
244802
244972
245140
245310
245476
245646
245812
245982
246150
246316
246484
246652
246822
246994
247158
247324
247492
247658
247824
247988
248152
248316
248478
248638
248796
248958
249122
249290
249458
249622
249788
249956
250124
250292
250458
250626
250794
250962
251130
251302
251470
251642
251812
251982
252150
252316
252486
252682
252866
253048
253230
253408
253586
253762
253936
254110
254284
254454
254622
254790
254960
255128
255292
255456
255620
255788
255956
256126
256298
256470
256640
256810
256978
257150
257320
257494
257668
257840
258010
258180
258352
258526
258700
258874
259044
259218
259390
259564
259738
259910
260080
260256
260432
260606
260778
260952
261130
261306
261486
261660
261836
262012
262184
262356
262522
262688
262858
263022
263190
263356
263522
263690
263856
264024
264194
264364
264534
264702
264872
265042
265212
265380
265550
265726
265900
266078
266256
266430
266608
266784
266962
267134
267306
267482
267654
267826
267996
268168
268336
268502
268672
268840
269010
269178
269344
269506
269670
269834
269998
270158
270320
270478
270638
270798
270960
271124
271290
271456
271624
271794
271966
272138
272306
272476
272648
272820
272994
273166
273340
273516
273688
273858
274030
274204
274376
274548
274722
274892
275060
275230
275410
275584
275758
275936
276114
276292
276468
276640
276812
276980
277144
277310
277476
277644
277816
277988
278156
278326
278494
278660
278824
278990
279152
279316
279480
279642
279810
279976
280144
280312
280478
280646
280818
280992
281166
281340
281512
281684
281854
282024
282192
282362
282530
282696
282860
283026
283194
283360
283528
283694
283864
284036
284212
284384
284554
284726
284896
285066
285238
285406
285574
285742
285912
286080
286252
286420
286588
286756
286924
287086
287250
287414
287578
287744
287910
288076
288242
288406
288568
288734
288892
289052
289216
289378
289542
289706
289870
290036
290206
290374
290542
290714
290888
291062
291234
291408
291582
291752
291924
292094
292264
292438
292610
292780
292950
293122
293294
293466
293634
293798
293962
294126
294286
294448
294608
294768
294930
295088
295248
295406
295562
295718
295872
296026
296182
296334
296486
296638
296792
296946
297100
297256
297414
297572
297730
297888
298048
298212
298376
298542
298712
298874
299040
299206
299368
299534
299698
299866
300038
300208
300374
300540
300702
300864
301028
301190
301352
301512
301670
301832
301992
302154
302316
302482
302646
302808
302968
303126
303284
303444
303604
303758
303914
304068
304224
304380
304534
304690
304844
305002
305158
305314
305470
305626
305784
305942
306100
306258
306416
306572
306730
306890
307046
307200
307356
307514
307670
307826
307982
308138
308296
308456
308612
308766
308920
309078
309236
309396
309554
309710
309866
310018
310170
310324
310476
310626
310778
310930
311082
311236
311384
311538
311688
311838
311990
312126
312298
312454
312610
312770
312928
313084
313238
313392
313548
313706
313860
314012
314162
314310
314462
314614
314766
314918
315070
315218
315368
315516
315664
315816
315966
316116
316264
316414
316564
316718
316872
317030
317186
317340
317500
317660
317826
317990
318154
318318
318482
318642
318806
318968
319126
319282
319434
319586
319744
319900
320056
320212
320370
320532
320692
320848
321002
321154
321308
321462
321616
321770
321922
322072
322226
322382
322540
322702
322860
323022
323188
323354
323522
323684
323850
324016
324184
324356
324522
324690
324858
325028
325200
325370
325542
325710
325874
326040
326204
326368
326530
326690
326848
327008
327168
327328
327490
327656
327826
327996
328162
328328
328492
328658
328824
328992
329156
329324
329494
329664
329832
330002
330174
330344
330512
330676
330838
331000
331162
331324
331488
331652
331814
331974
332136
332298
332464
332628
332788
332952
333116
333278
333442
333602
333764
333926
334092
334260
334422
334584
334750
334916
335084
335250
335414
335578
335740
335906
336072
336236
336396
336554
336716
336878
337038
337204
337368
337536
337704
337874
338042
338204
338370
338536
338698
338858
339022
339186
339350
339514
339684
339854
340022
340192
340360
340528
340692
340860
341026
341188
341354
341520
341684
341850
342020
342188
342352
342518
342684
342854
343020
343184
343346
343510
343672
343832
343992
344154
344318
344480
344646
344808
344968
345130
345292
345452
345610
345770
345932
346092
346254
346414
346574
346732
346888
347044
347202
347358
347516
347676
347836
347994
348160
348328
348494
348658
348818
348978
349138
349300
349462
349626
349792
349956
350126
350296
350464
350630
350796
350964
351128
351300
351466
351632
351794
351960
352134
352304
352474
352642
352810
352982
353152
353322
353488
353650
353812
353974
354136
354304
354472
354644
354814
354990
355162
355330
355502
355670
355838
356006
356174
356344
356512
356676
356838
357004
357166
357326
357484
357644
357804
357964
358120
358276
358434
358590
358746
358898
359054
359210
359366
359522
359682
359842
360002
360166
360324
360486
360646
360808
360968
361130
361290
361460
361632
361808
361986
362168
362344
362524
362696
362862
363028
363194
363354
363514
363674
363830
363988
364150
364314
364482
364654
364824
364998
365166
365330
365496
365660
365820
365984
366148
366308
366478
366648
366816
366984
367150
367314
367474
367636
367796
367962
368132
368300
368472
368642
368812
368976
369136
369300
369462
369622
369782
369940
370102
370262
370416
370570
370720
370874
371034
371194
371354
371516
371676
371834
371994
372154
372318
372486
372654
372818
372976
373136
373296
373458
373616
373772
373928
374084
374240
374400
374558
374718
374880
375044
375208
375372
375534
375696
375860
376024
376184
376350
376518
376688
376854
377018
377186
377354
377520
377688
377854
378016
378172
378330
378490
378648
378806
378962
379124
379286
379446
379612
379776
379942
380110
380274
380448
380620
380794
380966
381136
381308
381482
381656
381830
382002
382174
382344
382518
382688
382854
383018
383186
383354
383520
383686
383848
384012
384174
384336
384504
384676
384850
385020
385194
385362
385534
385704
385872
386042
386208
386374
386546
386722
386894
387066
387234
387398
387564
387732
387896
388060
388222
388384
388544
388702
388866
389032
389198
389366
389534
389700
389870
390040
390210
390376
390542
390712
390880
391050
391218
391386
391558
391728
391898
392064
392226
392394
392562
392734
392900
393064
393230
393394
393554
393718
393890
394068
394244
394418
394592
394764
394932
395098
395262
395426
395590
395758
395926
396094
396266
396438
396610
396782
396956
397128
397298
397468
397640
397814
397986
398156
398324
398490
398660
398830
398996
399162
399332
399502
399674
399844
400016
400186
400352
400518
400686
400854
401024
401194
401362
401526
401690
401854
402016
402176
402334
402492
402650
402810
402972
403138
403304
403474
403646
403816
403980
404144
404314
404482
404648
404816
404980
405142
405308
405470
405634
405796
405956
406116
406278
406434
406594
406756
406922
407088
407256
407422
407586
407752
407924
408094
408260
408426
408592
408758
408924
409092
409260
409424
409592
409756
409922
410088
410250
410412
410572
410732
410890
411050
411212
411376
411538
411702
411866
412028
412190
412350
412512
412672
412834
412998
413160
413324
413486
413646
413804
413966
414124
414284
414442
414600
414758
414916
415074
415236
415398
415558
415718
415878
416038
416202
416366
416530
416694
416862
417032
417204
417370
417536
417706
417876
418046
418220
418388
418556
418726
418894
419062
419226
419394
419558
419726
419894
420058
420222
420386
420552
420718
420882
421050
421216
421382
421546
421710
421878
422046
422216
422384
422548
422714
422878
423042
423208
423370
423534
423696
423856
424014
424174
424332
424488
424650
424810
424970
425130
425290
425450
425612
425772
425934
426096
426260
426424
426590
426754
426920
427084
427250
427414
427576
427736
427896
428056
428218
428380
428538
428698
428856
429014
429172
429332
429492
429652
429812
429974
430134
430298
430460
430622
430784
430952
431120
431290
431456
431626
431798
431968
432138
432306
432474
432646
432812
432978
433142
433308
433474
433644
433816
433986
434152
434318
434480
434600
434796
434958
435120
435238
435440
435534
435770
435934
436096
436258
436416
436578
436740
436898
437056
437212
437366
437520
437672
437824
437976
438130
438286
438444
438608
438770
438934
439104
439270
439438
439606
439770
439938
440106
440274
440440
440610
440784
440960
441136
441308
441480
441650
441818
441984
442146
442304
442466
442626
442790
442954
443120
443286
443450
443618
443786
443952
444116
444278
444440
444606
444770
444934
445094
445254
445414
445574
445730
445884
446042
446198
446356
446516
446678
446844
447010
447178
447344
447508
447674
447840
448008
448176
448342
448508
448678
448844
449008
449170
449332
449490
449648
449808
449970
450136
450300
450462
450626
450792
450962
451130
451298
451466
451634
451802
451970
452134
452298
452460
452626
452794
452962
453128
453298
453466
453634
453798
453962
454124
454284
454444
454602
454762
454920
455078
455238
455400
455560
455720
455880
456042
456204
456366
456528
456690
456852
457016
457180
457344
457508
457674
457842
458006
458168
458332
458494
458654
458816
458980
459144
459308
459468
459626
459784
459942
460102
460260
460424
460584
460746
460912
461072
461238
461402
461568
461734
461900
462064
462226
462390
462556
462726
462892
463060
463222
463386
463548
463712
463872
464032
464188
464344
464500
464654
464808
464964
465120
465278
465432
465588
465744
465902
466064
466224
466382
466540
466694
466850
467006
467164
467322
467478
467636
467796
467952
468110
468270
468430
468588
468746
468904
469058
469214
469370
469528
469686
469844
470002
470158
470312
470472
470636
470800
470964
471128
471292
471454
471614
471772
471930
472090
472250
472412
472574
472734
472894
473052
473214
473374
473534
473692
473852
474012
474170
474326
474484
474642
474796
474952
475110
475270
475432
475592
475752
475910
476070
476228
476384
476538
476694
476850
477008
477166
477320
477474
477630
477790
477950
478106
478262
478422
478578
478738
478898
479056
479214
479374
479534
479694
479854
480014
480174
480336
480496
480656
480814
480972
481132
481292
481454
481614
481776
481940
482102
482268
482436
482602
482766
482928
483094
483260
483426
483594
483758
483922
484084
484240
484398
484556
484716
484880
485044
485210
485376
485542
485706
485868
486032
486198
486358
486520
486682
486840
487000
487158
487316
487472
487630
487786
487948
488104
488262
488420
488580
488740
488898
489056
489216
489378
489544
489706
489870
490034
490198
490358
490518
490676
490840
491000
491164
491328
491492
491654
491816
491980
492144
492316
492482
492650
492818
492988
493156
493322
493486
493648
493814
493980
494144
494306
494468
494628
494790
494950
495110
495270
495432
495594
495758
495920
496084
496246
496408
496572
496736
496898
497062
497224
497388
497548
497708
497868
498026
498188
498350
498510
498666
498820
498974
499126
499278
499432
499586
499742
499900
500058
500214
500372
500528
500686
500846
501008
501172
501334
501496
501656
501818
501984
502150
502312
502470
502628
502788
502952
503114
503276
503436
503592
503748
503906
504062
504216
504376
504536
504698
504860
505022
505182
505344
505504
505664
505826
505988
506152
506316
506478
506636
506794
506952
507110
507270
507424
507580
507734
507890
508048
508206
508364
508522
508680
508840
509000
509164
509330
509494
509660
509822
509984
510144
510306
510468
510628
510786
510944
511104
511266
511426
511588
511750
511912
512078
512240
512402
512560
512724
512900
513066
513232
513400
513562
513726
513888
514050
514208
514372
514536
514698
514862
515020
515174
515328
515478
515628
515774
515922
516068
516214
516362
516508
516654
516800
516946
517092
517238
517386
517530
517674
517822
517970
518120
518268
518416
518564
518716
518866
519020
519170
519322
519476
519630
519784
519942
520098
520254
520406
520560
520714
520868
521018
521172
521324
521478
521632
521786
521944
522098
522254
522410
522566
522726
522884
523046
523206
523370
523530
523694
523856
524018
524186
524350
524514
524674
524834
524996
525158
525324
525490
525656
525820
525982
526142
526308
526472
526634
526798
526964
527130
527298
527464
527628
527792
527958
528122
528280
528438
528594
528752
528910
529072
529236
529400
529566
529730
529894
530056
530218
530380
530542
530702
530858
531016
531174
531334
531496
531656
531818
531978
532140
532304
532466
532628
532792
532954
533114
533274
533434
533596
533754
533912
534068
534224
534378
534534
534686
534842
535002
535164
535326
535486
535644
535802
535962
536126
536294
536460
536626
536790
536954
537118
537280
537442
537598
537756
537912
538066
538220
538372
538524
538676
538830
538986
539140
539294
539448
539602
539758
539916
540072
540232
540390
540548
540704
540862
541018
541176
541336
541496
541656
541816
541976
542134
542290
542448
542604
542762
542920
543080
543240
543400
543558
543716
543874
544032
544188
544350
544510
544670
544828
544984
545144
545300
545454
545610
545764
545922
546078
546236
546396
546556
546714
546874
547034
547192
547350
547506
547664
547822
547982
548142
548302
548462
548620
548778
548938
549104
549266
549430
549594
549758
549920
550082
550242
550402
550564
550722
550880
551038
551200
551364
551532
551698
551864
552032
552196
552360
552524
552686
552850
553014
553178
553342
553502
553662
553822
553984
554142
554302
554462
554624
554786
554952
555114
555276
555438
555602
555766
555932
556098
556266
556432
556600
556764
556928
557090
557250
557410
557568
557726
557882
558038
558198
558358
558520
558682
558844
559004
559164
559322
559480
559640
559800
559960
560118
560276
560428
560580
560734
560886
561040
561194
561348
561504
561658
561816
561976
562136
562296
562454
562610
562764
562918
563070
563222
563374
563526
563680
563836
563996
564154
564308
564464
564622
564782
564942
565100
565258
565418
565578
565736
565892
566048
566206
566362
566520
566678
566850
567018
567188
567354
567520
567686
567852
568014
568180
568346
568510
568672
568832
568992
569152
569308
569466
569628
569792
569956
570118
570280
570442
570598
570754
570912
571070
571232
571396
571558
571720
571884
572050
572214
572378
572540
572704
572866
573028
573190
573350
573510
573674
573840
574004
574166
574326
574486
574648
574806
574966
575124
575280
575436
575592
575748
575906
576068
576234
576402
576568
576728
576888
577046
577204
577366
577526
577684
577844
578004
578164
578324
578484
578644
578804
578966
579128
579286
579444
579604
579764
579922
580082
580242
580406
580570
580736
580904
581070
581236
581402
581568
581734
581900
582066
582230
582396
582558
582714
582872
583028
583186
583348
583504
583662
583818
583974
584128
584282
584440
584600
584758
584916
585074
585232
585388
585546
585706
585862
586020
586178
586340
586500
586660
586818
586976
587136
587298
587460
587618
587778
587940
588104
588268
588436
588602
588768
588936
589102
589266
589432
589596
589764
589930
590096
590256
590422
590586
590748
590912
591070
591228
591382
591536
591688
591840
591988
592138
592288
592438
592586
592730
592876
593024
593176
593328
593478
593632
593784
593936
594088
594242
594394
594550
594702
594856
595012
595164
595318
595472
595626
595778
595930
596084
596234
596384
596534
596684
596834
596984
597130
597278
597424
597568
597712
597858
598004
598148
598292
598434
598578
598722
598864
599008
599152
599294
599436
599578
599722
599866
600012
600154
600298
600446
600594
600742
600892
601038
601184
601330
601482
601640
601798
601952
602102
602256
602406
602558
602706
602854
603006
603156
603306
603458
603608
603760
603912
604066
604218
604372
604522
604672
604822
604972
605124
605276
605428
605580
605732
605884
606034
606182
606334
606486
606640
606794
606948
607102
607256
607412
607566
607718
607872
608026
608178
608330
608482
608634
608788
608942
609094
609244
609392
609540
609690
609842
609992
610144
610296
610448
610602
610756
610908
611058
611210
611364
611518
611672
611826
611982
612142
612300
612462
612622
612782
612942
613102
613264
613424
613584
613744
613906
614062
614220
614374
614526
614678
614832
614986
615140
615294
615446
615598
615752
615904
616056
616206
616358
616510
616660
616812
616962
617110
617256
617402
617550
617700
617850
618002
618154
618304
618456
618608
618762
618916
619068
619222
619374
619526
619680
619832
619986
620140
620294
620448
620602
620752
620902
621054
621206
621362
621512
621664
621814
621968
622120
622272
622424
622574
622728
622880
623036
623192
623344
623498
623650
623806
623964
624116
624268
624418
624568
624716
624868
625018
625168
625318
625468
625618
625768
625918
626068
626220
626370
626524
626678
626832
626986
627138
627292
627446
627600
627752
627904
628056
628206
628358
628510
628662
628814
628966
629118
629270
629422
629574
629724
629876
630028
630182
630336
630498
630654
630810
630968
631126
631282
631438
631590
631744
631894
632046
632198
632350
632504
632656
632808
632962
633110
633258
633408
633560
633712
633860
634008
634154
634298
634444
634590
634736
634882
635026
635170
635314
635458
635602
635746
635890
636034
636176
636322
636466
636610
636756
636900
637046
637192
637338
637482
637626
637766
637908
638052
638194
638340
638488
638636
638782
638926
639074
639220
639366
639512
639656
639804
639948
640090
640236
640378
640520
640664
640812
640958
641106
641252
641396
641542
641686
641832
641976
642124
642272
642422
642572
642722
642870
643018
643166
643316
643466
643618
643772
643922
644076
644226
644376
644526
644678
644830
644984
645140
645298
645456
645616
645778
645936
646092
646246
646400
646552
646700
646848
646996
647144
647292
647438
647584
647730
647876
648024
648172
648320
648466
648612
648758
648904
649052
649200
649346
649490
649640
649788
649938
650092
650244
650398
650552
650702
650852
651002
651150
651298
651446
651596
651742
651892
652040
652188
652332
652476
652620
652762
652902
653044
653186
653328
653468
653608
653748
653886
654026
654166
654306
654442
654580
654720
654862
655004
655146
655288
655428
655566
655706
655846
655986
656116
656262
656400
656538
656674
656810
656946
657082
657214
657346
657478
657608
657736
657866
657996
658126
658258
658386
658514
658640
658770
658896
659024
659152
659280
659406
659532
659658
659786
659914
660042
660168
660294
660422
660548
660678
660806
660934
661062
661190
661316
661442
661570
661700
661828
661958
662086
662216
662348
662478
662604
662732
662862
662992
663124
663254
663382
663512
663642
663772
663900
664030
664160
664290
664420
664548
664678
664808
664938
665068
665198
665330
665460
665592
665724
665852
665982
666112
666242
666374
666506
666638
666770
666904
667036
667170
667302
667434
667566
667698
667830
667964
668102
668236
668370
668506
668644
668780
668918
669056
669192
669330
669466
669602
669742
669882
670020
670156
670294
670434
670574
670712
670850
670984
671118
671250
671386
671520
671656
671790
671926
672060
672196
672334
672470
672606
672740
672874
673012
673150
673286
673424
673560
673698
673834
673972
674108
674246
674384
674520
674660
674800
674940
675080
675220
675362
675500
675640
675780
675920
676058
676196
676334
676470
676606
676744
676882
677022
677160
677300
677438
677576
677714
677850
677990
678130
678270
678410
678548
678688
678826
678964
679102
679242
679380
679518
679658
679796
679936
680076
680216
680356
680494
680632
680772
680910
681048
681186
681326
681466
681608
681752
681898
682046
682192
682338
682482
682624
682764
682906
683048
683190
683334
683478
683618
683760
683902
684046
684188
684332
684476
684618
684760
684900
685040
685178
685318
685460
685606
685754
685902
686048
686192
686336
686480
686622
686764
686908
687054
687200
687346
687492
687638
687786
687932
688078
688226
688370
688516
688662
688810
688958
689108
689256
689402
689550
689696
689842
689988
690132
690278
690420
690562
690704
690848
690992
691134
691278
691418
691562
691706
691850
691998
692144
692288
692432
692576
692718
692862
693006
693150
693296
693438
693582
693724
693866
694008
694150
694294
694442
694590
694736
694882
695028
695172
695316
695460
695602
695742
695884
696024
696166
696308
696452
696596
696738
696882
697026
697170
697314
697458
697604
697748
697890
698034
698176
698320
698462
698604
698748
698892
699036
699178
699322
699466
699610
699754
699900
700046
700192
700338
700484
700630
700776
700922
701068
701214
701362
701508
701652
701798
701942
702086
702232
702374
702518
702660
702800
702942
703084
703226
703368
703510
703652
703794
703936
704080
704222
704368
704510
704654
704800
704946
705092
705238
705384
705530
705676
705820
705966
706114
706260
706408
706554
706702
706848
706994
707142
707288
707436
707582
707724
707866
708006
708148
708290
708432
708574
708714
708854
708994
709138
709280
709422
709562
709702
709844
709986
710128
710268
710410
710550
710690
710830
710970
711108
711246
711384
711526
711670
711812
711954
712098
712242
712384
712530
712676
712822
712966
713108
713250
713392
713536
713682
713828
713974
714120
714264
714410
714554
714700
714846
714988
715132
715272
715416
715558
715700
715840
715980
716120
716260
716404
716548
716690
716830
716972
717114
717260
717402
717546
717686
717826
717966
718108
718248
718388
718530
718670
718808
718950
719094
719236
719378
719518
719660
719802
719944
720088
720232
720376
720518
720662
720806
720952
721098
721244
721390
721536
721680
721824
721970
722114
722260
722404
722546
722688
722828
722968
723108
723250
723392
723532
723674
723814
723954
724094
724234
724374
724514
724656
724796
724934
725072
725212
725352
725494
725632
725772
725912
726052
726190
726332
726474
726614
726756
726898
727040
727186
727328
727472
727616
727760
727904
728048
728190
728336
728480
728626
728772
728920
729066
729212
729358
729504
729650
729798
729944
730090
730234
730376
730518
730658
730800
730942
731082
731224
731368
731510
731650
731794
731938
732080
732224
732366
732506
732648
732788
732926
733066
733208
733348
733490
733630
733770
733908
734048
734192
734338
734486
734632
734778
734922
735066
735208
735350
735490
735630
735772
735912
736054
736194
736334
736474
736614
736754
736896
737036
737178
737318
737458
737600
737742
737882
738026
738168
738312
738456
738600
738748
738892
739038
739182
739326
739472
739618
739766
739912
740056
740198
740342
740486
740630
740776
740918
741062
741204
741348
741492
741636
741782
741928
742072
742218
742364
742512
742656
742798
742942
743086
743228
743370
743512
743652
743794
743936
744078
744222
744364
744502
744640
744780
744920
745060
745200
745340
745480
745622
745764
745906
746050
746192
746334
746478
746622
746766
746910
747052
747192
747334
747476
747618
747758
747898
748036
748176
748316
748458
748602
748742
748882
749024
749166
749310
749454
749594
749736
749878
750018
750158
750300
750444
750590
750736
750878
751022
751164
751302
751446
751588
751730
751874
752018
752164
752310
752458
752604
752750
752896
753040
753184
753328
753472
753616
753756
753896
754038
754178
754318
754458
754596
754732
754870
755010
755148
755286
755424
755562
755700
755838
755976
756112
756250
756386
756522
756660
756796
756930
757064
757198
757330
757464
757598
757730
757862
757994
758126
758258
758392
758524
758658
758792
758924
759058
759192
759326
759460
759592
759726
759860
759994
760130
760264
760398
760532
760666
760800
760932
761066
761200
761336
761472
761608
761742
761878
762016
762154
762292
762430
762566
762706
762848
762988
763128
763270
763408
763546
763676
763824
763962
764100
764236
764374
764512
764648
764786
764924
765060
765200
765338
765476
765614
765754
765892
766030
766168
766304
766444
766580
766718
766854
766992
767126
767260
767396
767532
767670
767808
767942
768080
768222
768364
768502
768644
768784
768924
769068
769210
769352
769492
769632
769770
769912
770052
770194
770334
770472
770612
770750
770888
771026
771164
771304
771442
771578
771716
771856
771994
772132
772268
772402
772540
772678
772816
772952
773088
773226
773364
773502
773638
773776
773914
774052
774190
774326
774462
774598
774734
774870
775008
775146
775282
775420
775558
775692
775828
775962
776098
776234
776370
776504
776642
776778
776914
777050
777186
777322
777460
777596
777732
777868
778004
778142
778278
778412
778548
778682
778816
778950
779086
779218
779352
779486
779618
779750
779886
780022
780156
780290
780424
780556
780690
780824
780958
781094
781228
781360
781494
781628
781762
781898
782032
782164
782300
782434
782568
782704
782842
782978
783112
783248
783386
783522
783662
783798
783936
784072
784210
784350
784488
784626
784762
784900
785040
785178
785318
785460
785598
785738
785880
786020
786160
786298
786436
786574
786714
786852
786990
787126
787262
787398
787534
787672
787810
787946
788080
788214
788350
788484
788620
788754
788888
789022
789158
789292
789426
789558
789690
789826
789962
790098
790234
790368
790502
790636
790772
790906
791042
791174
791308
791442
791576
791712
791846
791980
792112
792246
792380
792514
792648
792784
792918
793052
793188
793322
793462
793598
793734
793870
794006
794142
794278
794416
794552
794688
794824
794960
795094
795232
795366
795502
795636
795772
795906
796042
796176
796310
796444
796580
796714
796848
796982
797118
797252
797386
797520
797654
797790
797924
798060
798194
798330
798464
798598
798732
798866
799002
799134
799268
799400
799536
799670
799806
799942
800080
800216
800352
800492
800630
800772
800912
801050
801188
801328
801468
801612
801758
801898
802040
802182
802322
802462
802602
802740
802876
803012
803148
803288
803424
803558
803692
803824
803958
804092
804226
804360
804494
804626
804760
804892
805028
805164
805300
805434
805568
805702
805838
805970
806104
806238
806368
806500
806632
806766
806900
807032
807166
807298
807430
807566
807700
807834
807968
808102
808236
808372
808508
808644
808780
808914
809050
809184
809318
809452
809588
809722
809858
809992
810128
810264
810398
810532
810668
810802
810934
811070
811204
811338
811472
811608
811742
811878
812014
812148
812284
812420
812556
812692
812826
812962
813096
813234
813370
813506
813642
813778
813912
814050
814184
814320
814454
814592
814726
814862
814998
815132
815268
815402
815536
815672
815806
815940
816074
816208
816342
816474
816608
816742
816876
817012
817146
817280
817416
817550
817684
817818
817952
818084
818218
818350
818484
818618
818750
818882
819014
819146
819278
819410
819542
819674
819806
819938
820070
820204
820338
820472
820606
820738
820872
821006
821138
821272
821406
821538
821672
821806
821942
822074
822208
822340
822472
822606
822740
822872
823006
823140
823272
823406
823542
823678
823814
823948
824084
824216
824354
824488
824622
824756
824892
825028
825166
825304
825442
825580
825718
825854
825992
826126
826262
826394
826528
826662
826796
826934
827070
827210
827346
827484
827622
827758
827892
828026
828160
828294
828428
828562
828696
828828
828958
829092
829224
829356
829488
829620
829752
829886
830018
830152
830286
830420
830552
830684
830818
830952
831086
831222
831356
831488
831624
831760
831896
832032
832170
832306
832444
832580
832716
832854
832990
833124
833260
833396
833530
833664
833800
833934
834068
834204
834338
834474
834608
834742
834876
835012
835146
835280
835414
835548
835682
835816
835950
836084
836216
836348
836480
836610
836744
836878
837012
837144
837278
837412
837548
837684
837822
837956
838090
838226
838364
838502
838638
838774
838908
839044
839180
839318
839456
839594
839734
839872
840014
840156
840298
840438
840578
840718
840860
841000
841140
841276
841412
841548
841684
841822
841962
842098
842234
842370
842504
842640
842778
842914
843048
843184
843322
843460
843598
843734
843872
844010
844148
844288
844428
844568
844708
844846
844986
845126
845266
845406
845544
845682
845818
845958
846096
846234
846372
846512
846650
846790
846928
847066
847206
847344
847484
847622
847760
847896
848032
848170
848306
848442
848578
848712
848846
848982
849116
849252
849388
849522
849658
849796
849932
850072
850212
850348
850486
850626
850762
850902
851038
851172
851308
851444
851578
851714
851852
851986
852122
852256
852390
852526
852662
852796
852930
853064
853196
853330
853466
853600
853732
853866
853998
854130
854266
854400
854532
854666
854800
854936
855072
855208
855344
855482
855620
855758
855896
856034
856172
856312
856450
856588
856728
856866
857006
857146
857286
857424
857562
857700
857836
857974
858110
858244
858380
858514
858648
858786
858922
859058
859194
859328
859462
859598
859736
859872
860006
860140
860276
860414
860552
860690
860824
860960
861096
861234
861372
861508
861646
861782
861920
862056
862194
862334
862474
862610
862750
862888
863026
863164
863300
863438
863576
863716
863854
863990
864128
864266
864402
864540
864676
864812
864948
865086
865222
865360
865494
865628
865762
865894
866028
866162
866296
866426
866558
866690
866822
866954
867084
867216
867346
867474
867604
867734
867864
867994
868122
868250
868378
868506
868636
868766
868896
869026
869154
869282
869412
869542
869672
869804
869932
870062
870194
870324
870456
870588
870720
870850
870980
871110
871240
871370
871500
871630
871758
871890
872018
872150
872280
872408
872538
872668
872798
872926
873054
873182
873310
873438
873568
873696
873822
873950
874078
874206
874334
874464
874594
874722
874852
874980
875112
875244
875374
875504
875634
875764
875894
876024
876156
876288
876418
876548
876678
876810
876942
877074
877204
877334
877464
877596
877726
877858
877988
878116
878246
878376
878506
878638
878768
878900
879030
879158
879288
879420
879554
879686
879814
879944
880076
880206
880338
880470
880602
880730
880862
880992
881124
881254
881386
881514
881646
881778
881908
882040
882172
882304
882434
882566
882694
882824
882954
883084
883212
883340
883470
883598
883726
883856
883984
884110
884238
884366
884494
884620
884746
884872
885000
885126
885254
885380
885506
885634
885762
885892
886020
886148
886276
886404
886532
886662
886792
886922
887052
887182
887312
887444
887574
887706
887838
887968
888098
888230
888360
888492
888624
888756
888886
889016
889148
889278
889410
889542
889672
889802
889932
890064
890196
890328
890460
890592
890724
890854
890984
891116
891246
891376
891504
891632
891762
891892
892022
892150
892278
892408
892536
892664
892794
892924
893054
893184
893314
893444
893576
893710
893842
893974
894108
894242
894376
894508
894642
894776
894910
895044
895178
895312
895446
895580
895716
895852
895986
896120
896254
896386
896520
896656
896794
896928
897060
897194
897328
897462
897596
897728
897860
897992
898122
898252
898384
898516
898648
898778
898910
899038
899170
899304
899436
899568
899700
899830
899962
900094
900228
900360
900496
900628
900760
900894
901030
901162
901296
901430
901562
901696
901830
901962
902096
902228
902360
902492
902626
902760
902894
903026
903160
903292
903428
903564
903698
903834
903970
904106
904242
904378
904514
904648
904784
904916
905054
905192
905332
905470
905610
905748
905884
906022
906158
906296
906432
906568
906704
906840
906978
907114
907250
907388
907524
907660
907796
907932
908066
908200
908336
908470
908606
908740
908876
909012
909150
909286
909422
909558
909694
909832
909968
910106
910242
910380
910516
910652
910790
910926
911062
911196
911332
911466
911600
911736
911870
912006
912140
912276
912410
912546
912682
912816
912952
913084
913218
913352
913486
913622
913758
913896
914032
914166
914304
914442
914578
914714
914852
914986
915124
915262
915400
915540
915678
915816
915954
916092
916230
916370
916508
916642
916778
916914
917050
917190
917326
917462
917598
917732
917868
918006
918144
918280
918418
918554
918694
918832
918972
919110
919248
919388
919528
919668
919808
919948
920086
920226
920368
920508
920648
920788
920928
921070
921210
921350
921488
921626
921764
921904
922042
922180
922316
922454
922590
922728
922864
922998
923136
923272
923408
923544
923682
923816
923954
924090
924226
924362
924498
924634
924770
924904
925040
925176
925314
925450
925588
925724
925862
926000
926140
926280
926418
926556
926694
926832
926972
927112
927250
927390
927528
927664
927802
927940
928080
928218
928354
928494
928630
928770
928908
929046
929184
929322
929458
929596
929732
929870
930006
930144
930280
930416
930554
930690
930826
930962
931096
931232
931368
931500
931636
931770
931906
932042
932180
932318
932454
932592
932728
932866
933004
933140
933276
933416
933556
933696
933834
933974
934112
934256
934396
934536
934676
934814
934952
935092
935232
935372
935510
935650
935790
935932
936074
936216
936356
936494
936634
936776
936920
937060
937202
937342
937484
937624
937766
937908
938046
938186
938326
938468
938610
938750
938888
939028
939170
939310
939452
939592
939734
939874
940014
940154
940298
940440
940582
940724
940866
941006
941146
941286
941428
941570
941714
941856
941998
942142
942284
942428
942570
942712
942856
942998
943142
943286
943428
943572
943718
943862
944008
944152
944298
944444
944592
944738
944882
945028
945176
945324
945472
945618
945766
945914
946060
946204
946348
946492
946634
946778
946924
947066
947208
947348
947488
947630
947772
947912
948050
948186
948326
948466
948606
948744
948884
949022
949160
949300
949438
949576
949714
949854
949990
950128
950268
950404
950540
950680
950818
950956
951096
951234
951372
951514
951652
951792
951932
952070
952212
952350
952492
952632
952772
952912
953052
953194
953334
953474
953616
953756
953896
954038
954178
954318
954458
954596
954734
954874
955014
955154
955292
955430
955570
955710
955850
955988
956126
956266
956404
956542
956680
956818
956956
957094
957230
957368
957508
957648
957788
957928
958066
958206
958346
958486
958626
958766
958906
959046
959188
959328
959470
959610
959750
959886
960026
960166
960302
960442
960578
960716
960854
960990
961126
961262
961398
961534
961670
961804
961940
962076
962212
962348
962484
962618
962754
962890
963028
963166
963302
963436
963574
963710
963848
963984
964120
964256
964392
964526
964662
964798
964932
965068
965202
965340
965478
965618
965754
965894
966032
966168
966306
966446
966582
966720
966858
966996
967132
967270
967410
967548
967684
967824
967960
968100
968238
968374
968514
968652
968788
968928
969066
969206
969344
969482
969620
969758
969896
970032
970168
970308
970448
970588
970726
970862
971000
971140
971278
971414
971552
971688
971828
971970
972112
972254
972394
972534
972676
972818
972958
973100
973238
973376
973514
973652
973790
973928
974066
974204
974342
974480
974620
974758
974896
975030
975168
975308
975448
975586
975722
975860
975998
976136
976274
976410
976546
976682
976820
976956
977094
977230
977366
977498
977634
977768
977906
978044
978180
978316
978452
978588
978724
978862
978998
979134
979270
979406
979542
979680
979816
979954
980090
980228
980366
980504
980642
980780
980918
981056
981194
981330
981468
981606
981742
981878
982016
982152
982290
982428
982564
982702
982840
982976
983114
983250
983386
983522
983660
983794
983928
984062
984196
984330
984468
984604
984738
984870
985004
985140
985276
985410
985544
985674
985806
985936
986068
986202
986332
986462
986592
986722
986852
986984
987116
987248
987380
987514
987648
987782
987916
988050
988184
988320
988454
988588
988724
988860
988996
989130
989266
989400
989538
989674
989806
989942
990078
990214
990350
990484
990620
990756
990892
991030
991162
991298
991432
991566
991698
991830
991962
992096
992228
992358
992490
992624
992756
992886
993018
993148
993280
993410
993542
993672
993804
993938
994068
994202
994336
994468
994602
994736
994868
995000
995136
995272
995406
995542
995676
995810
995946
996082
996216
996352
996486
996618
996752
996888
997022
997156
997292
997426
997562
997698
997832
997966
998102
998236
998370
998504
998638
998772
998908
999042
999176
999310
999444
999578
999714
999848
999984
1000118
1000252
1000388
1000524
1000658
1000794
1000930
1001066
1001202
1001336
1001470
1001606
1001740
1001876
1002012
1002144
1002280
1002416
1002552
1002688
1002822
1002956
1003092
1003228
1003364
1003498
1003634
1003770
1003906
1004044
1004182
1004320
1004456
1004594
1004732
1004872
1005010
1005146
1005284
1005422
1005560
1005696
1005834
1005970
1006110
1006246
1006382
1006518
1006656
1006792
1006930
1007068
1007204
1007344
1007486
1007626
1007766
1007906
1008048
1008186
1008326
1008464
1008604
1008744
1008884
1009022
1009162
1009300
1009438
1009576
1009716
1009854
1009990
1010124
1010258
1010394
1010530
1010666
1010798
1010932
1011066
1011200
1011332
1011464
1011598
1011732
1011866
1012000
1012134
1012272
1012408
1012544
1012680
1012816
1012952
1013090
1013226
1013360
1013494
1013632
1013766
1013904
1014040
1014178
1014314
1014450
1014586
1014720
1014858
1014992
1015126
1015260
1015394
1015528
1015662
1015798
1015932
1016066
1016200
1016334
1016466
1016602
1016734
1016864
1016998
1017128
1017260
1017392
1017522
1017654
1017784
1017912
1018040
1018168
1018298
1018426
1018556
1018684
1018812
1018940
1019068
1019196
1019324
1019454
1019582
1019714
1019842
1019970
1020098
1020228
1020360
1020490
1020622
1020752
1020886
1021016
1021148
1021280
1021412
1021544
1021678
1021808
1021942
1022078
1022214
1022350
1022486
1022620
1022752
1022886
1023020
1023154
1023288
1023418
1023550
1023680
1023814
1023946
1024078
1024210
1024342
1024472
1024606
1024740
1024870
1025002
1025134
1025266
1025398
1025532
1025664
1025798
1025930
1026060
1026192
1026324
1026456
1026588
1026718
1026850
1026982
1027116
1027250
1027382
1027516
1027650
1027782
1027914
1028044
1028176
1028306
1028438
1028568
1028700
1028832
1028964
1029096
1029230
1029364
1029498
1029632
1029764
1029898
1030030
1030162
1030298
1030432
1030564
1030696
1030828
1030958
1031090
1031222
1031354
1031486
1031616
1031746
1031876
1032010
1032144
1032274
1032406
1032538
1032670
1032804
1032936
1033068
1033200
1033334
1033466
1033596
1033730
1033864
1033998
1034132
1034264
1034398
1034534
1034668
1034802
1034934
1035066
1035200
1035336
1035472
1035606
1035742
1035874
1036008
1036142
1036278
1036414
1036550
1036686
1036818
1036954
1037088
1037224
1037360
1037494
1037628
1037762
1037898
1038030
1038164
1038298
1038430
1038562
1038696
1038832
1038966
1039100
1039234
1039372
1039508
1039642
1039776
1039910
1040044
1040180
1040314
1040448
1040582
1040716
1040850
1040984
1041118
1041252
1041388
1041520
1041654
1041790
1041926
1042060
1042194
1042326
1042460
1042594
1042728
1042862
1042994
1043128
1043262
1043394
1043526
1043660
1043792
1043928
1044062
1044196
1044334
1044468
1044604
1044740
1044874
1045008
1045144
1045280
1045414
1045550
1045684
1045818
1045950
1046086
1046220
1046352
1046484
1046616
1046748
1046880
1047010
1047142
1047272
1047404
1047536
1047664
1047796
1047926
1048056
1048186
1048316
1048444
1048574
1048702
1048830
1048960
1049090
1049220
1049348
1049476
1049604
1049732
1049862
1049990
1050118
1050244
1050374
1050502
1050632
1050762
1050890
1051022
1051152
1051282
1051414
1051546
1051680
1051814
1051946
1052078
1052212
1052344
1052478
1052614
1052748
1052882
1053016
1053148
1053282
1053418
1053552
1053684
1053818
1053952
1054086
1054222
1054356
1054490
1054622
1054754
1054884
1055014
1055146
1055274
1055406
1055536
1055666
1055796
1055926
1056056
1056186
1056320
1056450
1056582
1056716
1056848
1056980
1057114
1057248
1057380
1057514
1057648
1057784
1057920
1058056
1058190
1058326
1058460
1058594
1058730
1058866
1059002
1059138
1059274
1059412
1059548
1059684
1059824
1059960
1060096
1060230
1060364
1060498
1060632
1060768
1060902
1061036
1061168
1061302
1061436
1061572
1061704
1061836
1061966
1062098
1062230
1062364
1062496
1062628
1062762
1062894
1063024
1063156
1063286
1063418
1063548
1063678
1063808
1063940
1064074
1064206
1064338
1064470
1064602
1064736
1064868
1065002
1065134
1065266
1065400
1065532
1065664
1065796
1065928
1066062
1066196
1066330
1066464
1066596
1066730
1066862
1066998
1067132
1067266
1067400
1067534
1067668
1067800
1067932
1068066
1068198
1068330
1068460
1068592
1068724
1068858
1068992
1069122
1069254
1069386
1069518
1069652
1069784
1069916
1070050
1070182
1070314
1070448
1070582
1070714
1070846
1070978
1071110
1071240
1071374
1071506
1071636
1071766
1071896
1072024
1072154
1072284
1072414
1072544
1072672
1072800
1072928
1073058
1073186
1073314
1073444
1073572
1073702
1073834
1073964
1074096
1074228
1074360
1074492
1074626
1074758
1074890
1075024
1075158
1075288
1075420
1075556
1075690
1075822
1075954
1076088
1076222
1076356
1076490
1076622
1076756
1076890
1077022
1077156
1077290
1077424
1077556
1077690
1077824
1077956
1078090
1078222
1078354
1078488
1078622
1078758
1078894
1079026
1079162
1079296
1079428
1079564
1079696
1079830
1079962
1080094
1080224
1080354
1080486
1080616
1080746
1080876
1081004
1081134
1081264
1081394
1081524
1081654
1081784
1081912
1082044
1082176
1082310
1082442
1082574
1082706
1082838
1082974
1083108
1083242
1083376
1083510
1083644
1083780
1083912
1084048
1084182
1084318
1084450
1084584
1084720
1084854
1084988
1085124
1085256
1085388
1085522
1085656
1085788
1085924
1086056
1086190
1086320
1086452
1086586
1086718
1086850
1086980
1087114
1087246
1087378
1087512
1087646
1087780
1087914
1088048
1088182
1088316
1088454
1088590
1088724
1088860
1088996
1089132
1089270
1089408
1089546
1089684
1089822
1089960
1090098
1090236
1090374
1090512
1090650
1090786
1090922
1091062
1091202
1091342
1091480
1091618
1091754
1091892
1092030
1092168
1092304
1092440
1092574
1092708
1092846
1092982
1093114
1093248
1093382
1093518
1093650
1093782
1093916
1094050
1094186
1094320
1094454
1094588
1094722
1094858
1094992
1095126
1095258
1095394
1095526
1095660
1095796
1095932
1096068
1096204
1096338
1096474
1096612
1096750
1096886
1097022
1097158
1097294
1097430
1097568
1097704
1097840
1097974
1098110
1098248
1098386
1098520
1098654
1098788
1098922
1099056
1099190
1099324
1099458
1099592
1099726
1099860
1099994
1100128
1100262
1100394
1100528
1100664
1100798
1100934
1101068
1101202
1101338
1101474
1101610
1101744
1101882
1102018
1102154
1102292
1102426
1102564
1102702
1102838
1102974
1103112
1103248
1103384
1103520
1103654
1103790
1103924
1104058
1104194
1104332
1104468
1104604
1104740
1104874
1105008
1105140
1105274
1105406
1105540
1105674
1105808
1105942
1106076
1106210
1106342
1106476
1106608
1106740
1106874
1107006
1107138
1107272
1107402
1107534
1107666
1107798
1107928
1108060
1108192
1108326
1108458
1108588
1108720
1108852
1108984
1109114
1109246
1109378
1109508
1109638
1109770
1109902
1110034
1110166
1110296
1110428
1110560
1110694
1110828
1110962
1111096
1111228
1111360
1111492
1111626
1111762
1111896
1112028
1112160
1112294
1112430
1112564
1112698
1112832
1112966
1113102
1113240
1113374
1113508
1113644
1113780
1113916
1114052
1114190
1114326
1114460
1114598
1114734
1114868
1115004
1115138
1115270
1115406
1115542
1115678
1115814
1115948
1116082
1116218
1116356
1116492
1116628
1116764
1116900
1117034
1117170
1117304
1117438
1117574
1117706
1117840
1117974
1118110
1118246
1118382
1118516
1118648
1118782
1118916
1119052
1119188
1119322
1119458
1119590
1119726
1119860
1119994
1120128
1120262
1120392
1120528
1120662
1120796
1120930
1121064
1121196
1121330
1121464
1121598
1121730
1121864
1121996
1122128
1122260
1122394
1122528
1122662
1122796
1122932
1123066
1123202
1123336
1123472
1123606
1123738
1123870
1124004
1124140
1124272
1124406
1124540
1124670
1124804
1124936
1125070
1125202
1125336
1125472
1125608
1125744
1125880
1126016
1126152
1126290
1126426
1126562
1126696
1126832
1126966
1127100
1127234
1127370
1127504
1127638
1127772
1127908
1128042
1128176
1128310
1128444
1128576
1128708
1128842
1128978
1129112
1129244
1129378
1129510
1129644
1129778
1129912
1130044
1130176
1130308
1130442
1130576
1130710
1130842
1130976
1131108
1131242
1131376
1131510
1131644
1131776
1131908
1132040
1132174
1132308
1132442
1132576
1132708
1132842
1132976
1133108
1133242
1133376
1133508
1133640
1133772
1133906
1134038
1134170
1134300
1134432
1134562
1134694
1134824
1134952
1135084
1135216
1135348
1135478
1135606
1135736
1135866
1135996
1136128
1136256
1136388
1136518
1136648
1136778
1136910
1137042
1137172
1137302
1137434
1137564
1137694
1137828
1137960
1138090
1138222
1138356
1138488
1138622
1138756
1138890
1139026
1139158
1139294
1139428
1139562
1139696
1139828
1139962
1140096
1140230
1140364
1140496
1140630
1140764
1140898
1141032
1141166
1141302
1141438
1141570
1141704
1141836
1141966
1142096
1142228
1142360
1142492
1142626
1142756
1142888
1143020
1143150
1143282
1143414
1143544
1143674
1143804
1143936
1144068
1144202
1144334
1144468
1144600
1144730
1144864
1144998
1145132
1145266
1145398
1145532
1145664
1145800
1145934
1146070
1146204
1146338
1146474
1146610
1146744
1146878
1147012
1147148
1147282
1147418
1147554
1147692
1147828
1147964
1148102
1148236
1148372
1148508
1148644
1148778
1148912
1149048
1149182
1149318
1149452
1149586
1149718
1149852
1149984
1150118
1150248
1150378
1150510
1150640
1150772
1150904
1151038
1151172
1151304
1151438
1151572
1151704
1151838
1151974
1152106
1152244
1152380
1152516
1152654
1152792
1152928
1153066
1153204
1153342
1153478
1153614
1153748
1153884
1154022
1154156
1154292
1154426
1154560
1154692
1154826
1154960
1155094
1155226
1155358
1155492
1155624
1155758
1155892
1156026
1156162
1156296
1156428
1156562
1156696
1156828
1156962
1157094
1157226
1157360
1157496
1157632
1157766
1157902
1158038
1158170
1158306
1158442
1158576
1158710
1158844
1158978
1159114
1159248
1159384
1159522
1159658
1159794
1159930
1160066
1160204
1160340
1160476
1160612
1160750
1160886
1161024
1161162
1161300
1161434
1161570
1161704
1161840
1161974
1162108
1162242
1162376
1162512
1162648
1162784
1162922
1163058
1163194
1163330
1163470
1163608
1163744
1163880
1164018
1164154
1164292
1164428
1164564
1164702
1164840
1164978
1165114
1165250
1165386
1165520
1165658
1165792
1165926
1166060
1166194
1166328
1166464
1166598
1166734
1166866
1167000
1167134
1167268
1167404
1167538
1167672
1167806
1167940
1168074
1168210
1168344
1168480
1168616
1168750
1168884
1169018
1169154
1169288
1169422
1169556
1169688
1169824
1169958
1170092
1170226
1170360
1170494
1170628
1170764
1170900
1171036
1171170
1171304
1171438
1171576
1171712
1171846
1171982
1172118
1172254
1172390
1172526
1172662
1172800
1172934
1173070
1173204
1173340
1173474
1173606
1173738
1173868
1174000
1174132
1174262
1174392
1174524
1174656
1174788
1174916
1175048
1175178
1175308
1175438
1175568
1175702
1175834
1175966
1176098
1176232
1176364
1176498
1176630
1176762
1176896
1177032
1177168
1177304
1177440
1177578
1177714
1177850
1177986
1178124
1178262
1178400
1178538
1178672
1178808
1178946
1179084
1179220
1179358
1179494
1179632
1179770
1179908
1180044
1180180
1180316
1180450
1180584
1180722
1180858
1180992
1181128
1181264
1181398
1181532
1181668
1181802
1181936
1182052
1182198
1182334
1182468
1182604
1182738
1182872
1183008
1183144
1183280
1183416
1183552
1183688
1183822
1183958
1184094
1184230
1184366
1184504
1184640
1184778
1184914
1185054
1185192
1185332
1185468
1185608
1185748
1185884
1186022
1186162
1186298
1186434
1186568
1186704
1186840
1186976
1187110
1187246
1187380
1187516
1187648
1187784
1187920
1188052
1188186
1188320
1188454
1188586
1188720
1188852
1188984
1189118
1189252
1189386
1189520
1189656
1189788
1189922
1190054
1190188
1190322
1190456
1190588
1190722
1190856
1190986
1191120
1191252
1191384
1191514
1191648
1191780
1191914
1192046
1192178
1192310
1192442
1192576
1192708
1192840
1192974
1193112
1193248
1193386
1193522
1193662
1193798
1193936
1194076
1194216
1194358
1194500
1194640
1194782
1194924
1195064
1195208
1195348
1195490
1195632
1195774
1195918
1196062
1196206
1196350
1196494
1196638
1196782
1196928
1197070
1197214
1197356
1197496
1197636
1197780
1197920
1198062
1198200
1198338
1198478
1198616
1198752
1198886
1199022
1199158
1199296
1199432
1199568
1199706
1199842
1199978
1200116
1200256
1200396
1200534
1200674
1200814
1200956
1201096
1201236
1201376
1201520
1201662
1201804
1201946
1202090
1202234
1202376
1202522
1202666
1202812
1202956
1203100
1203244
1203388
1203532
1203676
1203818
1203960
1204104
1204248
1204390
1204532
1204672
1204810
1204952
1205094
1205236
1205378
1205520
1205658
1205798
1205940
1206080
1206218
1206356
1206494
1206636
1206776
1206914
1207054
1207194
1207334
1207474
1207618
1207760
1207902
1208044
1208184
1208324
1208464
1208602
1208742
1208882
1209020
1209162
1209302
1209442
1209586
1209728
1209868
1210010
1210152
1210296
1210438
1210580
1210724
1210870
1211014
1211156
1211300
1211444
1211584
1211726
1211868
1212010
1212150
1212290
1212428
1212570
1212712
1212852
1212992
1213132
1213272
1213412
1213550
1213690
1213826
1213966
1214104
1214242
1214382
1214520
1214658
1214800
1214940
1215078
1215218
1215356
1215494
1215632
1215770
1215910
1216048
1216188
1216326
1216468
1216610
1216752
1216894
1217038
1217178
1217320
1217464
1217606
1217750
1217892
1218036
1218182
1218326
1218468
1218610
1218754
1218894
1219036
1219178
1219322
1219464
1219604
1219746
1219886
1220030
1220172
1220314
1220456
1220598
1220742
1220882
1221024
1221166
1221310
1221452
1221592
1221734
1221874
1222016
1222154
1222292
1222432
1222574
1222716
1222856
1222996
1223140
1223280
1223420
1223560
1223702
1223844
1223984
1224124
1224266
1224406
1224546
1224688
1224828
1224972
1225112
1225252
1225396
1225536
1225678
1225818
1225962
1226104
1226246
1226390
1226530
1226674
1226814
1226954
1227096
1227238
1227380
1227522
1227668
1227812
1227952
1228094
1228236
1228376
1228518
1228658
1228800
1228942
1229084
1229224
1229368
1229510
1229654
1229796
1229936
1230078
1230222
1230362
1230502
1230642
1230784
1230924
1231066
1231210
1231352
1231494
1231636
1231778
1231920
1232062
1232202
1232342
1232486
1232628
1232770
1232912
1233054
1233196
1233338
1233482
1233624
1233768
1233910
1234052
1234196
1234340
1234486
1234630
1234776
1234922
1235068
1235210
1235352
1235498
1235642
1235784
1235928
1236074
1236220
1236364
1236510
1236656
1236798
1236940
1237084
1237228
1237370
1237516
1237660
1237802
1237948
1238092
1238236
1238382
1238526
1238672
1238820
1238964
1239110
1239256
1239404
1239550
1239696
1239844
1239990
1240136
1240282
1240426
1240572
1240716
1240864
1241012
1241160
1241304
1241450
1241596
1241742
1241888
1242036
1242182
1242328
1242472
1242618
1242764
1242910
1243056
1243198
1243340
1243482
1243626
1243766
1243908
1244048
1244190
1244330
1244472
1244614
1244756
1244898
1245040
1245182
1245326
1245470
1245612
1245756
1245902
1246052
1246196
1246342
1246490
1246636
1246784
1246934
1247084
1247232
1247376
1247520
1247666
1247812
1247956
1248102
1248248
1248394
1248540
1248682
1248826
1248970
1249114
1249258
1249400
1249542
1249686
1249830
1249972
1250114
1250256
1250396
1250536
1250676
1250818
1250962
1251104
1251244
1251384
1251524
1251664
1251806
1251948
1252092
1252232
1252374
1252518
1252664
1252808
1252954
1253100
1253246
1253394
1253540
1253686
1253834
1253978
1254126
1254276
1254424
1254574
1254724
1254872
1255018
1255166
1255314
1255462
1255604
1255750
1255898
1256044
1256190
1256336
1256480
1256628
1256774
1256922
1257068
1257218
1257364
1257510
1257656
1257802
1257950
1258096
1258242
1258390
1258536
1258684
1258828
1258970
1259114
1259258
1259402
1259544
1259686
1259828
1259968
1260110
1260250
1260390
1260530
1260672
1260816
1260958
1261098
1261240
1261382
1261522
1261664
1261806
1261948
1262090
1262232
1262374
1262516
1262658
1262800
1262944
1263086
1263232
1263376
1263518
1263664
1263808
1263954
1264098
1264246
1264394
1264544
1264690
1264836
1264984
1265132
1265278
1265424
1265572
1265722
1265868
1266014
1266162
1266308
1266454
1266598
1266744
1266890
1267038
1267182
1267324
1267466
1267608
1267750
1267892
1268036
1268178
1268320
1268462
1268604
1268748
1268890
1269030
1269170
1269310
1269452
1269592
1269732
1269870
1270010
1270150
1270290
1270430
1270574
1270714
1270854
1270998
1271142
1271288
1271434
1271578
1271722
1271868
1272014
1272156
1272300
1272444
1272586
1272730
1272872
1273014
1273160
1273302
1273444
1273588
1273730
1273876
1274020
1274162
1274308
1274454
1274598
1274744
1274888
1275032
1275178
1275324
1275468
1275612
1275756
1275900
1276046
1276188
1276330
1276476
1276618
1276762
1276908
1277052
1277196
1277340
1277482
1277628
1277774
1277918
1278064
1278208
1278354
1278498
1278642
1278788
1278932
1279074
1279216
1279360
1279504
1279646
1279788
1279932
1280072
1280212
1280352
1280492
1280630
1280770
1280908
1281046
1281184
1281324
1281464
1281606
1281746
1281890
1282032
1282178
1282322
1282462
1282606
1282750
1282894
1283038
1283180
1283326
1283470
1283614
1283760
1283906
1284050
1284194
1284340
1284486
1284630
1284774
1284920
1285064
1285210
1285356
1285502
1285646
1285790
1285936
1286082
1286228
1286374
1286522
1286670
1286814
1286960
1287108
1287252
1287394
1287540
1287686
1287832
1287976
1288120
1288264
1288408
1288552
1288694
1288838
1288982
1289126
1289268
1289412
1289554
1289698
1289838
1289978
1290122
1290266
1290410
1290550
1290690
1290830
1290972
1291112
1291252
1291392
1291534
1291676
1291818
1291960
1292102
1292244
1292382
1292520
1292660
1292802
1292940
1293080
1293222
1293362
1293500
1293640
1293776
1293916
1294054
1294192
1294328
1294468
1294606
1294742
1294880
1295018
1295158
1295300
1295438
1295578
1295720
1295860
1296002
1296144
1296286
1296430
1296574
1296718
1296860
1297002
1297142
1297280
1297422
1297564
1297706
1297846
1297984
1298126
1298268
1298412
1298554
1298694
1298838
1298980
1299120
1299264
1299406
1299546
1299686
1299826
1299964
1300104
1300244
1300382
1300520
1300658
1300796
1300938
1301078
1301218
1301358
1301500
1301640
1301780
1301922
1302062
1302202
1302342
1302482
1302626
1302768
1302910
1303054
1303198
1303338
1303482
1303626
1303768
1303912
1304056
1304198
1304342
1304484
1304626
1304770
1304912
1305056
1305198
1305338
1305478
1305616
1305752
1305890
1306026
1306162
1306298
1306434
1306568
1306702
1306838
1306970
1307102
1307234
1307368
1307502
1307634
1307766
1307902
1308036
1308168
1308302
1308436
1308570
1308704
1308838
1308972
1309106
1309242
1309378
1309510
1309646
1309780
1309916
1310052
1310186
1310320
1310454
1310588
1310720
1310854
1310988
1311122
1311256
1311388
1311518
1311652
1311784
1311912
1312042
1312170
1312298
1312428
1312554
1312680
1312806
1312934
1313060
1313184
1313308
1313432
1313558
1313682
1313806
1313930
1314052
1314174
1314296
1314418
1314540
1314662
1314782
1314904
1315026
1315146
1315268
1315388
1315510
1315630
1315750
1315870
1315990
1316110
1316228
1316348
1316468
1316586
1316704
1316822
1316938
1317058
1317176
1317298
1317416
1317534
1317654
1317774
1317894
1318010
1318136
1318256
1318376
1318496
1318616
1318736
1318856
1318976
1319096
1319214
1319334
1319452
1319572
1319692
1319814
1319934
1320054
1320174
1320296
1320416
1320534
1320656
1320774
1320894
1321016
1321138
1321258
1321378
1321500
1321620
1321740
1321860
1321980
1322100
1322222
1322342
1322460
1322580
1322700
1322822
1322942
1323060
1323180
1323300
1323422
1323542
1323662
1323782
1323900
1324020
1324138
1324256
1324374
1324492
1324610
1324728
1324846
1324964
1325080
1325198
1325314
1325432
1325548
1325664
1325782
1325898
1326016
1326134
1326252
1326370
1326488
1326606
1326724
1326842
1326960
1327078
1327198
1327316
1327434
1327552
1327672
1327792
1327912
1328030
1328150
1328270
1328390
1328508
1328628
1328748
1328868
1328986
1329102
1329220
1329338
1329454
1329574
1329694
1329814
1329932
1330050
1330166
1330284
1330402
1330522
1330640
1330756
1330874
1330992
1331108
1331226
1331342
1331460
1331576
1331692
1331810
1331924
1332042
1332158
1332274
1332392
1332508
1332624
1332742
1332860
1332978
1333094
1333212
1333332
1333452
1333570
1333688
1333808
1333926
1334044
1334164
1334282
1334402
1334524
1334644
1334764
1334884
1335004
1335124
1335244
1335366
1335484
1335604
1335724
1335844
1335964
1336084
1336204
1336324
1336444
1336562
1336682
1336800
1336920
1337040
1337158
1337276
1337394
1337512
1337630
1337748
1337866
1337984
1338100
1338210
1338336
1338452
1338570
1338686
1338804
1338918
1339034
1339152
1339266
1339384
1339502
1339620
1339738
1339856
1339974
1340090
1340208
1340326
1340444
1340562
1340680
1340798
1340916
1341034
1341152
1341270
1341388
1341506
1341626
1341742
1341860
1341978
1342096
1342214
1342332
1342452
1342570
1342688
1342804
1342924
1343044
1343164
1343282
1343400
1343518
1343636
1343754
1343872
1343988
1344106
1344222
1344338
1344456
1344574
1344690
1344808
1344924
1345040
1345158
1345274
1345390
1345508
1345626
1345742
1345858
1345974
1346090
1346206
1346322
1346438
1346554
1346668
1346786
1346902
1347018
1347134
1347250
1347364
1347478
1347594
1347710
1347826
1347942
1348058
1348174
1348290
1348406
1348522
1348640
1348756
1348870
1348986
1349102
1349218
1349336
1349452
1349568
1349684
1349802
1349918
1350034
1350150
1350268
1350384
1350502
1350620
1350736
1350852
1350968
1351084
1351202
1351318
1351434
1351552
1351668
1351786
1351902
1352018
1352136
1352254
1352372
1352490
1352606
1352724
1352844
1352962
1353082
1353202
1353320
1353440
1353558
1353676
1353794
1353914
1354032
1354150
1354268
1354386
1354506
1354624
1354744
1354862
1354980
1355098
1355216
1355336
1355454
1355572
1355690
1355808
1355926
1356042
1356158
1356274
1356392
1356510
1356626
1356744
1356862
1356978
1357096
1357214
1357332
1357450
1357568
1357686
1357806
1357926
1358044
1358164
1358284
1358406
1358524
1358644
1358764
1358884
1359004
1359124
1359246
1359366
1359484
1359606
1359726
1359846
1359966
1360086
1360206
1360326
1360446
1360566
1360684
1360802
1360920
1361040
1361158
1361276
1361396
1361514
1361634
1361752
1361870
1361988
1362106
1362224
1362340
1362456
1362572
1362690
1362806
1362922
1363040
1363156
1363272
1363388
1363504
1363620
1363734
1363852
1363968
1364084
1364200
1364316
1364434
1364550
1364668
1364786
1364904
1365020
1365140
1365258
1365378
1365496
1365614
1365734
1365852
1365970
1366090
1366208
1366326
1366446
1366566
1366684
1366802
1366922
1367042
1367160
1367280
1367398
1367518
1367636
1367754
1367874
1367994
1368112
1368232
1368350
1368468
1368584
1368702
1368820
1368938
1369056
1369172
1369288
1369404
1369520
1369638
1369754
1369870
1369988
1370104
1370222
1370340
1370456
1370574
1370692
1370810
1370924
1371040
1371158
1371276
1371394
1371512
1371630
1371746
1371864
1371984
1372102
1372220
1372338
1372458
1372574
1372694
1372814
1372934
1373054
1373172
1373292
1373410
1373530
1373650
1373770
1373890
1374010
1374130
1374248
1374368
1374488
1374606
1374726
1374846
1374966
1375084
1375204
1375324
1375442
1375562
1375680
1375798
1375916
1376034
1376150
1376268
1376388
1376506
1376622
1376742
1376860
1376978
1377096
1377214
1377332
1377450
1377568
1377686
1377804
1377924
1378042
1378162
1378280
1378396
1378514
1378632
1378752
1378870
1378988
1379106
1379224
1379344
1379460
1379578
1379696
1379816
1379936
1380054
1380174
1380292
1380410
1380530
1380650
1380768
1380884
1381002
1381120
1381238
1381356
1381474
1381592
1381710
1381828
1381946
1382062
1382180
1382298
1382416
1382534
1382650
1382768
1382886
1383004
1383124
1383242
1383360
1383478
1383598
1383716
1383836
1383954
1384072
1384190
1384308
1384426
1384544
1384662
1384780
1384900
1385018
1385136
1385254
1385374
1385492
1385608
1385724
1385842
1385958
1386074
1386192
1386310
1386426
1386542
1386660
1386776
1386892
1387010
1387126
1387244
1387360
1387478
1387594
1387708
1387826
1387942
1388058
1388174
1388290
1388406
1388524
1388640
1388756
1388874
1388990
1389108
1389224
1389342
1389458
1389576
1389694
1389812
1389930
1390050
1390168
1390286
1390404
1390522
1390640
1390758
1390876
1390992
1391110
1391228
1391346
1391464
1391582
1391700
1391818
1391934
1392052
1392170
1392288
1392406
1392524
1392640
1392758
1392876
1392992
1393110
1393226
1393342
1393460
1393576
1393692
1393808
1393924
1394040
1394156
1394270
1394384
1394498
1394614
1394730
1394846
1394962
1395078
1395194
1395310
1395426
1395542
1395658
1395774
1395890
1396008
1396126
1396242
1396360
1396480
1396598
1396718
1396838
1396958
1397078
1397198
1397320
1397440
1397560
1397680
1397802
1397922
1398042
1398164
1398284
1398404
1398526
1398646
1398768
1398888
1399010
1399128
1399246
1399368
1399490
1399610
1399732
1399852
1399972
1400092
1400212
1400332
1400452
1400570
1400690
1400808
1400926
1401046
1401164
1401282
1401402
1401522
1401642
1401760
1401878
1401998
1402118
1402238
1402358
1402478
1402598
1402716
1402836
1402956
1403076
1403196
1403316
1403438
1403558
1403678
1403800
1403922
1404042
1404162
1404282
1404402
1404524
1404644
1404766
1404888
1405012
1405134
1405256
1405376
1405500
1405622
1405742
1405866
1405986
1406106
1406228
1406348
1406470
1406590
1406712
1406832
1406950
1407072
1407192
1407314
1407434
1407554
1407674
1407794
1407912
1408032
1408154
1408274
1408396
1408516
1408636
1408756
1408878
1408998
1409118
1409238
1409358
1409480
1409600
1409722
1409844
1409966
1410088
1410208
1410328
1410448
1410570
1410690
1410812
1410932
1411052
1411172
1411294
1411416
1411538
1411660
1411782
1411904
1412026
1412148
1412270
1412392
1412514
1412634
1412756
1412876
1412996
1413118
1413240
1413360
1413480
1413602
1413722
1413844
1413964
1414086
1414206
1414328
1414450
1414572
1414694
1414818
1414940
1415062
1415184
1415306
1415428
1415550
1415672
1415794
1415916
1416038
1416160
1416282
1416404
1416526
1416648
1416772
1416894
1417016
1417138
1417260
1417380
1417502
1417622
1417742
1417862
1417982
1418102
1418224
1418344
1418466
1418584
1418706
1418826
1418944
1419064
1419186
1419306
1419424
1419546
1419666
1419788
1419910
1420030
1420150
1420270
1420392
1420512
1420634
1420756
1420878
1421000
1421120
1421242
1421366
1421488
1421610
1421734
1421858
1421980
1422104
1422228
1422352
1422474
1422598
1422720
1422842
1422966
1423090
1423212
1423336
1423458
1423582
1423704
1423828
1423950
1424072
1424196
1424318
1424440
1424562
1424686
1424808
1424932
1425052
1425174
1425294
1425416
1425536
1425658
1425778
1425898
1426018
1426138
1426258
1426378
1426498
1426620
1426742
1426866
1426988
1427110
1427234
1427356
1427480
1427602
1427724
1427848
1427972
1428096
1428220
1428344
1428470
1428594
1428718
1428844
1428968
1429094
1429220
1429344
1429468
1429594
1429720
1429844
1429970
1430094
1430220
1430346
1430470
1430596
1430720
1430846
1430970
1431094
1431220
1431344
1431466
1431592
1431716
1431842
1431966
1432090
1432214
1432338
1432460
1432584
1432706
1432830
1432954
1433076
1433198
1433322
1433446
1433570
1433692
1433816
1433940
1434064
1434188
1434310
1434432
1434556
1434682
1434804
1434928
1435052
1435176
1435298
1435424
1435548
1435672
1435796
1435920
1436044
1436168
1436294
1436418
1436544
1436670
1436796
1436922
1437048
1437174
1437300
1437426
1437550
1437674
1437798
1437924
1438048
1438172
1438298
1438422
1438546
1438670
1438794
1438920
1439044
1439168
1439294
1439416
1439540
1439664
1439790
1439912
1440036
1440160
1440286
1440410
1440534
1440658
1440782
1440906
1441030
1441154
1441276
1441402
1441502
1441652
1441778
1441902
1442026
1442150
1442274
1442398
1442522
1442646
1442772
1442894
1443018
1443144
1443270
1443394
1443518
1443642
1443768
1443892
1444018
1444142
1444266
1444392
1444516
1444640
1444764
1444890
1445016
1445140
1445266
1445392
1445516
1445642
1445768
1445892
1446018
1446142
1446268
1446396
1446522
1446648
1446774
1446902
1447028
1447154
1447278
1447406
1447532
1447658
1447782
1447908
1448032
1448158
1448284
1448408
1448532
1448656
1448784
1448910
1449036
1449160
1449286
1449410
1449534
1449658
1449782
1449906
1450030
1450154
1450276
1450400
1450522
1450646
1450770
1450894
1451016
1451140
1451264
1451390
1451514
1451640
1451766
1451890
1452014
1452138
1452264
1452390
1452516
1452642
1452768
1452892
1453018
1453144
1453270
1453396
1453522
1453648
1453774
1453902
1454028
1454156
1454282
1454408
1454532
1454658
1454784
1454910
1455036
1455162
1455288
1455414
1455540
1455666
1455790
1455916
1456042
1456168
1456292
1456418
1456544
1456668
1456792
1456918
1457040
1457164
1457288
1457412
1457538
1457662
1457784
1457910
1458034
1458158
1458284
1458408
1458534
1458660
1458786
1458912
1459040
1459166
1459292
1459404
1459542
1459668
1459794
1459920
1460048
1460174
1460302
1460430
1460556
1460684
1460812
1460938
1461066
1461194
1461322
1461450
1461564
1461706
1461836
1461964
1462092
1462220
1462348
1462476
1462604
1462730
1462856
1462982
1463110
1463236
1463362
1463490
1463618
1463744
1463870
1463998
1464124
1464250
1464374
1464500
1464624
1464750
1464876
1465002
1465128
1465254
1465382
1465506
1465634
1465762
1465888
1466016
1466142
1466270
1466398
1466528
1466656
1466784
1466912
1467042
1467170
1467298
1467426
1467554
1467682
1467810
1467938
1468066
1468194
1468322
1468450
1468580
1468708
1468836
1468964
1469092
1469218
1469344
1469470
1469594
1469720
1469846
1469972
1470098
1470222
1470348
1470474
1470600
1470728
1470854
1470984
1471110
1471236
1471356
1471492
1471620
1471746
1471872
1472000
1472126
1472254
1472380
1472508
1472634
1472760
1472886
1473012
1473140
1473268
1473394
1473520
1473648
1473774
1473900
1474028
1474154
1474280
1474406
1474532
1474658
1474784
1474910
1475036
1475162
1475290
1475416
1475542
1475670
1475796
1475922
1476050
1476176
1476302
1476430
1476558
1476686
1476812
1476940
1477068
1477194
1477322
1477450
1477576
1477704
1477830
1477958
1478084
1478210
1478340
1478466
1478594
1478722
1478850
1478976
1479104
1479230
1479358
1479484
1479610
1479738
1479864
1479990
1480118
1480244
1480370
1480498
1480626
1480754
1480884
1481010
1481138
1481264
1481392
1481518
1481644
1481772
1481898
1482024
1482152
1482278
1482404
1482532
1482660
1482786
1482912
1483040
1483166
1483296
1483424
1483552
1483680
1483808
1483936
1484064
1484192
1484320
1484448
1484574
1484702
1484830
1484958
1485086
1485216
1485342
1485472
1485600
1485730
1485858
1485986
1486114
1486240
1486368
1486498
1486626
1486754
1486882
1487010
1487136
1487264
1487392
1487520
1487646
1487774
1487900
1488026
1488152
1488280
1488406
1488534
1488660
1488786
1488896
1489000
1489074
1489168
1489256
1489344
1489446
1489526
1489674
1489786
1489872
1489952
1490042
1490144
1490244
1490350
1490464
1490564
1490654
1490752
1490882
1490980
1491094
1491198
1491296
1491412
1491584
1491674
1491760
1491840
1491978
1492092
1492188
1492322
1492420
1492546
1492648
1492764
1492870
1492972
1493070
1493158
1493240
1493322
1493414
1493522
1493622
1493716
1493802
1493892
1493980
1494066
1494174
1494268
1494362
1494472
1494566
1494674
1494788
1494910
1495002
1495152
1495300
1495424
1495542
1495674
1495766
1495904
1496004
1496106
1496200
1496304
1496422
1496518
1496638
1496788
1496904
1496998
1497092
1497188
1497280
1497378
1497470
1497582
1497696
1497798
1497948
1498048
1498140
1498228
1498328
1498438
1498560
1498656
1498758
1498868
1498986
1499090
1499178
1499272
1499410
1499508
1499606
1499760
1499906
1500014
1500106
1500192
1500308
1500418
1500510
1500634
1500740
1500834
1500938
1501050
1501194
1501304
1501456
1501552
1501650
1501740
1501824
1501948
1502044
1502130
1502266
1502362
1502464
1502634
1502736
1502828
1502968
1503080
1503174
1503288
1503412
1503536
1503628
1503722
1503822
1503926
1504020
1504120
1504206
1504302
1504444
1504544
1504638
1504792
1504916
1505002
1505088
1505168
1505256
1505344
1505448
1505548
1505654
1505782
1505888
1506008
1506108
1506250
1506364
1506470
1506568
1506664
1506752
1506838
1506930
1507012
1507090
1507176
1507272
1507384
1507504
1507650
1507810
1507908
1508008
1508112
1508206
1508302
1508410
1508512
1508606
1508702
1508856
1508958
1509048
1509140
1509238
1509320
1509414
1509508
1509640
1509782
1509900
1510008
1510118
1510212
1510316
1510412
1510532
1510618
1510708
1510800
1510880
1510962
1511062
1511172
1511262
1511362
1511466
1511556
1511660
1511790
1511886
1511972
1512056
1512186
1512312
1512464
1512566
1512676
1512776
1512882
1512968
1513084
1513184
1513306
1513426
1513506
1513594
1513684
1513780
1513868
1513968
1514076
1514172
1514256
1514338
1514432
1514570
1514672
1514768
1514852
1514940
1515044
1515140
1515228
1515310
1515402
1515500
1515588
1515730
1515840
1515942
1516038
1516198
1516308
1516414
1516520
1516616
1516750
1516858
1516970
1517092
1517204
1517362
1517472
1517570
1517742
1517870
1517964
1518112
1518204
1518300
1518398
1518498
1518596
1518690
1518838
1518942
1519050
1519176
1519296
1519398
1519492
1519670
1519764
1519872
1519980
1520080
1520178
1520266
1520388
1520478
1520602
1520768
1520864
1520968
1521060
1521182
1521266
1521362
1521470
1521572
1521670
1521764
1521852
1521946
1522036
1522130
1522258
1522362
1522484
1522598
1522726
1522834
1522968
1523060
1523166
1523258
1523356
1523446
1523546
1523654
1523744
1523846
1523930
1524010
1524100
1524204
1524298
1524392
1524496
1524594
1524696
1524814
1524932
1525038
1525174
1525294
1525386
1525480
1525578
1525678
1525774
1525872
1525958
1526062
1526170
1526262
1526356
1526442
1526572
1526712
1526858
1527000
1527116
1527256
1527434
1527528
1527624
1527732
1527832
1527926
1528060
1528158
1528344
1528456
1528560
1528672
1528770
1528866
1528990
1529168
1529280
1529374
1529466
1529562
1529668
1529756
1529836
1529916
1530032
1530138
1530226
1530330
1530430
1530520
1530614
1530764
1530858
1530956
1531066
1531164
1531262
1531366
1531450
1531538
1531642
1531740
1531838
1531932
1532032
1532122
1532218
1532308
1532406
1532494
1532574
1532680
1532782
1532872
1532960
1533050
1533144
1533248
1533352
1533448
1533558
1533666
1533762
1533856
1533946
1534034
1534136
1534240
1534350
1534450
1534580
1534678
1534780
1534890
1535034
1535204
1535302
1535410
1535504
1535630
1535728
1535832
1535936
1536034
1536132
1536244
1536378
1536484
1536596
1536720
1536832
1536970
1537068
1537160
1537248
1537340
1537424
1537516
1537682
1537796
1537892
1538006
1538122
1538216
1538310
1538404
1538490
1538584
1538674
1538776
1538882
1538978
1539068
1539162
1539250
1539344
1539430
1539520
1539624
1539722
1539822
1539952
1540060
1540162
1540266
1540376
1540470
1540582
1540744
1540858
1540950
1541046
1541144
1541236
1541330
1541424
1541514
1541618
1541728
1541824
1541996
1542100
1542198
1542318
1542414
1542514
1542642
1542742
1542898
1543034
1543120
1543262
1543364
1543464
1543592
1543692
1543782
1543912
1544012
1544104
1544216
1544324
1544448
1544566
1544684
1544824
1544918
1545030
1545136
1545302
1545398
1545492
1545598
1545692
1545776
1545882
1546028
1546128
1546226
1546326
1546412
1546554
1546694
1546794
1546956
1547064
1547160
1547270
1547370
1547476
1547584
1547684
1547780
1547884
1547976
1548074
1548186
1548306
1548408
1548562
1548662
1548768
1548882
1548984
1549080
1549184
1549282
1549382
1549478
1549586
1549680
1549760
1549866
1549962
1550048
1550156
1550266
1550374
1550490
1550598
1550702
1550858
1550956
1551050
1551154
1551286
1551390
1551508
1551624
1551720
1551810
1551968
1552076
1552240
1552354
1552458
1552554
1552672
1552794
1552938
1553052
1553152
1553244
1553338
1553458
1553578
1553684
1553792
1553896
1554006
1554112
1554272
1554384
1554488
1554578
1554692
1554812
1554988
1555102
1555204
1555306
1555396
1555502
1555620
1555728
1555820
1555938
1556032
1556128
1556246
1556348
1556454
1556556
1556646
1556744
1556842
1556940
1557036
1557132
1557226
1557318
1557420
1557506
1557596
1557688
1557782
1557884
1557982
1558084
1558186
1558282
1558378
1558510
1558628
1558740
1558846
1558948
1559060
1559162
1559268
1559372
1559458
1559622
1559758
1559862
1559948
1560042
1560130
1560240
1560344
1560454
1560546
1560634
1560726
1560818
1560910
1561010
1561100
1561204
1561300
1561398
1561498
1561608
1561708
1561806
1561900
1561998
1562106
1562210
1562314
1562436
1562540
1562636
1562744
1562880
1562990
1563080
1563210
1563376
1563474
1563584
1563674
1563778
1563872
1563986
1564092
1564258
1564366
1564478
1564582
1564678
1564790
1564916
1565030
1565170
1565270
1565364
1565454
1565560
1565658
1565754
1565850
1565940
1566040
1566132
1566264
1566380
1566522
1566618
1566720
1566830
1566962
1567070
1567172
1567272
1567376
1567482
1567584
1567682
1567788
1567914
1568020
1568184
1568288
1568386
1568492
1568610
1568710
1568808
1568910
1569048
1569144
1569244
1569344
1569434
1569532
1569636
1569738
1569848
1569954
1570046
1570142
1570248
1570372
1570474
1570576
1570678
1570834
1570930
1571042
1571140
1571246
1571360
1571454
1571558
1571672
1571772
1571876
1571984
1572090
1572198
1572308
1572400
1572506
1572624
1572784
1572886
1572988
1573094
1573204
1573344
1573478
1573608
1573764
1573898
1574020
1574122
1574244
1574350
1574456
1574548
1574656
1574784
1574900
1574994
1575086
1575178
1575272
1575410
1575516
1575614
1575736
1575926
1576052
1576186
1576292
1576384
1576476
1576570
1576670
1576772
1576882
1576990
1577094
1577196
1577296
1577390
1577508
1577616
1577718
1577814
1577920
1578026
1578158
1578306
1578448
1578614
1578762
1578866
1578968
1579060
1579156
1579270
1579378
1579488
1579610
1579710
1579818
1579916
1580054
1580192
1580312
1580414
1580514
1580616
1580724
1580820
1580918
1581014
1581128
1581222
1581346
1581458
1581632
1581766
1581870
1581976
1582068
1582168
1582270
1582364
1582468
1582568
1582664
1582764
1582858
1582986
1583098
1583200
1583290
1583390
1583516
1583650
1583768
1583858
1583956
1584050
1584148
1584254
1584374
1584534
1584676
1584820
1584958
1585060
1585182
1585274
1585392
1585552
1585652
1585754
1585850
1585960
1586062
1586162
1586260
1586358
1586452
1586554
1586710
1586814
1586922
1587026
1587128
1587244
1587354
1587448
1587556
1587670
1587774
1587900
1588006
1588102
1588202
1588332
1588434
1588532
1588634
1588726
1588834
1588940
1589040
1589196
1589294
1589378
1589476
1589576
1589684
1589800
1589906
1589996
1590106
1590214
1590324
1590424
1590530
1590642
1590782
1590898
1590992
1591092
1591254
1591372
1591524
1591636
1591762
1591882
1591980
1592100
1592198
1592320
1592436
1592592
1592718
1592828
1592930
1593028
1593132
1593234
1593344
1593438
1593562
1593666
1593800
1593906
1594072
1594200
1594304
1594400
1594550
1594664
1594776
1594876
1594978
1595088
1595188
1595278
1595382
1595540
1595654
1595746
1595838
1595950
1596066
1596172
1596282
1596382
1596482
1596588
1596696
1596792
1596892
1597002
1597132
1597266
1597398
1597506
1597612
1597732
1597824
1597928
1598034
1598120
1598216
1598334
1598476
1598582
1598690
1598840
1598948
1599080
1599214
1599330
1599480
1599604
1599722
1599832
1599932
1600064
1600182
1600288
1600392
1600504
1600608
1600740
1600850
1600972
1601074
1601186
1601290
1601390
1601504
1601644
1601750
1601888
1602004
1602166
1602280
1602390
1602494
1602600
1602760
1602868
1602982
1603144
1603268
1603372
1603478
1603592
1603700
1603812
1603916
1604078
1604190
1604288
1604380
1604462
1604556
1604658
1604748
1604854
1604956
1605058
1605160
1605280
1605384
1605490
1605602
1605726
1605872
1605978
1606084
1606182
1606284
1606386
1606474
1606592
1606684
1606782
1606888
1607002
1607100
1607194
1607296
1607396
1607504
1607608
1607704
1607804
1607914
1608028
1608176
1608322
1608440
1608542
1608656
1608776
1608896
1609004
1609098
1609200
1609310
1609398
1609492
1609594
1609704
1609832
1609938
1610040
1610146
1610250
1610348
1610490
1610626
1610742
1610868
1610980
1611082
1611202
1611302
1611416
1611520
1611636
1611758
1611878
1611988
1612096
1612198
1612294
1612394
1612490
1612596
1612706
1612816
1612916
1613016
1613122
1613228
1613324
1613430
1613540
1613654
1613752
1613854
1613958
1614066
1614162
1614276
1614402
1614496
1614606
1614716
1614900
1615008
1615108
1615220
1615332
1615434
1615546
1615646
1615752
1615870
1616020
1616166
1616290
1616392
1616504
1616602
1616702
1616822
1616916
1617018
1617112
1617218
1617326
1617422
1617526
1617618
1617734
1617854
1617962
1618064
1618170
1618302
1618430
1618546
1618664
1618798
1618916
1619024
1619122
1619232
1619338
1619454
1619594
1619706
1619822
1619924
1620052
1620186
1620330
1620448
1620554
1620654
1620760
1620876
1620990
1621124
1621236
1621330
1621444
1621568
1621684
1621776
1621884
1621980
1622084
1622184
1622290
1622452
1622558
1622672
1622776
1622902
1623012
1623114
1623236
1623336
1623442
1623562
1623720
1623894
1623994
1624102
1624202
1624318
1624428
1624548
1624646
1624770
1624916
1625034
1625146
1625246
1625370
1625494
1625596
1625694
1625806
1625898
1626008
1626112
1626234
1626386
1626494
1626640
1626804
1626912
1627008
1627118
1627238
1627340
1627444
1627544
1627648
1627750
1627854
1627962
1628078
1628274
1628386
1628492
1628610
1628718
1628828
1628940
1629048
1629152
1629258
1629362
1629464
1629578
1629720
1629904
1630028
1630128
1630242
1630336
1630490
1630606
1630696
1630794
1630890
1631014
1631120
1631226
1631340
1631464
1631568
1631674
1631848
1631958
1632078
1632182
1632298
1632390
1632522
1632634
1632736
1632850
1632964
1633076
1633220
1633350
1633474
1633598
1633738
1633838
1633930
1634028
1634124
1634222
1634326
1634424
1634556
1634670
1634784
1634890
1634996
1635090
1635200
1635296
1635420
1635532
1635640
1635748
1635850
1635954
1636056
1636164
1636280
1636376
1636474
1636574
1636686
1636792
1636900
1637008
1637106
1637222
1637338
1637436
1637558
1637706
1637824
1637928
1638038
1638150
1638254
1638370
1638520
1638648
1638786
1638930
1639048
1639170
1639278
1639378
1639486
1639590
1639700
1639792
1639920
1640066
1640204
1640316
1640446
1640544
1640642
1640742
1640840
1640954
1641072
1641200
1641294
1641428
1641564
1641698
1641814
1641918
1642026
1642136
1642290
1642424
1642552
1642666
1642790
1642902
1643016
1643112
1643222
1643332
1643462
1643570
1643682
1643804
1643914
1644026
1644146
1644252
1644406
1644536
1644656
1644772
1644922
1645074
1645198
1645312
1645444
1645568
1645660
1645762
1645876
1645982
1646084
1646198
1646334
1646450
1646550
1646646
1646756
1646862
1646970
1647072
1647162
1647270
1647402
1647522
1647614
1647720
1647854
1648002
1648134
1648240
1648374
1648494
1648638
1648752
1648858
1648968
1649076
1649182
1649300
1649404
1649536
1649646
1649750
1649846
1649956
1650066
1650196
1650324
1650430
1650538
1650642
1650740
1650844
1650940
1651052
1651156
1651270
1651374
1651480
1651582
1651690
1651798
1651908
1652010
1652116
1652220
1652336
1652442
1652566
1652668
1652764
1652866
1652962
1653068
1653174
1653288
1653400
1653504
1653612
1653700
1653832
1653952
1654094
1654198
1654292
1654402
1654506
1654594
1654740
1654878
1654988
1655114
1655212
1655300
1655386
1655494
1655606
1655710
1655828
1655934
1656046
1656164
1656304
1656422
1656530
1656640
1656746
1656854
1656972
1657084
1657242
1657382
1657494
1657624
1657746
1657858
1657952
1658056
1658166
1658270
1658374
1658466
1658616
1658730
1658868
1659012
1659136
1659294
1659426
1659588
1659692
1659788
1659878
1659984
1660100
1660214
1660312
1660462
1660576
1660690
1660796
1660908
1661046
1661160
1661258
1661364
1661476
1661628
1661740
1661846
1661966
1662072
1662248
1662384
1662558
1662668
1662780
1662912
1663012
1663128
1663240
1663354
1663452
1663572
1663692
1663844
1663974
1664078
1664218
1664332
1664442
1664540
1664650
1664756
1664860
1664970
1665084
1665188
1665286
1665412
1665530
1665668
1665812
1665952
1666062
1666198
1666316
1666486
1666610
1666770
1666884
1666990
1667108
1667234
1667340
1667446
1667560
1667682
1667788
1667902
1668016
1668138
1668252
1668392
1668542
1668648
1668768
1668860
1668972
1669082
1669186
1669296
1669402
1669502
1669616
1669722
1669832
1669936
1670088
1670282
1670406
1670514
1670682
1670786
1670902
1671004
1671108
1671206
1671360
1671476
1671578
1671682
1671782
1671900
1672008
1672114
1672226
1672338
1672450
1672554
1672674
1672800
1672924
1673032
1673136
1673254
1673354
1673464
1673576
1673708
1673818
1673924
1674046
1674154
1674258
1674356
1674518
1674622
1674708
1674830
1674976
1675116
1675228
1675334
1675446
1675568
1675676
1675794
1675900
1676014
1676126
1676238
1676342
1676446
1676562
1676654
1676746
1676838
1676952
1677096
1677204
1677334
1677456
1677568
1677674
1677780
1677898
1678004
1678118
1678230
1678352
1678478
1678618
1678772
1678918
1679036
1679174
1679280
1679378
1679482
1679578
1679674
1679774
1679878
1679984
1680088
1680190
1680344
1680452
1680566
1680680
1680820
1680964
1681128
1681228
1681336
1681442
1681544
1681658
1681778
1681892
1681996
1682098
1682194
1682352
1682472
1682572
1682678
1682796
1682900
1683000
1683100
1683210
1683320
1683410
1683526
1683674
1683786
1683900
1684038
1684168
1684284
1684392
1684504
1684640
1684784
1684888
1685008
1685140
1685294
1685400
1685514
1685614
1685718
1685830
1685928
1686054
1686162
1686288
1686388
1686492
1686604
1686730
1686832
1686950
1687062
1687238
1687376
1687494
1687618
1687740
1687890
1688004
1688112
1688218
1688330
1688464
1688590
1688702
1688834
1688956
1689068
1689180
1689272
1689372
1689470
1689564
1689692
1689786
1689892
1690018
1690134
1690250
1690350
1690444
1690540
1690720
1690832
1690946
1691050
1691152
1691248
1691362
1691474
1691582
1691688
1691794
1691892
1692010
1692118
1692206
1692318
1692420
1692514
1692604
1692712
1692816
1692922
1693070
1693182
1693290
1693384
1693500
1693606
1693714
1693812
1693924
1694042
1694140
1694240
1694354
1694460
1694558
1694660
1694766
1694888
1695002
1695114
1695214
1695320
1695436
1695554
1695654
1695772
1695876
1695992
1696124
1696232
1696412
1696530
1696630
1696754
1696910
1697034
1697134
1697240
1697346
1697444
1697542
1697636
1697728
1697866
1697982
1698084
1698184
1698296
1698414
1698548
1698658
1698760
1698884
1699004
1699108
1699212
1699322
1699426
1699580
1699694
1699820
1699924
1700060
1700180
1700296
1700426
1700538
1700656
1700764
1700886
1701000
1701106
1701220
1701336
1701450
1701546
1701652
1701766
1701856
1702010
1702124
1702222
1702350
1702458
1702556
1702666
1702774
1702890
1702984
1703090
1703202
1703302
1703408
1703520
1703646
1703774
1703936
1704038
1704160
1704288
1704418
1704566
1704684
1704784
1704894
1705020
1705134
1705266
1705368
1705474
1705582
1705700
1705814
1705916
1706034
1706150
1706258
1706358
1706474
1706590
1706692
1706812
1706944
1707060
1707218
1707322
1707432
1707546
1707654
1707762
1707870
1707964
1708088
1708200
1708294
1708400
1708508
1708644
1708762
1708916
1709038
1709136
1709232
1709334
1709442
1709562
1709682
1709778
1709900
1710012
1710128
1710232
1710342
1710450
1710554
1710652
1710814
1710942
1711074
1711194
1711304
1711420
1711528
1711626
1711744
1711866
1711984
1712080
1712184
1712302
1712406
1712502
1712654
1712782
1712904
1713040
1713200
1713316
1713412
1713520
1713628
1713722
1713828
1713928
1714036
1714170
1714308
1714412
1714528
1714644
1714762
1714872
1715008
1715132
1715272
1715380
1715476
1715578
1715670
1715780
1715918
1716024
1716148
1716252
1716370
1716488
1716600
1716700
1716810
1716914
1717040
1717164
1717258
1717354
1717520
1717634
1717744
1717898
1718010
1718124
1718222
1718330
1718454
1718574
1718724
1718894
1719026
1719134
1719290
1719426
1719526
1719662
1719764
1719900
1720014
1720124
1720242
1720350
1720468
1720558
1720724
1720842
1720950
1721080
1721204
1721304
1721410
1721508
1721620
1721778
1721910
1722020
1722136
1722246
1722342
1722456
1722550
1722650
1722764
1722872
1722978
1723088
1723196
1723288
1723390
1723488
1723594
1723706
1723816
1723922
1724032
1724132
1724240
1724368
1724472
1724576
1724680
1724786
1724894
1725006
1725104
1725214
1725318
1725426
1725556
1725662
1725762
1725870
1725976
1726082
1726176
1726296
1726406
1726522
1726676
1726812
1726934
1727048
1727218
1727336
1727440
1727560
1727658
1727758
1727862
1727972
1728080
1728190
1728302
1728420
1728518
1728642
1728758
1728856
1729002
1729122
1729220
1729352
1729476
1729590
1729690
1729800
1729906
1730016
1730114
1730226
1730354
1730468
1730578
1730674
1730768
1730870
1730984
1731092
1731190
1731322
1731450
1731572
1731678
1731778
1731888
1732022
1732136
1732246
1732342
1732450
1732572
1732672
1732804
1732912
1733018
1733122
1733242
1733348
1733488
1733604
1733732
1733846
1733954
1734076
1734234
1734396
1734540
1734688
1734806
1734912
1735010
1735122
1735234
1735350
1735456
1735568
1735678
1735784
1735902
1736034
1736184
1736280
1736402
1736522
1736620
1736724
1736900
1737032
1737144
1737254
1737366
1737468
1737576
1737678
1737800
1737898
1738014
1738120
1738228
1738334
1738436
1738558
1738644
1738736
1738846
1738960
1739062
1739168
1739270
1739376
1739484
1739604
1739732
1739844
1739954
1740058
1740164
1740306
1740410
1740514
1740610
1740724
1740844
1740950
1741056
1741158
1741274
1741376
1741540
1741654
1741748
1741878
1741990
1742104
1742202
1742318
1742430
1742564
1742680
1742806
1742900
1743012
1743118
1743240
1743350
1743464
1743586
1743716
1743820
1743950
1744096
1744226
1744342
1744454
1744560
1744664
1744758
1744864
1744960
1745062
1745172
1745278
1745384
1745502
1745628
1745736
1745832
1745952
1746064
1746166
1746266
1746392
1746494
1746648
1746758
1746860
1746964
1747064
1747170
1747274
1747404
1747518
1747630
1747736
1747844
1747960
1748076
1748250
1748366
1748472
1748584
1748720
1748846
1748964
1749080
1749262
1749384
1749506
1749644
1749762
1749862
1749982
1750104
1750230
1750348
1750478
1750612
1750720
1750830
1750938
1751044
1751138
1751240
1751344
1751460
1751606
1751716
1751818
1751934
1752032
1752144
1752256
1752364
1752464
1752630
1752758
1752856
1752996
1753150
1753280
1753394
1753502
1753606
1753712
1753824
1753936
1754040
1754176
1754298
1754402
1754518
1754624
1754734
1754840
1754940
1755040
1755144
1755240
1755336
1755456
1755628
1755730
1755814
1755916
1756018
1756116
1756234
1756350
1756452
1756548
1756664
1756784
1756898
1757000
1757116
1757270
1757398
1757520
1757634
1757748
1757866
1757996
1758100
1758210
1758316
1758434
1758550
1758660
1758778
1758890
1758984
1759082
1759204
1759322
1759432
1759550
1759654
1759754
1759870
1760014
1760132
1760246
1760396
1760500
1760610
1760718
1760824
1760922
1761020
1761126
1761238
1761336
1761472
1761596
1761712
1761832
1761932
1762042
1762168
1762306
1762448
1762542
1762634
1762754
1762856
1762958
1763064
1763158
1763250
1763356
1763476
1763586
1763692
1763804
1763924
1764070
1764206
1764302
1764426
1764550
1764672
1764776
1764890
1764994
1765100
1765272
1765374
1765480
1765578
1765700
1765802
1766010
1766124
1766218
1766324
1766432
1766564
1766680
1766834
1767010
1767172
1767282
1767386
1767496
1767594
1767698
1767812
1767918
1768030
1768184
1768332
1768488
1768610
1768714
1768816
1768946
1769062
1769172
1769292
1769396
1769570
1769706
1769818
1769924
1770036
1770136
1770254
1770362
1770506
1770640
1770772
1770930
1771046
1771152
1771250
1771360
1771494
1771636
1771748
1771856
1771988
1772102
1772246
1772360
1772476
1772574
1772680
1772794
1772920
1773064
1773188
1773300
1773406
1773520
1773624
1773742
1773848
1773968
1774068
1774208
1774314
1774436
1774588
1774712
1774828
1774934
1775042
1775162
1775266
1775372
1775474
1775588
1775694
1775822
1775932
1776054
1776168
1776284
1776384
1776508
1776632
1776742
1776848
1776950
1777052
1777164
1777320
1777456
1777572
1777682
1777812
1777978
1778086
1778196
1778308
1778410
1778524
1778634
1778742
1778844
1778952
1779072
1779186
1779324
1779448
1779546
1779662
1779790
1779900
1780054
1780180
1780278
1780394
1780542
1780676
1780794
1780914
1781024
1781128
1781232
1781380
1781526
1781640
1781746
1781858
1781956
1782096
1782214
1782320
1782430
1782526
1782630
1782756
1782868
1782978
1783088
1783210
1783386
1783512
1783672
1783774
1783870
1784006
1784114
1784214
1784338
1784512
1784634
1784750
1784862
1784994
1785126
1785250
1785364
1785474
1785592
1785716
1785822
1785950
1786056
1786176
1786286
1786392
1786488
1786580
1786684
1786810
1786918
1787030
1787154
1787274
1787398
1787500
1787620
1787752
1787874
1787986
1788088
1788214
1788346
1788464
1788578
1788680
1788804
1788906
1788998
1789104
1789224
1789350
1789444
1789542
1789650
1789754
1789850
1789952
1790068
1790164
1790290
1790416
1790532
1790646
1790748
1790862
1790970
1791084
1791196
1791322
1791448
1791600
1791742
1791888
1792038
1792156
1792266
1792398
1792560
1792694
1792790
1792940
1793060
1793174
1793278
1793416
1793544
1793656
1793798
1793914
1794038
1794230
1794352
1794444
1794552
1794634
1794736
1794846
1794966
1795056
1795166
1795272
1795360
1795460
1795552
1795656
1795758
1795860
1795958
1796064
1796168
1796282
1796384
1796488
1796606
1796762
1796882
1796986
1797076
1797164
1797262
1797372
1797482
1797586
1797690
1797798
1797920
1798024
1798134
1798246
1798344
1798442
1798524
1798620
1798756
1798858
1798970
1799066
1799170
1799272
1799366
1799486
1799602
1799716
1799818
1799924
