peaks
228
474
716
952
1194
1434
1670
1910
2152
2386
2620
2832
3034
3232
3428
3630
3840
4060
4284
4502
4730
4958
5178
5394
5612
5836
6058
6276
6500
6726
6948
7174
7404
7640
7874
8110
8350
8594
8828
9068
9308
9546
9780
10020
10266
10508
10758
11012
11270
11534
11798
12050
12302
12554
12800
13050
13306
13554
13816
14068
14304
14538
14772
15006
15232
15452
15656
15862
16080
16298
16532
16780
17026
17266
17512
17754
17984
18208
18436
18660
18876
19100
19320
19536
19750
19968
20192
20416
20642
20876
21120
21364
21604
21838
22066
22288
22514
22752
22988
23230
23482
23732
23976
24228
24484
24722
24960
25202
25434
25676
25928
26190
26438
26682
26924
27154
27388
27630
27868
28124
28380
28632
28894
29156
29386
29610
29824
30032
30230
30420
30588
30768
30948
31126
31306
31484
31662
31838
32014
32190
32366
32542
32718
32890
33064
33234
33408
33583
33756
33926
34102
34276
34448
34622
34794
34968
35138
35310
35482
35650
35816
35982
36146
36308
36468
36628
36784
36940
37094
37250
37414
37586
37770
37974
38198
38430
38666
38900
39146
39400
39632
39852
40074
40298
40528
40766
40984
41200
41422
41654
41898
42130
42352
42574
42814
43050
43280
43502
43730
43956
44186
44410
44636
44864
45096
45332
45566
45798
46042
46280
46516
46746
46980
47220
47464
47688
47906
48126
48354
48590
48824
49064
49322
49564
49792
50024
50254
50478
50694
50908
51130
51348
51548
51744
51948
52168
52400
52624
52842
53064
53288
53502
53714
53926
54146
54382
54618
54840
55066
55296
55514
55732
55956
56186
56430
56658
56894
57136
57370
57598
57828
58058
58282
58502
58726
58952
59180
59406
59642
59888
60126
60362
60592
60804
61018
61248
61476
61704
61940
62188
62436
62670
62904
63136
63360
63576
63800
64034
64276
64530
64786
65040
65282
65522
65758
65978
66192
66416
66642
66870
67100
67338
67572
67804
68038
68272
68500
68722
68954
69192
69406
69604
69796
69978
70154
70332
70502
70670
70834
71000
71164
71324
71486
71644
71802
71960
72118
72280
72444
72612
72782
72960
73134
73316
73508
73704
73908
74116
74320
74520
74724
74926
75134
75342
75542
75740
75946
76152
76358
76570
76778
76990
77202
77408
77610
77814
78012
78190
78374
78556
78738
78922
79104
79286
79468
79654
79846
80042
80242
80442
80640
80834
81024
81212
81404
81598
81794
81992
82192
82390
82590
82796
83000
83202
83400
83596
83792
83988
84186
84386
84588
84786
84984
85178
85372
85568
85768
85968
86168
86366
86568
86768
86972
87172
87370
87566
87764
87960
88158
88356
88554
88746
88938
89132
89324
89518
89708
89898
90092
90284
90482
90676
90866
91058
91248
91440
91634
91828
92022
92216
92404
92592
92776
92964
93154
93344
93532
93720
93910
94100
94288
94476
94660
94838
95016
95194
95372
95548
95722
95896
96066
96236
96404
96570
96734
96898
97060
97224
97386
97552
97718
97884
98052
98220
98390
98562
98734
98908
99084
99260
99438
99616
99792
99976
100162
100348
100536
100724
100906
101088
101272
101460
101648
101836
102026
102210
102392
102572
102752
102930
103110
103290
103470
103648
103826
104008
104194
104380
104568
104758
104946
105134
105316
105498
105678
105858
106040
106222
106400
106578
106750
106922
107092
107266
107438
107614
107786
107966
108144
108320
108496
108674
108856
109038
109216
109396
109574
109754
109938
110120
110302
110484
110668
110852
111036
111226
111412
111600
111790
111984
112184
112378
112566
112754
112938
113120
113300
113480
113660
113836
114010
114184
114362
114536
114716
114896
115090
115280
115470
115658
115848
116040
116232
116428
116620
116812
116996
117180
117362
117542
117722
117904
118082
118260
118434
118608
118782
118958
119136
119314
119492
119672
119854
120034
120218
120402
120586
120768
120952
121138
121326
121514
121706
121896
122088
122282
122474
122664
122856
123052
123244
123440
123634
123832
124028
124224
124416
124606
124796
124988
125180
125370
125564
125762
125962
126160
126356
126546
126736
126924
127116
127310
127502
127696
127886
128076
128266
128456
128648
128836
129026
129212
129402
129594
129788
129982
130172
130358
130540
130722
130904
131092
131278
131468
131660
131850
132044
132236
132432
132624
132814
133000
133186
133372
133558
133748
133938
134128
134316
134504
134688
134874
135058
135244
135426
135608
135792
135972
136154
136340
136522
136704
136888
137074
137260
137446
137634
137820
138004
138190
138380
138570
138760
138952
139140
139334
139532
139730
139924
140118
140312
140506
140706
140910
141110
141310
141514
141716
141914
142108
142300
142492
142684
142876
143070
143264
143460
143658
143856
144044
144228
144410
144590
144770
144948
145122
145300
145480
145660
145838
146014
146190
146362
146532
146702
146866
147032
147196
147364
147532
147698
147864
148028
148196
148360
148520
148678
148836
148994
149150
149304
149460
149614
149768
149930
150094
150260
150424
150594
150764
150938
151114
151294
151474
151658
151846
152034
152224
152414
152604
152790
152976
153162
153354
153550
153758
154040
154280
154506
154730
154956
155194
155442
155658
155866
156070
156268
156470
156684
156908
157136
157366
157596
157816
158034
158252
158470
158688
158914
159142
159356
159564
159772
159990
160210
160434
160646
160844
161040
161238
161438
161638
161838
162044
162252
162460
162672
162882
163082
163290
163500
163716
163930
164134
164336
164536
164742
164944
165144
165342
165540
165742
165946
166150
166352
166556
166760
166960
167154
167346
167538
167734
167926
168120
168318
168524
168728
168930
169128
169328
169530
169734
169934
170132
170338
170548
170758
170972
171186
171396
171604
171808
172006
172202
172386
172568
172746
172920
173094
173270
173444
173618
173792
173970
174146
174328
174512
174694
174880
175074
175276
175490
175712
175918
176122
176332
176550
176766
176980
177188
177390
177592
177804
178020
178238
178452
178660
178872
179084
179290
179492
179702
179920
180152
180382
180606
180834
181068
181300
181514
181720
181930
182134
182342
182548
182746
182954
183172
183388
183592
183792
183994
184198
184408
184620
184828
185046
185268
185502
185724
185938
186150
186366
186584
186802
187022
187238
187464
187692
187908
188124
188344
188566
188776
188986
189202
189424
189626
189820
190010
190196
190382
190566
190758
190972
191192
191418
191652
191866
192066
192256
192444
192628
192798
192970
193134
193298
193462
193622
193780
193942
194098
194256
194410
194568
194724
194882
195036
195188
195342
195496
195646
195794
195940
196086
196232
196376
196522
196670
196818
196968
197116
197264
197412
197562
197710
197856
198002
198146
198290
198434
198578
198722
198866
199006
199148
199288
199424
199564
199700
199836
199970
200104
200240
200376
200512
200648
200784
200920
201054
201188
201322
201454
201586
201718
201848
201980
202112
202242
202372
202502
202632
202762
202894
203022
203150
203276
203404
203530
203656
203782
203908
204032
204158
204282
204406
204532
204660
204790
204922
205056
205188
205322
205456
205588
205720
205852
205984
206116
206248
206382
206516
206650
206784
206918
207050
207180
207312
207444
207578
207714
207852
207988
208126
208264
208400
208534
208668
208804
208942
209082
209226
209372
209518
209662
209806
209948
210094
210238
210384
210532
210684
210838
210990
211140
211290
211440
211590
211742
211896
212052
212208
212362
212516
212670
212822
212972
213124
213276
213440
213630
213838
214026
214210
214384
214552
214716
214876
215040
215210
215384
215562
215740
215912
216076
216236
216392
216542
216694
216848
217002
217162
217322
217484
217644
217800
217956
218110
218264
218418
218578
218746
218930
219120
219304
219492
219676
219860
220036
220208
220376
220540
220700
220858
221014
221174
221334
221494
221654
221814
221974
222132
222292
222454
222618
222780
222944
223114
223296
223484
223678
223868
224050
224232
224414
224598
224782
224960
225134
225310
225498
225696
225902
226104
226300
226496
226688
226872
227046
227216
227380
227540
227698
227858
228022
228164
228366
228556
228762
228972
229190
229402
229600
229792
229976
230160
230342
230522
230704
230890
231070
231256
231436
231616
231794
231976
232158
232344
232528
232706
232884
233058
233230
233410
233590
233772
233958
234148
234334
234524
234712
234902
235082
235258
235434
235610
235790
235964
236142
236318
236500
236686
236868
237016
237220
237394
237572
237744
237914
238082
238246
238406
238564
238716
238870
239028
239188
239354
239520
239688
239860
240036
240222
240420
240614
240812
241002
241194
241388
241578
241772
241958
242146
242348
242562
242782
242982
243176
243372
243570
243758
243938
244118
244298
244472
244646
244824
245016
245238
245500
245756
245996
246222
246428
246618
246806
246986
247160
247334
247508
247684
247858
248032
248210
248388
248566
248740
248908
249078
249244
249406
249570
249736
249898
250066
250234
250406
250580
250758
250934
251108
251278
251448
251608
251766
251922
252076
252234
252396
252560
252732
252906
253082
253256
253430
253602
253772
253940
254108
254274
254438
254600
254760
254918
255074
255228
255380
255534
255686
255838
255988
256140
256290
256438
256584
256732
256876
257020
257162
257304
257444
257584
257724
257862
258000
258138
258274
258408
258542
258676
258808
258940
259072
259202
259332
259462
259592
259722
259852
259984
260114
260246
260378
260508
260640
260770
260902
261032
261162
261290
261418
261548
261676
261806
261934
262062
262190
262318
262446
262574
262700
262826
262954
263078
263204
263330
263456
263580
263706
263830
263954
264082
264206
264332
264454
264578
264702
264826
264950
265072
265194
265316
265440
265562
265684
265806
265930
266054
266178
266298
266420
266540
266662
266782
266902
267020
267138
267258
267374
267494
267610
267726
267844
267960
268078
268196
268310
268426
268542
268658
268774
268890
269006
269122
269236
269354
269470
269586
269702
269820
269938
270054
270170
270288
270406
270522
270640
270756
270872
270988
271104
271220
271334
271450
271566
271682
271800
271918
272036
272154
272272
272390
272508
272628
272746
272864
272982
273100
273218
273336
273456
273576
273694
273812
273932
274054
274172
274292
274410
274528
274646
274764
274880
274996
275114
275228
275342
275458
275572
275686
275800
275916
276030
276144
276256
276370
276484
276598
276712
276828
276936
277050
277162
277276
277388
277500
277614
277728
277842
277956
278070
278184
278296
278410
278522
278634
278746
278860
278970
279086
279196
279306
279416
279528
279640
279752
279866
279978
280088
280200
280310
280426
280534
280646
280758
280872
280984
281096
281208
281322
281438
281554
281668
281784
281900
282016
282132
282250
282366
282484
282600
282716
282834
282950
283066
283184
283300
283416
283534
283650
283766
283884
284000
284118
284234
284350
284466
284584
284702
284818
284934
285050
285168
285284
285402
285518
285634
285754
285872
285988
286104
286220
286336
286452
286566
286680
286792
286906
287024
287130
287244
287356
287468
287582
287696
287812
287924
288040
288156
288270
288386
288500
288616
288730
288844
288958
289072
289186
289302
289416
289532
289650
289766
289880
289994
290110
290226
290342
290458
290576
290688
290802
290918
291034
291146
291260
291374
291490
291602
291718
291832
291946
292060
292174
292288
292400
292514
292628
292740
292852
292964
293076
293190
293304
293416
293528
293644
293760
293874
293990
294104
294220
294338
294454
294570
294686
294802
294920
295036
295154
295272
295392
295508
295628
295748
295866
295984
296102
296220
296338
296456
296574
296692
296810
296930
297050
297170
297294
297418
297544
297670
297798
297926
298052
298180
298308
298434
298558
298684
298808
298934
299058
299184
299306
299432
299556
299680
299804
299928
300052
300174
300298
300420
300544
300666
300786
300906
301028
301150
301270
301390
301512
301634
301758
301878
302000
302122
302244
302368
302490
302612
302736
302862
302988
303118
303246
303374
303504
303632
303762
303892
304020
304148
304274
304402
304530
304658
304786
304916
305046
305172
305300
305428
305556
305686
305812
305940
306068
306198
306326
306456
306586
306720
306852
306984
307106
307250
307382
307520
307656
307790
307926
308062
308196
308332
308464
308596
308728
308858
308988
309116
309246
309374
309502
309630
309756
309882
310008
310134
310262
310388
310512
310638
310762
310888
311014
311138
311266
311392
311520
311648
311776
311904
312030
312160
312288
312418
312548
312682
312818
312958
313100
313238
313378
313508
313642
313772
313902
314030
314158
314286
314412
314538
314666
314794
314920
315046
315172
315300
315426
315552
315676
315800
315926
316054
316184
316314
316450
316590
316732
316876
317016
317154
317292
317430
317568
317702
317836
317970
318104
318240
318380
318520
318664
318806
318948
319094
319238
319386
319536
319686
319832
319974
320116
320258
320396
320536
320676
320822
320974
321126
321290
321464
321642
321816
321984
322140
322294
322446
322600
322754
322904
323054
323202
323352
323498
323644
323790
323938
324088
324240
324392
324542
324692
324842
324992
325142
325304
325472
325650
325830
326008
326170
326326
326474
326618
326760
326904
327050
327204
327368
327534
327700
327870
328048
328224
328400
328572
328752
328966
329204
329412
329614
329836
330058
330256
330444
330632
330828
331046
331254
331472
331690
331912
332118
332312
332514
332718
332924
333130
333340
333568
333800
334010
334202
334396
334596
334804
335008
335206
335398
335602
335816
336040
336254
336470
336700
336918
337126
337324
337524
337730
337950
338178
338394
338600
338810
339028
339256
339478
339690
339898
340110
340326
340540
340738
340932
341128
341346
341616
341844
342046
342234
342420
342598
342766
342932
343094
343250
343406
343562
343722
343894
344066
344238
344414
344604
344806
345016
345232
345430
345622
345810
346002
346198
346396
346588
346776
346958
347146
347344
347558
347802
348016
348218
348420
348624
348828
349024
349220
349418
349628
349832
350028
350222
350420
350622
350816
351002
351188
351378
351566
351750
351932
352112
352290
352472
352652
352830
353012
353186
353362
353536
353708
353878
354052
354226
354400
354574
354756
354940
355138
355330
355518
355706
355902
356106
356320
356534
356736
356934
357130
357324
357518
357706
357892
358078
358274
358484
358706
358920
359122
359322
359522
359718
359916
360110
360296
360484
360666
360840
361014
361182
361348
361514
361686
361862
362034
362206
362380
362554
362730
362912
363094
363290
363486
363698
363910
364108
364308
364508
364710
364912
365110
365304
365500
365698
365898
366094
366288
366470
366652
366836
367018
367206
367394
367578
367758
367936
368112
368292
368478
368670
368862
369048
369228
369402
369576
369744
369910
370076
370236
370394
370554
370712
370868
371024
371180
371338
371494
371650
371804
371960
372116
372276
372442
372614
372790
372976
373164
373356
373550
373744
373936
374120
374304
374488
374678
374882
375098
375318
375528
375736
375946
376154
376366
376582
376804
377014
377218
377420
377618
377828
378022
378204
378372
378542
378714
378884
379052
379220
379388
379566
379754
379946
380130
380316
380500
380688
380878
381072
381260
381448
381632
381814
381996
382182
382368
382552
382736
382916
383098
383286
383476
383672
383858
384042
384220
384398
384578
384764
384950
385134
385322
385516
385804
386050
386272
386490
386702
386904
387098
387296
387486
387672
387858
388048
388240
388432
388622
388808
388994
389186
389386
389600
389814
390020
390232
390450
390668
390872
391076
391278
391482
391684
391878
392072
392270
392474
392688
392894
393098
393304
393508
393702
393890
394076
394266
394458
394656
394848
395038
395226
395418
395610
395810
396004
396194
396382
396574
396776
396986
397196
397394
397592
397794
397996
398186
398376
398566
398758
398956
399160
399358
399552
399744
399940
400144
400352
400560
400756
400952
401156
401366
401572
401770
401962
402150
402344
402540
402736
402924
403108
403292
403478
403670
403864
404058
404248
404440
404634
404822
405006
405184
405360
405530
405700
405870
406040
406212
406388
406570
406758
406952
407152
407352
407546
407730
407916
408100
408288
408486
408682
408878
409070
409254
409434
409616
409802
409988
410178
410376
410584
410792
410996
411194
411380
411562
411746
411920
412090
412256
412424
412588
412754
412920
413086
413250
413416
413586
413764
413944
414132
414326
414516
414704
414890
415078
415266
415458
415652
415850
416048
416242
416432
416616
416798
416978
417160
417344
417526
417710
417890
418074
418266
418458
418646
418832
419014
419194
419374
419550
419730
419904
420076
420248
420420
420596
420776
420956
421134
421308
421484
421662
421838
422018
422196
422370
422544
422722
422902
423088
423268
423450
423628
423808
423990
424172
424356
424536
424714
424892
425064
425232
425400
425568
425736
425912
426092
426280
426470
426656
426842
427028
427218
427406
427592
427774
427956
428138
428324
428510
428692
428874
429056
429238
429422
429610
429796
429982
430170
430358
430544
430730
430910
431088
431260
431434
431610
431788
431978
432168
432356
432546
432740
432932
433122
433310
433496
433682
433870
434062
434246
434426
434602
434776
434946
435120
435302
435486
435670
435852
436040
436234
436430
436620
436806
436990
437178
437366
437560
437748
437934
438122
438308
438500
438696
438892
439084
439272
439460
439652
439846
440036
440222
440410
440602
440796
440986
441172
441356
441542
441728
441918
442106
442292
442482
442674
442868
443056
443240
443428
443618
443812
444002
444186
444372
444562
444758
444952
445144
445336
445526
445722
445916
446106
446296
446490
446690
446884
447072
447256
447438
447616
447802
447988
448174
448358
448544
448736
448930
449128
449326
449518
449718
449924
450128
450328
450524
450722
450920
451120
451318
451514
451712
451914
452126
452346
452562
452778
452976
453170
453360
453544
453724
453904
454086
454264
454442
454618
454788
454960
455134
455310
455490
455670
455848
456020
456194
456364
456538
456718
456902
457092
457286
457484
457676
457874
458064
458250
458434
458620
458796
458974
459148
459316
459482
459646
459810
459974
460138
460300
460462
460622
460778
460932
461084
461236
461390
461548
461706
461868
462030
462200
462376
462560
462748
462932
463114
463298
463484
463676
463864
464050
464230
464408
464586
464764
464940
465120
465296
465470
465640
465812
465984
466156
466332
466504
466676
466846
467018
467188
467366
467546
467726
467904
468078
468250
468424
468600
468784
468972
469162
469350
469540
469734
469924
470112
470294
470474
470656
470840
471032
471224
471416
471610
471806
471994
472176
472352
472522
472688
472852
473012
473170
473328
473482
473640
473796
473956
474114
474276
474436
474598
474758
474916
475076
475238
475406
475578
475754
475930
476108
476292
476480
476670
476862
477052
477242
477432
477628
477818
478008
478194
478380
478568
478758
478944
479130
479312
479496
479680
479864
480042
480220
480394
480566
480740
480912
481094
481280
481460
481642
481826
482012
482198
482382
482564
482744
482926
483108
483292
483476
483660
483842
484028
484214
484406
484600
484788
484974
485158
485340
485526
485710
485898
486080
486260
486438
486618
486802
486990
487180
487370
487556
487738
487920
488100
488278
488454
488622
488792
488960
489124
489286
489450
489610
489768
489924
490082
490244
490406
490566
490728
490890
491052
491218
491382
491546
491714
491882
492050
492218
492384
492548
492716
492892
493076
493268
493464
493664
493862
494058
494254
494448
494636
494820
495000
495174
495344
495512
495680
495846
496016
496188
496362
496542
496724
496908
497092
497272
497452
497636
497824
498016
498210
498394
498582
498766
498954
499144
499336
499520
499704
499894
500084
500282
500478
500678
500878
501082
501282
501478
501674
501872
502068
502258
502450
502642
502838
503030
503220
503410
503600
503786
503966
504144
504322
504500
504684
504866
505048
505230
505410
505592
505780
505972
506168
506368
506570
506772
506974
507174
507368
507560
507742
507922
508100
508280
508466
508654
508840
509028
509218
509410
509604
509798
509986
510176
510366
510558
510752
510944
511130
511320
511510
511700
511886
512078
512268
512460
512646
512828
513006
513186
513368
513556
513750
513946
514136
514322
514508
514696
514886
515078
515266
515448
515632
515814
515996
516180
516364
516546
516726
516912
517100
517292
517480
517668
517860
518052
518250
518446
518636
518822
519008
519198
519390
519578
519764
519950
520140
520332
520524
520710
520894
521078
521266
521450
521632
521810
521986
522162
522338
522518
522698
522876
523056
523234
523418
523604
523792
523974
524156
524338
524522
524704
524886
525068
525246
525422
525598
525774
525950
526130
526310
526488
526664
526844
527026
527210
527402
527590
527780
527976
528178
528376
528570
528764
528964
529166
529364
529556
529744
529930
530116
530302
530490
530674
530858
531054
531266
531474
531698
531916
532126
532338
532548
532756
532958
533150
533342
533534
533730
533924
534120
534314
534514
534718
534916
535114
535306
535498
535692
535880
536062
536242
536420
536598
536778
536960
537144
537326
537504
537682
537862
538044
538224
538402
538582
538760
538936
539112
539294
539482
539672
539870
540062
540266
540474
540660
540850
541030
541206
541372
541540
541702
541862
542016
542174
542338
542508
542688
542864
543042
543222
543396
543570
543736
543902
544064
544226
544388
544548
544710
544874
545036
545202
545370
545540
545714
545888
546060
546236
546408
546580
546748
546912
547076
547240
547406
547574
547744
547920
548098
548284
548462
548638
548814
548992
549176
549362
549552
549736
549914
550094
550272
550448
550620
550792
550962
551136
551308
551484
551658
551832
552014
552206
552404
552610
552820
553028
553222
553412
553598
553788
553980
554168
554350
554530
554706
554874
555042
555206
555366
555528
555690
555852
556012
556170
556330
556490
556652
556812
556972
557136
557306
557478
557656
557828
558004
558182
558362
558542
558728
558912
559092
559272
559452
559632
559808
559984
560158
560330
560506
560688
560874
561062
561246
561424
561598
561774
561950
562128
562304
562478
562652
562828
563008
563194
563384
563570
563758
563942
564122
564304
564486
564670
564854
565034
565216
565396
565582
565768
565952
566138
566332
566526
566712
566896
567082
567268
567452
567630
567804
567980
568158
568336
568516
568694
568868
569040
569214
569392
569574
569762
569944
570128
570312
570500
570686
570872
571056
571236
571416
571596
571774
571956
572136
572312
572488
572662
572840
573022
573202
573380
573560
573740
573920
574094
574264
574434
574604
574770
574932
575092
575250
575406
575558
575708
575860
576008
576154
576300
576450
576600
576752
576904
577058
577214
577372
577536
577706
577884
578066
578244
578422
578600
578780
578962
579142
579318
579494
579672
579854
580034
580214
580392
580568
580742
580918
581098
581276
581454
581630
581812
581994
582180
582366
582550
582732
582916
583100
583284
583460
583634
583808
583984
584160
584338
584512
584686
584860
585036
585216
585400
585582
585768
585956
586146
586332
586516
586700
586886
587076
587262
587448
587630
587812
587998
588184
588366
588548
588726
588904
589084
589262
589438
589616
589790
589966
590144
590326
590506
590686
590864
591040
591216
591396
591578
591760
591938
592116
592296
592480
592668
592854
593038
593220
593406
593594
593782
593966
594148
594332
594518
594700
594882
595074
595268
595456
595648
595842
596038
596238
596434
596620
596810
597004
597198
597398
597596
597786
597978
598174
598372
598574
598780
598990
599202
599412
599614
599808
600000
600196
600396
600598
600792
600986
601180
601378
601574
601762
601944
602126
602304
602484
602660
602834
603008
603190
603378
603576
603770
603960
604154
604350
604548
604734
604918
605098
605276
605450
605618
605782
605940
606098
606262
606414
606568
606726
606888
607054
607230
607414
607592
607762
607936
608110
608286
608468
608656
608840
609020
609202
609390
609576
609768
609954
610138
610320
610502
610684
610864
611044
611226
611410
611604
611804
612000
612194
612390
612586
612782
612972
613158
613346
613542
613750
613958
614158
614354
614544
614726
614908
615092
615276
615458
615634
615812
615996
616188
616384
616580
616778
616978
617180
617380
617578
617782
617980
618172
618364
618554
618736
618916
619094
619268
619444
619630
619830
620044
620264
620480
620686
620892
621096
621298
621496
621684
621878
622078
622282
622490
622700
622898
623092
623284
623480
623672
623866
624062
624254
624446
624636
624822
625000
625174
625354
625536
625722
625914
626112
626304
626490
626682
626874
627066
627260
627452
627646
627844
628044
628244
628440
628638
628842
629046
629248
629446
629640
629834
630028
630230
630426
630618
630808
630998
631190
631378
631560
631740
631926
632112
632298
632482
632660
632836
633014
633194
633376
633550
633728
633904
634080
634262
634446
634630
634818
635010
635210
635404
635596
635786
635978
636172
636362
636544
636724
636906
637092
637278
637462
637646
637836
638028
638220
638406
638594
638782
638968
639152
639334
639518
639702
639884
640060
640236
640410
640580
640750
640920
641092
641268
641448
641630
641810
641988
642168
642356
642540
642726
642906
643086
643266
643448
643642
643838
644034
644222
644412
644598
644788
644980
645170
645364
645556
645742
645926
646104
646286
646464
646642
646814
646986
647154
647328
647508
647702
647900
648096
648296
648488
648674
648860
649052
649244
649438
649636
649834
650030
650230
650440
650648
650842
651028
651208
651388
651568
651748
651928
652106
652284
652462
652636
652812
652988
653166
653350
653544
653740
653940
654138
654326
654518
654706
654886
655064
655238
655416
655596
655782
655982
656196
656424
656638
656840
657052
657272
657504
657726
657936
658148
658360
658574
658784
658988
659192
659394
659604
659818
660034
660248
660454
660664
660876
661084
661252
661438
661616
661790
661960
662126
662292
662454
662618
662786
662960
663130
663304
663484
663670
663864
664070
664290
664518
664736
664950
665162
665378
665584
665784
665982
666180
666382
666584
666786
666996
667200
667418
667634
667842
668044
668236
668422
668604
668794
668988
669192
669412
669624
669830
670032
670242
670454
670672
670886
671086
671286
671490
671690
671884
672070
672252
672442
672640
672846
673054
673254
673454
673660
673872
674080
674280
674476
674672
674870
675074
675280
675480
675684
675888
676096
676298
676494
676690
676888
677086
677284
677476
677666
677858
678056
678258
678454
678648
678838
679030
679226
679418
679606
679798
679992
680186
680378
680568
680760
680956
681152
681344
681530
681714
681896
682080
682264
682446
682630
682818
683012
683208
683396
683580
683764
683948
684128
684310
684488
684670
684854
685040
685222
685402
685580
685764
685948
686130
686308
686484
686656
686828
687002
687182
687362
687540
687718
687898
688074
688248
688418
688586
688750
688914
689076
689236
689398
689562
689728
689894
690058
690222
690380
690544
690698
690856
691010
691160
691310
691462
691614
691772
691928
692088
692250
692418
692590
692778
692974
693176
693376
693568
693762
693964
694164
694370
694568
694766
694966
695170
695364
695550
695736
695922
696114
696310
696512
696706
696898
697092
697284
697480
697680
697874
698064
698256
698454
698658
698866
699068
699270
699474
699676
699876
700066
700248
700430
700602
700774
700946
701112
701280
701450
701626
701804
701980
702160
702344
702530
702714
702896
703078
703262
703452
703650
703860
704074
704286
704496
704700
704908
705112
705320
705528
705744
705958
706170
706378
706580
706782
706986
707194
707406
707624
707840
708044
708244
708438
708634
708828
709028
709224
709426
709624
709814
710000
710178
710354
710522
710690
710858
711024
711188
711350
711508
711672
711828
711986
712144
712302
712458
712616
712774
712930
713086
713242
713402
713564
713734
713912
714090
714270
714456
714646
714840
715042
715250
715456
715656
715850
716048
716250
716458
716670
716884
717100
717308
717518
717722
717926
718120
718308
718494
718686
718886
719090
719302
719506
719706
719906
720108
720304
720500
720690
720880
721064
721244
721420
721592
721760
721928
722092
722252
722412
722572
722732
722890
723048
723204
723362
723518
723678
723844
724020
724206
724408
724616
724832
725052
725268
725472
725668
725858
726046
726242
726448
726662
726876
727086
727286
727478
727668
727864
728070
728286
728506
728728
728942
729156
729372
729582
729786
729988
730194
730404
730616
730824
731026
731222
731416
731612
731812
732012
732210
732412
732624
732844
733056
733262
733464
733672
733874
734074
734270
734466
734668
734878
735094
735306
735512
735724
735940
736152
736356
736558
736756
736962
737174
737384
737584
737780
737972
738160
738356
738584
738814
739030
739238
739448
739658
739864
740064
740256
740448
740642
740838
741030
741216
741404
741596
741790
741990
742188
742382
742574
742764
742956
743152
743350
743550
743748
743942
744136
744326
744524
744722
744918
745112
745300
745490
745684
745884
746084
746282
746476
746662
746840
747016
747192
747372
747552
747734
747918
748108
748308
748508
748698
748888
749076
749262
749448
749636
749818
750000
750182
750372
750560
750748
750928
751112
751296
751478
751658
751840
752022
752210
752400
752588
752776
752964
753158
753350
753544
753730
753916
754106
754298
754490
754676
754866
755058
755250
755436
755622
755808
755996
756192
756386
756572
756756
756942
757128
757314
757502
757694
757886
758082
758276
758466
758650
758834
759018
759206
759392
759578
759762
759944
760126
760314
760504
760690
760876
761060
761244
761432
761624
761812
761998
762180
762362
762542
762722
762908
763092
763274
763450
763628
763806
763986
764168
764344
764518
764690
764860
765026
765190
765352
765510
765666
765822
765978
766134
766284
766436
766586
766736
766886
767034
767184
767332
767480
767632
767782
767936
768096
768262
768434
768606
768780
768954
769130
769314
769506
769700
769890
770078
770268
770458
770648
770840
771026
771206
771384
771564
771750
771938
772136
772324
772506
772688
772872
773056
773246
773434
773616
773800
773988
774186
774386
774580
774772
774958
775144
775336
775534
775728
775918
776108
776300
776496
776688
776878
777064
777260
777454
777644
777830
778022
778222
778428
778638
778852
779062
779268
779470
779658
779848
780040
780232
780424
780620
780814
781014
781220
781436
781654
781860
782068
782274
782484
782680
782872
783062
783260
783462
783660
783858
784064
784272
784480
784686
784898
785112
785328
785534
785736
785940
786146
786350
786548
786756
786966
787170
787372
787576
787780
787980
788172
788356
788536
788718
788900
789100
789304
789508
789724
789942
790162
790376
790586
790790
790986
791172
791356
791540
791728
791926
792126
792322
792520
792716
792912
793112
793316
793514
793712
793914
794118
794326
794530
794728
794924
795124
795330
795528
795720
795912
796104
796302
796502
796696
796890
797086
797290
797498
797696
797890
798086
798284
798484
798678
798864
799054
799250
799450
799652
799854
800060
800264
800468
800664
800852
801038
801218
801392
801566
801740
801920
802100
802280
802458
802630
802800
802966
803130
803294
803460
803630
803808
803984
804160
804340
804524
804714
804914
805118
805322
805520
805716
805912
806108
806304
806500
806696
806884
807078
807280
807484
807692
807902
808102
808300
808498
808700
808902
809108
809312
809510
809716
809928
810144
810362
810568
810764
810970
811182
811394
811616
811842
812070
812270
812464
812650
812838
813034
813226
813418
813600
813778
813952
814126
814298
814466
814634
814802
814968
815132
815292
815454
815618
815782
815946
816106
816272
816434
816598
816762
816930
817100
817272
817444
817614
817782
817946
818110
818274
818440
818616
818800
818988
819174
819364
819554
819744
819928
820108
820284
820464
820642
820826
821012
821204
821394
821576
821756
821934
822112
822298
822488
822680
822878
823074
823262
823446
823628
823810
823996
824182
824370
824556
824740
824918
825090
825262
825430
825594
825752
825914
826072
826230
826386
826544
826702
826860
827020
827174
827332
827488
827644
827800
827954
828110
828268
828424
828580
828738
828896
829056
829220
829392
829568
829750
829940
830134
830334
830536
830744
830950
831144
831334
831520
831706
831896
832078
832256
832430
832602
832770
832934
833098
833262
833424
833584
833742
833898
834052
834206
834360
834514
834672
834830
834990
835148
835304
835460
835616
835768
835916
836068
836216
836362
836512
836668
836826
836988
837150
837316
837482
837652
837826
838002
838184
838364
838546
838724
838908
839096
839286
839482
839672
839858
840048
840240
840432
840626
840820
841012
841204
841394
841578
841760
841930
842100
842264
842426
842588
842748
842904
843062
843220
843382
843542
843704
843864
844022
844178
844336
844492
844648
844800
844952
845104
845254
845406
845558
845710
845864
846014
846166
846320
846476
846628
846782
846936
847090
847246
847402
847556
847710
847862
848016
848166
848320
848472
848624
848776
848926
849076
849226
849374
849522
849672
849820
849968
850116
850268
850418
850568
850716
850866
851016
851166
851318
851470
851620
851772
851924
852074
852224
852374
852528
852682
852838
852992
853150
853306
853462
853622
853780
853936
854092
854250
854408
854566
854726
854884
855042
855198
855354
855508
855664
855818
855972
856126
856284
856440
856596
856750
856906
857064
857218
857370
857522
857672
857822
857972
858124
858272
858420
858566
858712
858858
859004
859150
859296
859440
859584
859726
859874
860018
860162
860306
860446
860590
860730
860872
861016
861158
861300
861442
861584
861728
861870
862014
862154
862294
862436
862576
862720
862864
863010
863156
863304
863458
863618
863776
863932
864088
864246
864406
864562
864716
864870
865024
865178
865334
865488
865640
865794
865944
866098
866252
866406
866562
866714
866868
867024
867182
867340
867496
867654
867808
867964
868122
868282
868444
868606
868768
868928
869092
869256
869422
869584
869744
869906
870068
870230
870390
870550
870712
870878
871042
871204
871362
871520
871680
871836
871992
872148
872304
872460
872618
872780
872938
873098
873254
873408
873564
873718
873870
874022
874172
874324
874470
874616
874762
874908
875048
875186
875324
875460
875598
875734
875870
876008
876146
876288
876432
876578
876724
876870
877014
877160
877304
877452
877600
877748
877900
878048
878198
878344
878492
878644
878798
878954
879112
879268
879426
879580
879732
879884
880036
880190
880346
880502
880660
880822
880982
881140
881302
881458
881610
881760
881910
882064
882216
882370
882522
882672
882822
882970
883118
883264
883412
883558
883702
883846
883992
884140
884288
884436
884586
884736
884884
885032
885180
885332
885482
885636
885790
885944
886096
886248
886402
886554
886706
886858
887008
887158
887310
887460
887608
887756
887904
888052
888200
888346
888496
888648
888800
888952
889102
889254
889404
889554
889704
889854
890004
890154
890304
890454
890602
890756
890906
891056
891206
891352
891500
891648
891798
891954
892108
892260
892412
892566
892722
892878
893038
893194
893350
893504
893658
893812
893964
894120
894276
894434
894588
894742
894894
895046
895200
895354
895506
895658
895806
895956
896106
896258
896408
896558
896712
896864
897016
897170
897326
897484
897646
897808
897966
898128
898290
898448
898606
898764
898920
899076
899234
899390
899540
899690
899838
899988
900134
900282
900434
900582
900726
900870
901022
901172
901324
901484
901644
901804
901962
902116
902274
902432
902592
902750
902902
903058
903208
903362
903512
903664
903814
903968
904118
904268
904428
904592
904758
904926
905088
905250
905404
905562
905718
905874
906026
906180
906330
906482
906634
906784
906934
907084
907234
907388
907540
907690
907840
907988
908140
908290
908444
908598
908752
908906
909062
909214
909366
909516
909670
909826
909984
910140
910300
910458
910612
910772
910928
911084
911240
911396
911554
911710
911868
912022
912178
912334
912492
912650
912810
912972
913134
913294
913450
913608
913764
913918
914070
914220
914374
914526
914680
914834
914986
915134
915282
915428
915574
915720
915868
916014
916162
916310
916462
916608
916754
916896
917040
917184
917326
917468
917610
917754
917896
918038
918178
918318
918460
918602
918744
918888
919036
919180
919324
919466
919610
919754
919900
920042
920188
920334
920478
920624
920768
920912
921056
921198
921340
921482
921622
921762
921902
922042
922182
922324
922462
922602
922738
922876
923014
923152
923290
923424
923558
923692
923822
923954
924084
924214
924346
924476
924604
924734
924864
924992
925122
925250
925380
925510
925640
925770
925900
926030
926160
926294
926424
926556
926688
926818
926950
927080
927210
927340
927468
927598
927728
927858
927986
928116
928248
928380
928512
928642
928774
928908
929040
929172
929306
929442
929578
929714
929850
929988
930128
930268
930410
930552
930694
930836
930978
931120
931260
931402
931542
931678
931816
931954
932092
932228
932364
932500
932636
932770
932906
933038
933170
933302
933436
933572
933706
933842
933978
934112
934248
934386
934524
934662
934800
934938
935076
935214
935350
935486
935624
935760
935896
936032
936170
936308
936444
936582
936718
936854
936988
937124
937262
937398
937536
937676
937816
937958
938102
938244
938386
938524
938662
938798
938934
939068
939206
939344
939482
939620
939756
939892
940030
940168
940304
940440
940574
940710
940844
940978
941112
941246
941378
941512
941646
941782
941914
942050
942184
942318
942452
942586
942718
942854
942990
943126
943264
943398
943534
943672
943808
943944
944082
944218
944352
944484
944616
944746
944874
945004
945134
945266
945396
945528
945658
945794
945926
946060
946194
946328
946460
946592
946724
946858
946992
947126
947264
947402
947542
947678
947818
947962
948112
948262
948414
948566
948722
948880
949040
949200
949360
949520
949678
949838
950004
950170
950336
950502
950666
950828
950994
951168
951416
951618
951810
951996
952186
952376
952574
952766
952950
953134
953318
953502
953684
953866
954044
954222
954406
954598
954804
955006
955202
955398
955590
955780
955962
956140
956314
956490
956670
956852
957030
957204
957376
957552
957736
957928
958112
958294
958470
958644
958818
958994
959172
959354
959530
959702
959880
960062
960246
960426
960612
960800
960984
961164
961340
961512
961688
961860
962034
962208
962388
962576
962774
962968
963160
963354
963552
963756
963958
964152
964348
964550
964756
964968
965172
965368
965566
965774
965988
966198
966400
966600
966800
967004
967204
967396
967582
967776
967982
968194
968396
968584
968768
968950
969134
969320
969500
969682
969868
970066
970282
970496
970706
970908
971110
971312
971506
971698
971888
972082
972284
972490
972692
972896
973110
973318
973526
973736
973962
974182
974394
974596
974790
974980
975162
975346
975534
975732
975960
976176
976396
976590
976774
976962
977142
977308
977478
977640
977796
977952
978106
978262
978424
978592
978764
978934
979104
979288
979482
979684
979900
980108
980300
980494
980690
980892
981098
981304
981504
981704
981902
982106
982312
982518
982716
982908
983108
983312
983526
983750
983964
984168
984368
984568
984768
984966
985160
985350
985544
985742
985948
986150
986344
986544
986740
986942
987144
987336
987526
987712
987904
988102
988308
988516
988720
988918
989118
989322
989524
989724
989916
990112
990310
990512
990708
990898
991098
991294
991498
991704
991896
992080
992262
992448
992640
992844
993050
993262
993490
993724
993942
994148
994352
994540
994720
994902
995088
995272
995454
995638
995832
996038
996246
996454
996652
996848
997042
997234
997426
997610
997796
997986
998180
998374
998568
998754
998950
999146
999346
999546
999740
999930
1000124
1000306
1000488
1000676
1000868
1001054
1001242
1001432
1001628
1001822
1002016
1002212
1002402
1002596
1002790
1002980
1003170
1003364
1003562
1003762
1003958
1004154
1004354
1004556
1004756
1004952
1005148
1005346
1005546
1005744
1005942
1006140
1006342
1006550
1006750
1006950
1007154
1007360
1007564
1007766
1007968
1008176
1008376
1008570
1008760
1008950
1009144
1009342
1009540
1009740
1009942
1010140
1010336
1010530
1010726
1010916
1011106
1011294
1011486
1011676
1011866
1012050
1012226
1012400
1012572
1012740
1012906
1013076
1013258
1013450
1013658
1013864
1014062
1014262
1014462
1014660
1014858
1015050
1015240
1015432
1015630
1015824
1016018
1016206
1016394
1016586
1016778
1016976
1017168
1017364
1017562
1017766
1017968
1018164
1018356
1018550
1018748
1018940
1019128
1019308
1019486
1019666
1019854
1020048
1020244
1020440
1020638
1020844
1021054
1021266
1021470
1021664
1021858
1022048
1022238
1022418
1022594
1022770
1022948
1023134
1023322
1023510
1023694
1023882
1024070
1024256
1024438
1024616
1024796
1024974
1025150
1025330
1025516
1025704
1025892
1026076
1026264
1026450
1026642
1026834
1027024
1027212
1027402
1027590
1027782
1027974
1028160
1028348
1028536
1028722
1028908
1029090
1029266
1029444
1029632
1029828
1030036
1030248
1030452
1030658
1030864
1031072
1031274
1031470
1031666
1031860
1032054
1032248
1032438
1032626
1032818
1033014
1033210
1033404
1033596
1033788
1033982
1034176
1034372
1034564
1034748
1034934
1035124
1035312
1035494
1035668
1035838
1036002
1036162
1036322
1036484
1036654
1036824
1036998
1037168
1037334
1037494
1037652
1037804
1037952
1038098
1038244
1038390
1038534
1038674
1038818
1038962
1039110
1039256
1039404
1039556
1039710
1039866
1040024
1040180
1040340
1040500
1040670
1040846
1041032
1041222
1041416
1041610
1041800
1041984
1042172
1042356
1042544
1042736
1042936
1043134
1043326
1043512
1043702
1043892
1044084
1044280
1044476
1044662
1044842
1045022
1045204
1045388
1045576
1045766
1045956
1046148
1046336
1046530
1046720
1046916
1047112
1047304
1047488
1047666
1047846
1048030
1048218
1048414
1048624
1048838
1049044
1049248
1049448
1049650
1049844
1050034
1050222
1050414
1050604
1050800
1050996
1051190
1051382
1051572
1051762
1051948
1052136
1052324
1052514
1052704
1052898
1053088
1053280
1053472
1053666
1053854
1054036
1054212
1054382
1054548
1054716
1054878
1055040
1055202
1055366
1055532
1055698
1055862
1056022
1056184
1056340
1056496
1056658
1056822
1056988
1057154
1057330
1057510
1057692
1057882
1058070
1058248
1058424
1058602
1058782
1058964
1059150
1059328
1059504
1059690
1059880
1060082
1060288
1060486
1060676
1060864
1061054
1061246
1061440
1061630
1061812
1061994
1062174
1062346
1062522
1062700
1062882
1063062
1063246
1063432
1063616
1063800
1063986
1064162
1064330
1064494
1064658
1064818
1064976
1065132
1065290
1065446
1065600
1065754
1065904
1066060
1066212
1066364
1066516
1066670
1066822
1066972
1067122
1067270
1067414
1067558
1067700
1067842
1067986
1068128
1068270
1068412
1068558
1068700
1068842
1068984
1069132
1069280
1069438
1069598
1069762
1069930
1070096
1070264
1070436
1070616
1070798
1070988
1071178
1071366
1071550
1071726
1071896
1072066
1072242
1072424
1072608
1072796
1072972
1073144
1073312
1073480
1073654
1073832
1074002
1074172
1074338
1074502
1074662
1074820
1074980
1075140
1075300
1075464
1075632
1075808
1075980
1076150
1076326
1076504
1076678
1076848
1077016
1077186
1077366
1077554
1077746
1077940
1078132
1078326
1078510
1078684
1078856
1079032
1079216
1079406
1079602
1079804
1080006
1080198
1080378
1080558
1080744
1080928
1081110
1081290
1081468
1081646
1081838
1082040
1082246
1082462
1082668
1082858
1083038
1083212
1083384
1083554
1083722
1083896
1084068
1084256
1084450
1084648
1084856
1085066
1085272
1085466
1085652
1085836
1086020
1086198
1086372
1086546
1086720
1086900
1087086
1087272
1087452
1087630
1087816
1088006
1088206
1088412
1088616
1088820
1089022
1089216
1089412
1089604
1089796
1089974
1090146
1090322
1090492
1090668
1090842
1091008
1091174
1091336
1091504
1091674
1091844
1092022
1092212
1092416
1092626
1092846
1093064
1093276
1093480
1093672
1093854
1094038
1094226
1094422
1094624
1094830
1095018
1095202
1095388
1095576
1095766
1095958
1096152
1096332
1096504
1096672
1096840
1097004
1097174
1097364
1097566
1097780
1097988
1098180
1098374
1098562
1098756
1098954
1099150
1099346
1099538
1099734
1099926
1100128
1100326
1100518
1100710
1100898
1101090
1101270
1101442
1101612
1101778
1101946
1102114
1102284
1102448
1102612
1102770
1102932
1103096
1103258
1103422
1103592
1103766
1103952
1104140
1104326
1104504
1104680
1104862
1105044
1105226
1105406
1105582
1105758
1105938
1106126
1106320
1106520
1106722
1106920
1107112
1107304
1107496
1107688
1107872
1108050
1108228
1108408
1108596
1108788
1108984
1109182
1109366
1109550
1109738
1109930
1110124
1110320
1110506
1110690
1110872
1111058
1111246
1111440
1111632
1111822
1112008
1112200
1112382
1112558
1112728
1112892
1113052
1113216
1113382
1113552
1113720
1113884
1114050
1114208
1114366
1114522
1114680
1114850
1115028
1115220
1115414
1115606
1115794
1115992
1116192
1116394
1116598
1116796
1116996
1117198
1117394
1117574
1117750
1117924
1118100
1118272
1118442
1118610
1118776
1118938
1119100
1119266
1119436
1119606
1119780
1119954
1120132
1120308
1120488
1120662
1120834
1121012
1121194
1121386
1121574
1121764
1121956
1122148
1122332
1122512
1122692
1122878
1123060
1123242
1123422
1123604
1123790
1123984
1124174
1124362
1124552
1124742
1124914
1125088
1125262
1125442
1125624
1125812
1125998
1126174
1126342
1126506
1126666
1126828
1127000
1127178
1127366
1127560
1127770
1127964
1128160
1128358
1128552
1128744
1128932
1129112
1129298
1129494
1129698
1129908
1130114
1130318
1130510
1130700
1130892
1131082
1131268
1131448
1131628
1131812
1131996
1132184
1132372
1132554
1132734
1132918
1133102
1133286
1133464
1133642
1133814
1133986
1134156
1134322
1134490
1134660
1134830
1134998
1135164
1135334
1135508
1135688
1135872
1136054
1136232
1136406
1136580
1136754
1136932
1137110
1137286
1137458
1137634
1137812
1137992
1138178
1138358
1138536
1138716
1138898
1139084
1139274
1139466
1139648
1139832
1140018
1140206
1140392
1140574
1140756
1140940
1141130
1141320
1141508
1141704
1141894
1142078
1142252
1142420
1142586
1142748
1142908
1143072
1143232
1143388
1143540
1143686
1143834
1143982
1144126
1144270
1144412
1144554
1144696
1144838
1144980
1145120
1145264
1145414
1145566
1145724
1145884
1146046
1146208
1146370
1146532
1146694
1146858
1147026
1147194
1147366
1147536
1147704
1147872
1148036
1148202
1148374
1148544
1148716
1148886
1149056
1149224
1149394
1149564
1149738
1149912
1150086
1150264
1150440
1150616
1150802
1150992
1151184
1151374
1151560
1151750
1151936
1152120
1152298
1152470
1152640
1152810
1152980
1153150
1153318
1153488
1153652
1153816
1153978
1154140
1154296
1154454
1154610
1154766
1154922
1155074
1155226
1155378
1155528
1155676
1155824
1155968
1156114
1156260
1156406
1156552
1156700
1156850
1156998
1157144
1157292
1157438
1157586
1157736
1157886
1158038
1158190
1158346
1158500
1158652
1158762
1158924
1159068
1159210
1159352
1159494
1159636
1159778
1159918
1160060
1160204
1160344
1160482
1160620
1160760
1160900
1161036
1161174
1161312
1161450
1161590
1161726
1161864
1161998
1162136
1162272
1162410
1162548
1162684
1162820
1162956
1163094
1163228
1163364
1163504
1163638
1163774
1163908
1164042
1164176
1164308
1164440
1164572
1164702
1164832
1164964
1165094
1165226
1165360
1165492
1165622
1165754
1165886
1166018
1166148
1166278
1166410
1166542
1166674
1166804
1166936
1167068
1167200
1167332
1167468
1167602
1167734
1167866
1167998
1168132
1168266
1168398
1168530
1168664
1168796
1168930
1169062
1169196
1169330
1169464
1169596
1169730
1169860
1169992
1170122
1170252
1170380
1170510
1170640
1170768
1170898
1171024
1171150
1171278
1171404
1171530
1171656
1171780
1171904
1172030
1172152
1172276
1172400
1172520
1172642
1172764
1172886
1173006
1173126
1173248
1173368
1173490
1173608
1173728
1173848
1173966
1174084
1174204
1174322
1174442
1174564
1174684
1174808
1174932
1175056
1175180
1175308
1175432
1175558
1175684
1175810
1175938
1176068
1176194
1176322
1176450
1176578
1176704
1176832
1176958
1177084
1177210
1177336
1177460
1177584
1177708
1177830
1177950
1178072
1178192
1178314
1178434
1178554
1178676
1178796
1178916
1179038
1179160
1179284
1179406
1179530
1179654
1179778
1179900
1180024
1180146
1180266
1180388
1180510
1180630
1180752
1180874
1180998
1181122
1181250
1181380
1181510
1181642
1181772
1181904
1182034
1182160
1182288
1182414
1182540
1182666
1182792
1182918
1183044
1183166
1183290
1183414
1183534
1183656
1183778
1183898
1184020
1184138
1184258
1184378
1184500
1184622
1184742
1184866
1184988
1185110
1185236
1185358
1185482
1185604
1185726
1185848
1185968
1186090
1186212
1186334
1186456
1186580
1186704
1186826
1186948
1187072
1187194
1187318
1187440
1187562
1187684
1187806
1187930
1188054
1188178
1188302
1188426
1188552
1188676
1188800
1188926
1189054
1189182
1189308
1189436
1189564
1189690
1189818
1189944
1190070
1190196
1190324
1190450
1190576
1190704
1190832
1190960
1191088
1191216
1191342
1191470
1191596
1191722
1191846
1191970
1192094
1192218
1192340
1192464
1192586
1192708
1192830
1192952
1193076
1193200
1193324
1193448
1193574
1193700
1193828
1193954
1194084
1194210
1194336
1194462
1194588
1194714
1194840
1194966
1195092
1195218
1195344
1195466
1195590
1195712
1195834
1195956
1196076
1196196
1196318
1196438
1196560
1196682
1196804
1196930
1197054
1197182
1197308
1197436
1197562
1197690
1197814
1197940
1198068
1198192
1198316
1198442
1198566
1198690
1198814
1198940
1199066
1199194
1199320
1199446
1199572
1199698
1199820
1199944
1200066
1200188
1200310
1200434
1200556
1200682
1200810
1200938
1201066
1201192
1201320
1201448
1201574
1201702
1201832
1201958
1202086
1202214
1202340
1202468
1202594
1202722
1202846
1202974
1203102
1203226
1203352
1203478
1203602
1203728
1203850
1203974
1204096
1204216
1204340
1204462
1204584
1204706
1204830
1204954
1205078
1205202
1205324
1205448
1205572
1205694
1205818
1205942
1206064
1206190
1206318
1206444
1206568
1206692
1206818
1206942
1207072
1207202
1207348
1207508
1207684
1207866
1208042
1208208
1208370
1208520
1208664
1208814
1208966
1209120
1209266
1209414
1209564
1209710
1209858
1210006
1210154
1210298
1210440
1210582
1210724
1210864
1211002
1211140
1211276
1211416
1211554
1211690
1211824
1211956
1212088
1212222
1212354
1212482
1212612
1212740
1212870
1212998
1213128
1213260
1213392
1213528
1213662
1213798
1213930
1214064
1214198
1214332
1214464
1214596
1214728
1214862
1214994
1215126
1215258
1215388
1215520
1215650
1215778
1215908
1216036
1216168
1216298
1216428
1216558
1216688
1216816
1216944
1217072
1217202
1217332
1217462
1217588
1217716
1217844
1217968
1218092
1218216
1218338
1218462
1218586
1218708
1218832
1218956
1219078
1219200
1219320
1219442
1219564
1219682
1219802
1219920
1220040
1220158
1220278
1220400
1220522
1220644
1220768
1220894
1221020
1221146
1221274
1221400
1221524
1221646
1221770
1221890
1222012
1222132
1222252
1222372
1222492
1222612
1222732
1222850
1222972
1223090
1223208
1223326
1223444
1223562
1223678
1223794
1223910
1224026
1224142
1224260
1224378
1224496
1224616
1224736
1224856
1224974
1225092
1225208
1225326
1225444
1225560
1225674
1225792
1225908
1226022
1226138
1226254
1226372
1226488
1226604
1226722
1226840
1226958
1227076
1227194
1227312
1227432
1227552
1227670
1227788
1227906
1228026
1228144
1228262
1228380
1228498
1228616
1228734
1228850
1228966
1229082
1229200
1229314
1229430
1229546
1229660
1229776
1229892
1230008
1230124
1230242
1230360
1230478
1230598
1230718
1230840
1230962
1231084
1231206
1231328
1231452
1231574
1231696
1231818
1231940
1232062
1232184
1232308
1232430
1232554
1232676
1232798
1232920
1233040
1233162
1233284
1233406
1233528
1233650
1233772
1233896
1234020
1234144
1234266
1234390
1234512
1234634
1234754
1234874
1234994
1235112
1235228
1235346
1235464
1235578
1235696
1235810
1235928
1236044
1236160
1236278
1236394
1236512
1236628
1236744
1236862
1236980
1237098
1237218
1237336
1237454
1237572
1237694
1237814
1237936
1238058
1238180
1238302
1238422
1238544
1238668
1238790
1238910
1239032
1239152
1239272
1239394
1239512
1239634
1239752
1239874
1239996
1240118
1240240
1240362
1240486
1240610
1240734
1240858
1240982
1241106
1241230
1241352
1241472
1241592
1241714
1241834
1241954
1242074
1242194
1242312
1242434
1242556
1242678
1242800
1242922
1243044
1243166
1243288
1243408
1243532
1243652
1243774
1243896
1244018
1244140
1244262
1244384
1244508
1244630
1244752
1244872
1244994
1245116
1245238
1245360
1245482
1245604
1245726
1245848
1245970
1246096
1246224
1246354
1246486
1246616
1246746
1246874
1247000
1247126
1247254
1247378
1247504
1247630
1247754
1247878
1248000
1248120
1248242
1248364
1248486
1248608
1248728
1248848
1248968
1249088
1249206
1249326
1249444
1249564
1249684
1249804
1249926
1250048
1250172
1250294
1250418
1250540
1250666
1250790
1250914
1251040
1251166
1251292
1251418
1251542
1251670
1251796
1251920
1252044
1252166
1252292
1252414
1252536
1252658
1252778
1252900
1253022
1253144
1253266
1253388
1253510
1253630
1253752
1253872
1253994
1254114
1254234
1254356
1254478
1254600
1254722
1254844
1254966
1255086
1255206
1255326
1255446
1255564
1255686
1255806
1255926
1256050
1256172
1256294
1256416
1256538
1256660
1256782
1256902
1257022
1257142
1257262
1257380
1257498
1257618
1257736
1257852
1257970
1258086
1258202
1258320
1258436
1258554
1258670
1258784
1258898
1259014
1259132
1259254
1259380
1259510
1259640
1259770
1259896
1260022
1260148
1260272
1260396
1260518
1260638
1260758
1260878
1260998
1261118
1261238
1261358
1261478
1261598
1261718
1261836
1261958
1262078
1262198
1262318
1262438
1262558
1262676
1262796
1262912
1263030
1263148
1263264
1263380
1263496
1263610
1263726
1263840
1263956
1264070
1264186
1264300
1264414
1264528
1264640
1264754
1264868
1264982
1265096
1265212
1265326
1265440
1265554
1265668
1265782
1265898
1266012
1266128
1266242
1266358
1266474
1266588
1266706
1266822
1266936
1267052
1267166
1267280
1267394
1267512
1267628
1267744
1267860
1267976
1268092
1268212
1268332
1268450
1268570
1268692
1268814
1268938
1269064
1269186
1269310
1269432
1269554
1269674
1269794
1269914
1270034
1270152
1270270
1270388
1270506
1270622
1270740
1270856
1270972
1271090
1271208
1271324
1271442
1271560
1271676
1271794
1271912
1272030
1272148
1272268
1272386
1272506
1272624
1272744
1272864
1272984
1273102
1273224
1273342
1273460
1273578
1273696
1273814
1273932
1274050
1274170
1274288
1274408
1274526
1274646
1274766
1274886
1275008
1275128
1275248
1275370
1275490
1275610
1275728
1275846
1275966
1276086
1276204
1276320
1276438
1276554
1276672
1276788
1276904
1277020
1277136
1277252
1277366
1277482
1277596
1277710
1277826
1277940
1278056
1278174
1278290
1278406
1278522
1278640
1278756
1278874
1278992
1279108
1279226
1279344
1279462
1279580
1279700
1279818
1279936
1280054
1280172
1280288
1280404
1280520
1280636
1280752
1280868
1280982
1281096
1281212
1281326
1281442
1281558
1281674
1281790
1281904
1282020
1282138
1282254
1282370
1282486
1282602
1282718
1282832
1282948
1283064
1283178
1283294
1283410
1283526
1283644
1283762
1283880
1284000
1284120
1284240
1284358
1284476
1284594
1284712
1284830
1284948
1285064
1285184
1285304
1285422
1285542
1285662
1285782
1285902
1286024
1286144
1286264
1286382
1286500
1286618
1286736
1286854
1286970
1287088
1287206
1287322
1287440
1287556
1287670
1287786
1287902
1288016
1288130
1288244
1288358
1288472
1288588
1288706
1288828
1288950
1289072
1289196
1289316
1289438
1289558
1289680
1289802
1289922
1290044
1290158
1290284
1290406
1290526
1290648
1290772
1290894
1291016
1291138
1291260
1291380
1291502
1291622
1291744
1291866
1291988
1292108
1292230
1292350
1292470
1292592
1292712
1292834
1292952
1293072
1293192
1293310
1293428
1293544
1293662
1293780
1293896
1294012
1294130
1294244
1294360
1294476
1294590
1294706
1294820
1294934
1295046
1295160
1295272
1295386
1295500
1295614
1295730
1295848
1295966
1296082
1296200
1296318
1296436
1296554
1296672
1296788
1296904
1297022
1297142
1297260
1297376
1297494
1297614
1297732
1297852
1297970
1298088
1298204
1298322
1298440
1298556
1298674
1298788
1298904
1299020
1299134
1299250
1299364
1299476
1299590
1299706
1299818
1299934
1300052
1300159
1300266
1300376
1300490
1300598
1300708
1300818
1300928
1301036
1301146
1301256
1301364
1301474
1301584
1301692
1301802
1301912
1302020
1302130
1302236
1302346
1302452
1302562
1302670
1302778
1302886
1302994
1303100
1303206
1303314
1303418
1303524
1303632
1303740
1303846
1303952
1304060
1304166
1304270
1304374
1304480
1304584
1304688
1304792
1304896
1304998
1305100
1305204
1305306
1305408
1305512
1305614
1305718
1305820
1305924
1306026
1306128
1306230
1306334
1306436
1306540
1306642
1306742
1306846
1306946
1307048
1307150
1307252
1307356
1307458
1307560
1307664
1307768
1307872
1307974
1308078
1308180
1308282
1308388
1308492
1308594
1308696
1308800
1308904
1309008
1309112
1309216
1309318
1309422
1309526
1309630
1309734
1309838
1309944
1310050
1310152
1310256
1310360
1310464
1310568
1310672
1310776
1310878
1310984
1311084
1311188
1311290
1311394
1311498
1311600
1311704
1311808
1311910
1312012
1312116
1312218
1312318
1312422
1312524
1312628
1312732
1312836
1312942
1313046
1313152
1313258
1313364
1313470
1313574
1313680
1313786
1313892
1313996
1314100
1314204
1314310
1314414
1314520
1314624
1314730
1314834
1314938
1315042
1315146
1315250
1315354
1315460
1315564
1315672
1315778
1315882
1315986
1316088
1316194
1316298
1316402
1316508
1316612
1316714
1316818
1316922
1317026
1317130
1317232
1317340
1317446
1317552
1317660
1317764
1317870
1317974
1318078
1318184
1318288
1318394
1318496
1318602
1318706
1318810
1318916
1319022
1319130
1319236
1319344
1319450
1319556
1319664
1319768
1319874
1319980
1320086
1320192
1320296
1320400
1320504
1320610
1320714
1320818
1320924
1321032
1321136
1321242
1321348
1321454
1321560
1321668
1321774
1321880
1321988
1322096
1322204
1322312
1322420
1322526
1322632
1322738
1322846
1322952
1323060
1323168
1323274
1323380
1323490
1323598
1323708
1323816
1323924
1324032
1324138
1324246
1324354
1324462
1324570
1324680
1324790
1324898
1325008
1325116
1325222
1325334
1325444
1325554
1325664
1325772
1325882
1325990
1326100
1326208
1326316
1326424
1326532
1326640
1326744
1326852
1326956
1327062
1327168
1327274
1327380
1327486
1327592
1327698
1327802
1327906
1328010
1328114
1328218
1328320
1328422
1328526
1328628
1328730
1328832
1328930
1329032
1329132
1329234
1329334
1329436
1329536
1329636
1329736
1329838
1329936
1330036
1330134
1330234
1330332
1330432
1330532
1330632
1330726
1330824
1330924
1331022
1331124
1331220
1331318
1331418
1331518
1331618
1331718
1331816
1331918
1332014
1332114
1332212
1332312
1332410
1332510
1332608
1332706
1332804
1332902
1333000
1333098
1333196
1333294
1333394
1333492
1333590
1333690
1333788
1333886
1333984
1334082
1334180
1334278
1334376
1334476
1334576
1334674
1334774
1334874
1334976
1335078
1335178
1335282
1335384
1335488
1335590
1335694
1335798
1335902
1336006
1336110
1336214
1336316
1336418
1336522
1336624
1336726
1336830
1336932
1337034
1337138
1337240
1337342
1337446
1337548
1337650
1337752
1337854
1337956
1338058
1338160
1338258
1338358
1338458
1338558
1338658
1338756
1338856
1338956
1339058
1339162
1339258
1339358
1339460
1339562
1339662
1339762
1339860
1339960
1340060
1340160
1340260
1340358
1340458
1340558
1340656
1340758
1340860
1340960
1341062
1341164
1341266
1341370
1341472
1341576
1341680
1341782
1341886
1341990
1342092
1342194
1342298
1342402
1342504
1342606
1342710
1342812
1342918
1343022
1343124
1343228
1343330
1343434
1343536
1343638
1343738
1343840
1343942
1344042
1344132
1344242
1344342
1344438
1344540
1344638
1344738
1344834
1344932
1345030
1345128
1345226
1345324
1345420
1345516
1345614
1345710
1345806
1345902
1345998
1346096
1346190
1346286
1346382
1346478
1346576
1346670
1346768
1346864
1346964
1347064
1347162
1347254
1347350
1347448
1347546
1347642
1347738
1347836
1347934
1348030
1348128
1348224
1348322
1348418
1348516
1348614
1348712
1348810
1348908
1349012
1349104
1349204
1349304
1349402
1349502
1349600
1349700
1349800
1349898
1349998
1350098
1350198
1350296
1350394
1350496
1350592
1350692
1350792
1350890
1350988
1351086
1351186
1351286
1351386
1351484
1351582
1351680
1351778
1351876
1351974
1352072
1352168
1352266
1352364
1352462
1352560
1352658
1352756
1352854
1352952
1353052
1353152
1353250
1353348
1353448
1353546
1353644
1353742
1353842
1353940
1354038
1354136
1354234
1354332
1354430
1354528
1354628
1354726
1354824
1354924
1355022
1355122
1355222
1355320
1355420
1355518
1355616
1355714
1355814
1355912
1356010
1356108
1356206
1356304
1356400
1356498
1356594
1356690
1356788
1356884
1356980
1357078
1357176
1357274
1357372
1357470
1357566
1357664
1357760
1357858
1357954
1358052
1358148
1358246
1358344
1358440
1358538
1358634
1358732
1358830
1358926
1359024
1359122
1359220
1359322
1359416
1359512
1359608
1359708
1359806
1359908
1360000
1360100
1360194
1360296
1360393
1360489
1360590
1360688
1360786
1360892
1360988
1361092
1361192
1361292
1361394
1361494
1361599
1361694
1361796
1361898
1361998
1362098
1362198
1362294
1362396
1362502
1362602
1362706
1362808
1362910
1363012
1363116
1363220
1363320
1363429
1363524
1363626
1363730
1363832
1363934
1364034
1364138
1364238
1364342
1364444
1364546
1364648
1364751
1364854
1364958
1365060
1365162
1365268
1365375
1365474
1365583
1365682
1365784
1365886
1365990
1366090
1366198
1366302
1366408
1366512
1366616
1366722
1366826
1366932
1367040
1367146
1367246
1367350
1367454
1367558
1367660
1367764
1367868
1367970
1368074
1368178
1368280
1368382
1368486
1368588
1368690
1368794
1368898
1369002
1369108
1369206
1369308
1369410
1369510
1369612
1369712
1369814
1369914
1370016
1370116
1370220
1370316
1370418
1370520
1370620
1370724
1370828
1370924
1371030
1371132
1371234
1371334
1371436
1371538
1371640
1371744
1371846
1371946
1372046
1372144
1372246
1372348
1372450
1372552
1372656
1372758
1372864
1372970
1373078
1373186
1373294
1373402
1373510
1373618
1373728
1373838
1373950
1374060
1374168
1374280
1374392
1374508
1374624
1374738
1374856
1374974
1375094
1375216
1375340
1375464
1375590
1375714
1375836
1375958
1376076
1376194
1376316
1376436
1376554
1376672
1376792
1376912
1377034
1377156
1377274
1377394
1377514
1377634
1377758
1377884
1378008
1378132
1378256
1378380
1378504
1378630
1378756
1378886
1379014
1379140
1379268
1379398
1379532
1379670
1379804
1379936
1380068
1380200
1380334
1380468
1380598
1380726
1380856
1380988
1381120
1381254
1381388
1381518
1381648
1381780
1381916
1382054
1382198
1382340
1382482
1382626
1382770
1382914
1383056
1383192
1383328
1383466
1383604
1383744
1383886
1384024
1384162
1384296
1384430
1384566
1384700
1384836
1384968
1385100
1385230
1385362
1385494
1385628
1385758
1385892
1386022
1386150
1386278
1386408
1386538
1386674
1386812
1386948
1387082
1387218
1387354
1387490
1387626
1387758
1387888
1388020
1388152
1388286
1388422
1388556
1388690
1388826
1388962
1389094
1389230
1389366
1389506
1389648
1389790
1389932
1390070
1390212
1390356
1390506
1390662
1390820
1390974
1391126
1391276
1391426
1391580
1391734
1391884
1392032
1392180
1392326
1392476
1392628
1392780
1392932
1393078
1393224
1393370
1393516
1393670
1393832
1393988
1394142
1394294
1394452
1394616
1394788
1394952
1395112
1395270
1395430
1395596
1395760
1395920
1396076
1396232
1396390
1396550
1396720
1396888
1397050
1397214
1397384
1397564
1397746
1397920
1398092
1398266
1398448
1398628
1398794
1398952
1399106
1399262
1399420
1399586
1399752
1399918
1400080
1400248
1400420
1400598
1400772
1400938
1401106
1401276
1401450
1401626
1401794
1401952
1402110
1402270
1402434
1402602
1402768
1402942
1403108
1403272
1403432
1403592
1403754
1403920
1404086
1404248
1404410
1404580
1404762
1404946
1405128
1405306
1405484
1405654
1405818
1405982
1406148
1406316
1406482
1406652
1406816
1406988
1407168
1407398
1407628
1407820
1408006
1408192
1408380
1408574
1408758
1408936
1409118
1409308
1409514
1409730
1409926
1410110
1410294
1410480
1410666
1410850
1411030
1411212
1411400
1411592
1411776
1411952
1412130
1412312
1412504
1412688
1412872
1413056
1413240
1413426
1413608
1413782
1413954
1414126
1414300
1414476
1414654
1414830
1415000
1415176
1415356
1415540
1415720
1415900
1416082
1416266
1416448
1416620
1416782
1416946
1417112
1417280
1417444
1417608
1417776
1417944
1418114
1418290
1418476
1418670
1418856
1419036
1419214
1419392
1419572
1419754
1419930
1420104
1420280
1420462
1420652
1420840
1421022
1421206
1421396
1421586
1421768
1421946
1422124
1422304
1422488
1422668
1422846
1423030
1423224
1423436
1423638
1423824
1424012
1424196
1424386
1424568
1424746
1424924
1425108
1425294
1425486
1425674
1425860
1426050
1426240
1426428
1426608
1426784
1426964
1427152
1427338
1427520
1427700
1427884
1428074
1428274
1428468
1428656
1428850
1429046
1429234
1429416
1429596
1429778
1429970
1430160
1430348
1430538
1430734
1430940
1431138
1431328
1431516
1431708
1431902
1432096
1432288
1432478
1432670
1432866
1433052
1433234
1433416
1433602
1433782
1433962
1434142
1434326
1434504
1434678
1434858
1435044
1435226
1435406
1435586
1435768
1435952
1436134
1436312
1436488
1436664
1436846
1437028
1437210
1437388
1437572
1437760
1437950
1438138
1438322
1438508
1438696
1438880
1439060
1439234
1439410
1439592
1439770
1439946
1440124
1440304
1440482
1440656
1440830
1441004
1441172
1441332
1441486
1441642
1441796
1441952
1442110
1442274
1442436
1442596
1442754
1442914
1443070
1443226
1443382
1443540
1443698
1443860
1444018
1444184
1444350
1444518
1444690
1444860
1445030
1445200
1445372
1445544
1445720
1445890
1446056
1446220
1446378
1446534
1446690
1446846
1447006
1447170
1447338
1447512
1447686
1447862
1448032
1448198
1448362
1448522
1448686
1448854
1449026
1449204
1449388
1449566
1449740
1449914
1450086
1450260
1450432
1450600
1450766
1450934
1451102
1451276
1451452
1451628
1451808
1451992
1452174
1452350
1452520
1452690
1452860
1453028
1453194
1453360
1453528
1453700
1453882
1454070
1454260
1454448
1454644
1454842
1455042
1455236
1455428
1455606
1455778
1455946
1456116
1456284
1456458
1456630
1456800
1456974
1457152
1457330
1457510
1457684
1457864
1458046
1458228
1458408
1458582
1458756
1458934
1459114
1459290
1459464
1459642
1459826
1460012
1460192
1460368
1460544
1460720
1460902
1461076
1461250
1461422
1461596
1461768
1461940
1462108
1462278
1462450
1462628
1462808
1462988
1463170
1463356
1463538
1463714
1463890
1464064
1464238
1464410
1464578
1464744
1464912
1465086
1465264
1465438
1465616
1465796
1465982
1466160
1466334
1466508
1466690
1466878
1467070
1467254
1467444
1467636
1467832
1468018
1468196
1468374
1468552
1468732
1468902
1469068
1469232
1469394
1469554
1469720
1469888
1470062
1470234
1470404
1470574
1470748
1470924
1471100
1471272
1471440
1471606
1471776
1471950
1472122
1472292
1472464
1472638
1472814
1472986
1473156
1473328
1473502
1473674
1473848
1474014
1474182
1474352
1474526
1474698
1474870
1475040
1475210
1475380
1475554
1475728
1475900
1476074
1476252
1476430
1476606
1476780
1476950
1477122
1477292
1477466
1477638
1477808
1477978
1478154
1478336
1478520
1478702
1478888
1479072
1479250
1479420
1479590
1479758
1479922
1480082
1480240
1480398
1480556
1480714
1480874
1481040
1481214
1481390
1481568
1481748
1481930
1482110
1482294
1482470
1482646
1482822
1483000
1483182
1483364
1483546
1483734
1483918
1484104
1484284
1484462
1484638
1484814
1484988
1485158
1485326
1485498
1485672
1485850
1486030
1486212
1486394
1486578
1486758
1486936
1487110
1487282
1487454
1487624
1487794
1487964
1488138
1488316
1488496
1488674
1488854
1489030
1489208
1489382
1489558
1489738
1489920
1490096
1490270
1490442
1490610
1490780
1490950
1491120
1491284
1491450
1491616
1491784
1491948
1492112
1492274
1492440
1492614
1492788
1492964
1493132
1493298
1493458
1493616
1493770
1493924
1494076
1494230
1494390
1494554
1494726
1494896
1495070
1495246
1495428
1495616
1495810
1496002
1496190
1496374
1496556
1496734
1496912
1497088
1497262
1497436
1497614
1497794
1497974
1498156
1498340
1498532
1498722
1498914
1499096
1499270
1499442
1499614
1499786
1499964
1500140
1500316
1500488
1500664
1500842
1501020
1501194
1501366
1501542
1501714
1501886
1502054
1502220
1502384
1502552
1502724
1502898
1503066
1503236
1503410
1503592
1503778
1503960
1504136
1504310
1504484
1504662
1504838
1505014
1505188
1505364
1505542
1505720
1505894
1506066
1506234
1506406
1506576
1506742
1506908
1507072
1507232
1507392
1507550
1507710
1507866
1508026
1508186
1508354
1508524
1508696
1508866
1509032
1509200
1509370
1509544
1509716
1509886
1510050
1510214
1510378
1510542
1510712
1510884
1511060
1511236
1511422
1511612
1511806
1511998
1512186
1512372
1512556
1512730
1512902
1513072
1513244
1513424
1513604
1513784
1513964
1514148
1514338
1514530
1514720
1514902
1515084
1515262
1515442
1515616
1515788
1515958
1516130
1516304
1516478
1516650
1516818
1516986
1517154
1517330
1517504
1517676
1517844
1518012
1518178
1518346
1518518
1518686
1518852
1519016
1519182
1519348
1519514
1519678
1519842
1520006
1520170
1520342
1520518
1520694
1520864
1521032
1521202
1521374
1521548
1521720
1521890
1522056
1522222
1522390
1522560
1522730
1522900
1523066
1523236
1523404
1523574
1523744
1523914
1524076
1524236
1524390
1524542
1524696
1524856
1525022
1525188
1525354
1525518
1525682
1525848
1526018
1526184
1526348
1526508
1526670
1526834
1527002
1527174
1527346
1527514
1527680
1527846
1528012
1528180
1528350
1528520
1528688
1528858
1529032
1529210
1529394
1529576
1529752
1529924
1530094
1530264
1530428
1530590
1530752
1530912
1531074
1531230
1531386
1531538
1531688
1531840
1531992
1532150
1532314
1532484
1532654
1532830
1533010
1533194
1533380
1533570
1533758
1533946
1534134
1534318
1534502
1534688
1534878
1535066
1535254
1535442
1535630
1535820
1536004
1536188
1536370
1536554
1536736
1536922
1537112
1537296
1537480
1537662
1537844
1538028
1538214
1538388
1538560
1538728
1538894
1539060
1539228
1539398
1539572
1539744
1539912
1540080
1540248
1540420
1540594
1540766
1540936
1541102
1541266
1541428
1541590
1541758
1541930
1542106
1542280
1542452
1542624
1542796
1542968
1543142
1543314
1543484
1543652
1543820
1543988
1544154
1544320
1544484
1544646
1544808
1544974
1545142
1545308
1545474
1545642
1545812
1545982
1546158
1546332
1546504
1546676
1546848
1547022
1547192
1547358
1547524
1547690
1547856
1548024
1548192
1548358
1548522
1548690
1548860
1549032
1549198
1549364
1549530
1549696
1549862
1550028
1550192
1550354
1550518
1550684
1550854
1551022
1551192
1551364
1551536
1551710
1551880
1552048
1552212
1552376
1552538
1552700
1552864
1553032
1553208
1553384
1553558
1553732
1553910
1554090
1554272
1554448
1554622
1554798
1554976
1555152
1555326
1555494
1555660
1555828
1555998
1556172
1556342
1556510
1556678
1556850
1557028
1557210
1557392
1557572
1557742
1557914
1558084
1558260
1558430
1558600
1558768
1558940
1559112
1559288
1559462
1559632
1559800
1559968
1560136
1560306
1560482
1560656
1560826
1560994
1561164
1561334
1561506
1561680
1561850
1562018
1562190
1562364
1562540
1562714
1562886
1563056
1563228
1563402
1563578
1563752
1563920
1564090
1564258
1564430
1564604
1564776
1564944
1565108
1565274
1565440
1565606
1565772
1565934
1566100
1566266
1566434
1566602
1566772
1566936
1567100
1567264
1567430
1567594
1567758
1567922
1568084
1568250
1568420
1568592
1568766
1568938
1569112
1569286
1569458
1569630
1569802
1569972
1570148
1570324
1570498
1570672
1570846
1571018
1571192
1571362
1571530
1571694
1571858
1572028
1572202
1572380
1572562
1572746
1572934
1573122
1573306
1573484
1573660
1573838
1574018
1574194
1574368
1574544
1574722
1574896
1575066
1575234
1575404
1575574
1575746
1575918
1576088
1576256
1576426
1576598
1576768
1576936
1577104
1577278
1577462
1577644
1577826
1578002
1578182
1578362
1578540
1578714
1578882
1579050
1579216
1579380
1579546
1579714
1579880
1580048
1580220
1580396
1580568
1580740
1580910
1581082
1581260
1581438
1581618
1581794
1581970
1582146
1582326
1582504
1582680
1582854
1583026
1583202
1583374
1583538
1583702
1583868
1584032
1584194
1584358
1584526
1584698
1584864
1585028
1585186
1585344
1585498
1585652
1585806
1585968
1586134
1586302
1586476
1586650
1586820
1586990
1587162
1587338
1587520
1587698
1587870
1588038
1588204
1588374
1588542
1588704
1588868
1589032
1589202
1589376
1589556
1589740
1589930
1590118
1590302
1590488
1590668
1590838
1591006
1591170
1591332
1591494
1591662
1591842
1592028
1592214
1592390
1592562
1592730
1592898
1593068
1593234
1593398
1593558
1593718
1593882
1594048
1594222
1594398
1594570
1594740
1594910
1595080
1595254
1595428
1595596
1595760
1595926
1596094
1596262
1596434
1596602
1596766
1596932
1597102
1597276
1597450
1597618
1597788
1597960
1598136
1598316
1598492
1598662
1598834
1599006
1599184
1599362
1599534
1599704
1599876
1600048
1600224
1600396
1600568
1600740
1600918
1601092
1601264
1601430
1601598
1601766
1601934
1602100
1602264
1602424
1602586
1602748
1602918
1603084
1603250
1603420
1603592
1603764
1603932
1604098
1604264
1604432
1604598
1604764
1604926
1605086
1605248
1605412
1605578
1605742
1605906
1606072
1606246
1606420
1606592
1606760
1606928
1607096
1607266
1607436
1607600
1607762
1607924
1608086
1608248
1608406
1608564
1608722
1608884
1609050
1609214
1609378
1609546
1609718
1609890
1610060
1610228
1610396
1610564
1610730
1610894
1611058
1611222
1611388
1611552
1611712
1611872
1612034
1612198
1612362
1612526
1612686
1612848
1613012
1613178
1613346
1613518
1613690
1613854
1614016
1614172
1614326
1614476
1614624
1614770
1614916
1615062
1615208
1615354
1615500
1615646
1615788
1615930
1616074
1616216
1616356
1616498
1616644
1616794
1616956
1617124
1617298
1617466
1617638
1617814
1618000
1618194
1618386
1618568
1618744
1618918
1619090
1619266
1619444
1619618
1619786
1619952
1620122
1620296
1620478
1620666
1620852
1621034
1621216
1621404
1621598
1621788
1621974
1622164
1622360
1622552
1622734
1622912
1623086
1623262
1623430
1623594
1623754
1623912
1624072
1624238
1624410
1624586
1624760
1624934
1625118
1625308
1625498
1625680
1625858
1626036
1626216
1626390
1626562
1626728
1626896
1627070
1627256
1627450
1627636
1627818
1628004
1628192
1628380
1628562
1628736
1628912
1629090
1629270
1629452
1629628
1629804
1629984
1630168
1630346
1630524
1630702
1630882
1631060
1631234
1631404
1631568
1631736
1631904
1632076
1632244
1632408
1632578
1632750
1632926
1633100
1633270
1633436
1633602
1633770
1633938
1634104
1634264
1634426
1634588
1634752
1634920
1635082
1635244
1635408
1635576
1635744
1635914
1636080
1636244
1636410
1636576
1636744
1636906
1637066
1637226
1637386
1637548
1637708
1637866
1638028
1638192
1638356
1638518
1638680
1638844
1639008
1639170
1639328
1639486
1639646
1639808
1639974
1640140
1640302
1640464
1640626
1640792
1640960
1641128
1641294
1641458
1641624
1641792
1641964
1642136
1642304
1642472
1642634
1642796
1642956
1643116
1643276
1643434
1643592
1643750
1643910
1644072
1644236
1644396
1644552
1644706
1644860
1645010
1645162
1645314
1645470
1645624
1645780
1645934
1646086
1646238
1646388
1646532
1646680
1646826
1646970
1647114
1647260
1647404
1647550
1647696
1647842
1647988
1648132
1648276
1648418
1648560
1648700
1648842
1648986
1649132
1649282
1649436
1649594
1649754
1649918
1650088
1650262
1650444
1650626
1650802
1650972
1651134
1651292
1651448
1651606
1651764
1651924
1652086
1652250
1652416
1652582
1652744
1652908
1653078
1653250
1653424
1653594
1653760
1653928
1654090
1654252
1654410
1654566
1654718
1654866
1655014
1655160
1655308
1655454
1655604
1655760
1655914
1656068
1656222
1656374
1656526
1656674
1656826
1656972
1657122
1657272
1657424
1657574
1657726
1657876
1658022
1658170
1658318
1658464
1658612
1658764
1658926
1659098
1659288
1659494
1659708
1659912
1660094
1660270
1660446
1660622
1660802
1660976
1661146
1661312
1661484
1661660
1661846
1662036
1662226
1662404
1662576
1662750
1662928
1663110
1663296
1663476
1663652
1663822
1663996
1664174
1664358
1664546
1664730
1664906
1665080
1665254
1665434
1665616
1665798
1665976
1666146
1666316
1666488
1666662
1666836
1667010
1667180
1667346
1667520
1667696
1667880
1668060
1668236
1668408
1668588
1668766
1668952
1669128
1669298
1669466
1669634
1669804
1669980
1670162
1670342
1670516
1670694
1670876
1671062
1671244
1671420
1671592
1671762
1671932
1672104
1672278
1672448
1672616
1672782
1672952
1673128
1673304
1673480
1673656
1673830
1674008
1674192
1674376
1674560
1674734
1674902
1675070
1675242
1675422
1675610
1675794
1675976
1676152
1676336
1676526
1676724
1676920
1677108
1677294
1677488
1677680
1677868
1678050
1678228
1678408
1678592
1678780
1678962
1679140
1679320
1679506
1679696
1679882
1680060
1680236
1680414
1680596
1680780
1680958
1681132
1681306
1681484
1681666
1681850
1682032
1682210
1682390
1682572
1682758
1682940
1683124
1683310
1683484
1683648
1683808
1683972
1684148
1684326
1684502
1684678
1684856
1685034
1685208
1685378
1685550
1685722
1685902
1686076
1686252
1686432
1686612
1686794
1686970
1687148
1687332
1687516
1687700
1687880
1688056
1688240
1688422
1688604
1688784
1688954
1689120
1689280
1689438
1689594
1689752
1689908
1690066
1690224
1690380
1690534
1690690
1690846
1691004
1691166
1691330
1691494
1691654
1691818
1691984
1692154
1692328
1692506
1692684
1692862
1693042
1693224
1693402
1693580
1693752
1693920
1694086
1694254
1694428
1694608
1694794
1694974
1695154
1695334
1695516
1695698
1695878
1696054
1696228
1696398
1696570
1696746
1696926
1697114
1697298
1697480
1697660
1697846
1698032
1698218
1698398
1698574
1698750
1698926
1699106
1699290
1699468
1699642
1699818
1699992
1700170
1700352
1700530
1700708
1700886
1701058
1701226
1701394
1701562
1701732
1701904
1702074
1702246
1702424
1702600
1702774
1702946
1703124
1703308
1703494
1703680
1703860
1704040
1704222
1704410
1704598
1704786
1704966
1705146
1705330
1705516
1705708
1705902
1706084
1706264
1706446
1706634
1706822
1707016
1707202
1707388
1707578
1707766
1707950
1708130
1708308
1708494
1708684
1708872
1709060
1709250
1709444
1709640
1709836
1710024
1710218
1710416
1710616
1710810
1710998
1711184
1711376
1711568
1711760
1711946
1712130
1712310
1712494
1712678
1712860
1713038
1713212
1713386
1713560
1713738
1713912
1714082
1714250
1714422
1714600
1714784
1714970
1715150
1715324
1715502
1715682
1715864
1716042
1716218
1716390
1716572
1716762
1716948
1717132
1717306
1717478
1717658
1717824
1717980
1718136
1718284
1718434
1718584
1718732
1718876
1719022
1719168
1719310
1719454
1719596
1719734
1719872
1720008
1720144
1720280
1720412
1720546
1720676
1720804
1720934
1721064
1721190
1721316
1721440
1721562
1721684
1721806
1721926
1722048
1722168
1722288
1722406
1722522
1722638
1722756
1722874
1722994
1723110
1723226
1723342
1723458
1723576
1723692
1723808
1723924
1724040
1724156
1724272
1724386
1724502
1724618
1724736
1724852
1724968
1725086
1725204
1725320
1725438
1725558
1725676
1725796
1725912
1726030
1726148
1726266
1726384
1726502
1726618
1726736
1726856
1726972
1727090
1727206
1727320
1727436
1727552
1727666
1727780
1727894
1728006
1728118
1728232
1728342
1728454
1728566
1728678
1728794
1728916
1729046
1729186
1729334
1729496
1729674
1729868
1730076
1730284
1730490
1730710
1730932
1731146
1731330
1731508
1731688
1731872
1732052
1732220
1732380
1732534
1732690
1732846
1733002
1733152
1733300
1733446
1733594
1733750
1733918
1734082
1734230
1734376
1734518
1734664
1734812
1734964
1735114
1735260
1735406
1735558
1735712
1735870
1736030
1736178
1736320
1736462
1736600
1736740
1736878
1737012
1737144
1737276
1737406
1737534
1737662
1737788
1737914
1738038
1738160
1738284
1738406
1738526
1738650
1738772
1738894
1739016
1739136
1739256
1739380
1739504
1739626
1739752
1739876
1740002
1740132
1740258
1740386
1740514
1740642
1740770
1740900
1741028
1741158
1741288
1741416
1741544
1741676
1741810
1741944
1742082
1742218
1742356
1742494
1742636
1742776
1742918
1743056
1743194
1743334
1743472
1743610
1743746
1743882
1744016
1744152
1744286
1744422
1744558
1744692
1744826
1744960
1745094
1745226
1745360
1745490
1745620
1745748
1745874
1746002
1746128
1746254
1746380
1746504
1746628
1746752
1746876
1746996
1747118
1747238
1747358
1747478
1747598
1747714
1747834
1747956
1748076
1748198
1748318
1748438
1748560
1748680
1748800
1748920
1749040
1749160
1749280
1749400
1749520
1749640
1749760
1749880
1750000
1750120
1750240
1750358
1750480
1750600
1750720
1750840
1750958
1751078
1751198
1751316
1751434
1751552
1751670
1751788
1751908
1752026
1752144
1752264
1752382
1752502
1752620
1752740
1752860
1752976
1753096
1753214
1753334
1753454
1753574
1753692
1753812
1753932
1754050
1754166
1754284
1754402
1754520
1754636
1754754
1754872
1754986
1755102
1755218
1755336
1755450
1755564
1755680
1755794
1755910
1756024
1756138
1756252
1756370
1756484
1756600
1756716
1756830
1756946
1757060
1757176
1757290
1757406
1757520
1757636
1757748
1757862
1757974
1758088
1758206
1758316
1758432
1758546
1758660
1758774
1758892
1759004
1759114
1759228
1759342
1759454
1759566
1759678
1759792
1759904
1760018
1760132
1760246
1760362
1760478
1760592
1760706
1760820
1760936
1761050
1761168
1761282
1761396
1761510
1761624
1761734
1761848
1761960
1762072
1762184
1762298
1762414
1762522
1762636
1762748
1762858
1762970
1763082
1763192
1763304
1763414
1763528
1763642
1763756
1763866
1763978
1764092
1764206
1764320
1764436
1764552
1764666
1764780
1764896
1765012
1765128
1765242
1765358
1765472
1765590
1765708
1765824
1765944
1766062
1766180
1766300
1766420
1766540
1766660
1766780
1766902
1767024
1767148
1767268
1767392
1767516
1767640
1767764
1767888
1768010
1768134
1768260
1768388
1768514
1768642
1768770
1768898
1769026
1769154
1769282
1769408
1769534
1769662
1769788
1769914
1770044
1770172
1770302
1770432
1770560
1770690
1770820
1770950
1771080
1771210
1771338
1771468
1771598
1771728
1771860
1771992
1772126
1772262
1772400
1772536
1772672
1772804
1772934
1773064
1773192
1773320
1773444
1773570
1773694
1773820
1773946
1774072
1774196
1774322
1774446
1774570
1774692
1774818
1774942
1775068
1775196
1775324
1775452
1775582
1775712
1775844
1775976
1776108
1776240
1776372
1776500
1776630
1776760
1776886
1777012
1777138
1777264
1777390
1777514
1777638
1777762
1777886
1778010
1778136
1778262
1778384
1778510
1778632
1778754
1778878
1778998
1779120
1779242
1779362
1779484
1779604
1779724
1779844
1779964
1780086
1780208
1780330
1780452
1780574
1780698
1780820
1780942
1781066
1781190
1781312
1781436
1781560
1781686
1781812
1781940
1782066
1782196
1782322
1782452
1782582
1782710
1782840
1782970
1783098
1783226
1783354
1783480
1783606
1783730
1783856
1783980
1784110
1784240
1784368
1784496
1784626
1784754
1784884
1785012
1785138
1785266
1785392
1785514
1785638
1785760
1785884
1786006
1786130
1786254
1786378
1786502
1786626
1786750
1786872
1786996
1787118
1787240
1787364
1787488
1787612
1787734
1787858
1787982
1788106
1788228
1788352
1788476
1788598
1788722
1788846
1788968
1789092
1789216
1789338
1789460
1789582
1789704
1789824
1789946
1790068
1790188
1790312
1790434
1790554
1790676
1790796
1790916
1791036
1791154
1791274
1791396
1791516
1791638
1791758
1791880
1792000
1792124
1792246
1792366
1792488
1792608
1792728
1792846
1792966
1793090
1793218
1793348
1793478
1793608
1793738
1793866
1793994
1794124
1794250
1794372
1794494
1794616
1794736
1794858
1794980
1795104
1795224
1795346
1795468
1795588
1795710
1795834
1795958
1796084
1796210
1796332
1796458
1796582
1796706
1796828
1796952
1797074
1797198
1797320
1797444
1797566
1797692
1797820
1797948
1798080
1798206
1798334
1798462
1798590
1798718
1798848
1798976
1799104
1799230
1799356
1799482
1799606
1799730
1799854
1799980
