peaks
137
320
504
692
880
1066
1250
1428
1602
1774
1944
2114
2282
2450
2618
2790
2978
3166
3360
3558
3762
3970
4174
4364
4556
4686
4932
5108
5276
5438
5604
5768
5932
6100
6268
6432
6592
6752
6892
7078
7240
7406
7572
7738
7904
8070
8238
8404
8566
8728
8890
9056
9226
9394
9568
9744
9916
10088
10260
10432
10600
10764
10930
11094
11256
11414
11574
11742
11916
12090
12268
12456
12652
12852
13048
13244
13436
13628
13814
13998
14184
14374
14564
14754
14934
15114
15292
15468
15656
15864
16106
16350
16486
16804
17014
17214
17404
17590
17770
17944
18116
18284
18456
18634
18812
18996
19184
19380
19590
19802
20014
20210
20340
20600
20782
20954
21124
21296
21470
21646
21822
22000
22190
22392
22592
22776
22954
23128
23300
23472
23644
23818
23994
24174
24348
24518
24688
24858
25036
25224
25420
25608
25802
25996
26192
26388
26580
26764
26944
27116
27280
27446
27608
27768
27932
28102
28272
28440
28608
28776
28946
29118
29292
29462
29634
29804
29982
30166
30356
30546
30734
30916
31094
31268
31438
31606
31768
31924
32082
32234
32392
32552
32716
32886
33058
33230
33402
33570
33734
33898
34062
34222
34380
34540
34698
34860
35018
35176
35338
35502
35666
35836
36010
36184
36360
36526
36698
36870
37042
37214
37386
37556
37718
37878
38044
38218
38396
38584
38778
38976
39168
39348
39530
39714
39900
40088
40270
40448
40622
40796
40972
41148
41330
41516
41702
41896
42100
42302
42494
42682
42876
43070
43254
43450
43646
43846
44042
44230
44420
44608
44796
44994
45192
45384
45584
45788
45998
46198
46326
46618
46812
47002
47192
47382
47574
47762
47956
48156
48348
48534
48662
48950
49152
49360
49568
49774
49982
50192
50402
50616
50824
51024
51228
51358
51666
51870
52070
52270
52478
52688
52920
53144
53362
53602
53842
54064
54266
54462
54646
54824
55004
55184
55366
55554
55758
55976
56184
56390
56594
56792
56986
57184
57384
57586
57782
57964
58116
58320
58496
58678
58860
59032
59208
59388
59570
59752
59928
60104
60270
60408
60604
60772
60942
61114
61284
61452
61622
61790
61958
62128
62294
62454
62620
62788
62956
63130
63306
63480
63648
63818
63992
64170
64358
64554
64750
64942
65130
65310
65492
65678
65864
66054
66248
66440
66638
66858
67062
67278
67510
67744
67974
68096
68410
68612
68804
68996
69188
69382
69578
69774
69976
70184
70410
70640
70876
71014
71322
71536
71750
71956
72152
72356
72568
72784
72996
73210
73434
73662
73790
74090
74292
74480
74664
74844
75024
75218
75440
75688
75916
76156
76278
76604
76810
77014
77210
77400
77552
77828
78040
78246
78462
78678
78888
79122
79364
79494
79834
80058
80276
80492
80698
80912
81056
81368
81572
81780
81994
82216
82442
82664
82792
83128
83340
83542
83746
83952
84152
84356
84566
84786
85014
85234
85462
85698
85926
86138
86352
86564
86770
86966
87100
87366
87554
87732
87906
88080
88260
88444
88636
88850
89090
89314
89536
89762
89976
90100
90390
90594
90790
90982
91186
91392
91602
91810
92038
92278
92506
92634
92954
93178
93386
93584
93800
94028
94256
94474
94698
94922
95144
95350
95548
95688
95966
96158
96342
96518
96704
96894
97088
97278
97486
97702
97918
98130
98354
98578
98802
99014
99220
99430
99642
99848
100042
100190
100452
100652
100846
101040
101240
101444
101644
101856
102076
102288
102500
102720
102948
103172
103386
103608
103832
104046
104254
104468
104684
104896
105026
105308
105504
105698
105892
106076
106276
106466
106654
106840
107024
107210
107398
107588
107716
108006
108206
108396
108592
108796
108996
109194
109400
109616
109828
110038
110258
110486
110630
110926
111132
111336
111526
111720
111926
112136
112342
112558
112780
112994
113200
113408
113618
113816
114002
114192
114378
114562
114740
114914
115090
115264
115442
115618
115794
115968
116140
116312
116482
116654
116834
117022
117208
117398
117602
117808
118010
118198
118392
118586
118782
118974
119172
119374
119582
119790
119992
120198
120358
120626
120826
121022
121208
121402
121608
121814
122018
122226
122438
122656
122870
123072
123214
123464
123648
123830
124012
124192
124376
124558
124752
124950
125146
125354
125572
125794
126020
126240
126456
126662
126792
127084
127280
127468
127656
127842
128024
128208
128400
128594
128786
128982
129180
129378
129576
129774
129968
130160
130346
130530
130710
130882
131060
131244
131434
131620
131810
132010
132214
132416
132604
132802
132994
133124
133386
133580
133768
133952
134136
134314
134490
134668
134846
135030
135216
135392
135520
135774
135954
136134
136316
136508
136704
136910
137130
137378
137616
137852
138090
138216
138546
138756
138962
139174
139374
139576
139782
140002
140214
140426
140644
140866
140998
141292
141496
141694
141894
142098
142286
142478
142678
142882
143078
143276
143486
143694
143904
144038
144320
144512
144704
144888
145080
145260
145446
145640
145842
146050
146254
146450
146576
146856
147050
147230
147424
147618
147810
148004
148212
148432
148662
148884
149116
149344
149548
149748
149960
150170
150376
150578
150800
151026
151162
151472
151668
151866
152058
152252
152442
152594
152844
153030
153218
153412
153612
153818
154016
154166
154444
154646
154848
155042
155252
155460
155664
155874
156082
156222
156490
156682
156874
157054
157240
157442
157654
157882
158104
158254
158580
158802
159006
159216
159428
159646
159852
160054
160264
160484
160700
160904
161108
161248
161542
161734
161926
162130
162344
162568
162792
163026
163272
163520
163750
163974
164186
164396
164586
164772
164962
165098
165338
165516
165694
165870
166048
166230
166420
166626
166840
167066
167302
167544
167778
168010
168140
168470
168674
168878
169084
169298
169514
169734
169958
170098
170408
170602
170790
170978
171168
171352
171522
171692
171868
172058
172284
172506
172720
172940
173166
173388
173608
173826
174046
174274
174502
174728
174956
175188
175324
175648
175862
176076
176290
176494
176696
176838
177122
177316
177506
177696
177884
178076
178280
178490
178696
178912
179132
179366
179604
179832
180056
180280
180504
180718
180852
181160
181370
181568
181764
181972
182194
182426
182656
182892
183128
183360
183584
183788
183992
184198
184326
184598
184776
184948
185120
185294
185476
185672
185876
186062
186192
186492
186698
186910
187116
187314
187520
187724
187928
188134
188344
188542
188734
188932
189082
189342
189534
189726
189924
190110
190300
190500
190716
190926
191080
191374
191590
191818
192026
192248
192470
192618
192932
193140
193350
193564
193764
193962
194122
194414
194616
194818
195004
195196
195388
195586
195790
195998
196206
196406
196610
196818
197014
197198
197376
197556
197738
197930
198132
198338
198542
198696
198944
199142
199342
199542
199740
199936
200130
200324
200514
200698
200872
201048
201182
201416
201612
201838
202070
202314
202556
202796
203028
203254
203472
203692
203830
204134
204342
204538
204744
204968
205198
205432
205668
205906
206144
206382
206510
206838
207060
207274
207488
207694
207894
208090
208282
208468
208652
208828
209004
209140
209366
209546
209730
209920
210112
210306
210502
210696
210886
211072
211254
211428
211604
211788
211990
212200
212422
212644
212878
213118
213354
213580
213810
214048
214290
214514
214736
214962
215178
215380
215582
215780
215976
216166
216360
216560
216768
216982
217200
217414
217540
217846
218050
218234
218414
218596
218782
218982
219194
219416
219632
219842
220048
220270
220398
220722
220924
221136
221346
221554
221756
221960
222180
222418
222666
222904
223032
223368
223586
223784
223980
224176
224376
224566
224698
224976
225182
225392
225596
225784
225976
226168
226364
226556
226750
226942
227124
227308
227488
227672
227858
228052
228252
228450
228644
228838
229038
229246
229458
229672
229874
230076
230204
230504
230700
230890
231086
231304
231548
231788
231924
232288
232516
232736
232966
233184
233384
233586
233802
234030
234248
234492
234744
234870
235220
235440
235662
235888
236096
236304
236528
236774
237024
237154
237506
237746
237976
238194
238434
238694
238954
239196
239452
239714
239962
240192
240440
240698
240824
241152
241354
241546
241730
241926
242120
242322
242540
242766
243004
243236
243444
243660
243870
244004
244284
244470
244662
244844
245024
245196
245358
245552
245742
245958
246184
246416
246638
246856
247070
247256
247446
247640
247832
248028
248228
248414
248588
248786
248986
249198
249402
249532
249848
250070
250290
250506
250706
250918
251128
251332
251474
251768
251992
252218
252432
252652
252884
253130
253378
253622
253848
254070
254212
254510
254718
254922
255124
255320
255534
255774
256022
256250
256384
256720
256946
257168
257372
257576
257792
258030
258250
258384
258724
258952
259174
259396
259612
259828
260024
260164
260472
260696
260914
261116
261342
261568
261804
262046
262288
262508
262738
262944
263158
263376
263598
263814
264028
264238
264378
264660
264868
265064
265244
265438
265632
265826
266040
266266
266500
266722
266928
267118
267326
267534
267666
267946
268136
268318
268502
268688
268872
269072
269286
269522
269752
269984
270210
270418
270636
270766
271080
271300
271520
271744
271966
272180
272326
272636
272856
273074
273306
273544
273794
274044
274184
274560
274804
275038
275284
275538
275778
275924
276256
276494
276730
276956
277184
277418
277642
277782
278088
278288
278486
278680
278886
279082
279216
279520
279734
279944
280166
280386
280600
280824
281076
281320
281448
281754
281940
282140
282340
282558
282790
283014
283252
283390
283738
283970
284194
284404
284636
284874
285028
285360
285576
285794
286022
286248
286452
286664
286884
287098
287300
287498
287722
287948
288174
288396
288598
288808
288934
289214
289412
289608
289802
289988
290176
290386
290624
290878
291150
291412
291674
291928
292164
292400
292638
292874
293098
293228
293566
293782
293988
294192
294408
294638
294880
295126
295256
295618
295868
296110
296366
296626
296876
297006
297306
297500
297686
297868
298052
298242
298442
298652
298856
299048
299246
299444
299632
299818
300002
300186
300318
300552
300736
300922
301112
301302
301496
301692
301888
302088
302284
302482
302682
302812
303082
303276
303470
303666
303868
304078
304218
304500
304686
304872
305064
305280
305508
305734
305978
306114
306450
306674
306896
307108
307298
307502
307704
307914
308132
308362
308590
308810
309016
309220
309438
309566
309876
310076
310282
310492
310692
310886
311096
311304
311508
311704
311902
312028
312310
312510
312714
312922
313126
313344
313574
313810
314036
314274
314526
314654
314992
315210
315424
315634
315842
316060
316294
316538
316772
317020
317272
317508
317728
317958
318096
318430
318638
318846
319062
319292
319522
319774
319910
320270
320492
320724
320964
321196
321424
321554
321892
322102
322320
322548
322778
323004
323242
323370
323718
323944
324170
324372
324580
324724
325028
325240
325454
325680
325924
326150
326388
326630
326758
327110
327344
327574
327788
328008
328158
328446
328644
328846
329064
329300
329544
329802
329932
330282
330494
330704
330922
331128
331336
331568
331822
331954
332312
332552
332792
333000
333198
333328
333612
333806
334006
334196
334384
334588
334794
334998
335196
335322
335638
335840
336056
336272
336482
336686
336918
337150
337396
337636
337874
338100
338308
338510
338716
338910
339096
339296
339496
339704
339900
340104
340310
340522
340728
340928
341136
341350
341568
341784
341984
342194
342412
342626
342816
343008
343198
343370
343506
343754
343934
344106
344282
344466
344642
344818
344990
345158
345326
345494
345662
345826
345988
346148
346302
346454
346606
346758
346910
347058
347210
347360
347514
347672
347828
347986
348148
348312
348474
348646
348818
349002
349176
349370
349572
349780
349986
350206
350422
350632
350826
351016
351198
351326
351576
351762
351944
352114
352286
352464
352650
352848
353048
353248
353448
353652
353860
354074
354298
354518
354652
354940
355144
355346
355552
355760
355982
356208
356430
356662
356890
357026
357330
357550
357760
357962
358174
358396
358620
358848
359076
359292
359510
359736
359958
360180
360394
360602
360732
361040
361254
361468
361676
361884
362098
362308
362536
362764
362976
363102
363398
363610
363824
364030
364260
364478
364612
364916
365124
365328
365548
365764
365994
366210
366438
366686
366912
367134
367262
367576
367788
367992
368198
368414
368628
368834
368966
369260
369470
369680
369896
370114
370336
370582
370714
371056
371254
371468
371686
371916
372054
372324
372512
372702
372898
373080
373216
373492
373694
373914
374140
374370
374610
374740
375052
375246
375444
375628
375808
375964
376192
376388
376582
376782
376998
377250
377502
377630
377962
378174
378374
378580
378796
379020
379254
379492
379738
379970
380186
380392
380594
380786
380990
381196
381398
381604
381806
382006
382210
382420
382632
382846
383054
383260
383474
383702
383940
384164
384378
384594
384806
385018
385224
385424
385636
385854
385990
386290
386500
386706
386902
387102
387308
387540
387766
387996
388230
388466
388696
388912
389114
389306
389506
389702
389896
390090
390288
390488
390688
390894
391112
391348
391576
391808
392042
392262
392472
392682
392902
393112
393322
393542
393778
394004
394228
394448
394668
394868
395060
395250
395446
395652
395858
396066
396262
396448
396576
396828
397010
397190
397366
397544
397720
397894
398070
398250
398434
398618
398802
398932
399188
399380
399562
399740
399918
400104
400296
400482
400670
400870
401072
401274
401474
401620
401878
402062
402234
402406
402582
402762
402954
403142
403334
403540
403764
403996
404120
404442
404644
404834
405018
405204
405394
405590
405800
406026
406250
406460
406660
406856
407038
407220
407396
407570
407742
407916
408088
408248
408444
408614
408792
408973
409150
409332
409510
409686
409860
410042
410224
410404
410584
410762
410940
411112
411280
411448
411614
411780
411946
412112
412278
412450
412626
412802
412970
413142
413312
413480
413648
413820
414000
414184
414362
414544
414726
414910
415088
415262
415436
415612
415786
415960
416132
416304
416478
416658
416854
417050
417246
417446
417646
417838
418032
418224
418412
418594
418780
418970
419160
419340
419516
419698
419874
420050
420228
420410
420588
420768
420946
421124
421296
421462
421628
421794
421926
422134
422296
422456
422618
422778
422938
423098
423260
423426
423596
423776
423964
424152
424336
424530
424734
424926
425122
425316
425514
425650
425908
426080
426250
426420
426590
426760
426932
427104
427274
427446
427620
427800
427984
428164
428292
428542
428720
428896
429068
429244
429424
429600
429776
429960
430140
430316
430496
430670
430844
431010
431178
431350
431522
431690
431858
432028
432196
432360
432524
432690
432854
433020
433186
433352
433514
433674
433836
433996
434162
434324
434490
434656
434790
435002
435162
435328
435496
435656
435816
435980
436148
436326
436496
436674
436858
436988
437238
437408
437582
437760
437932
438066
438270
438434
438598
438764
438924
439088
439252
439420
439590
439766
439938
440116
440302
440488
440672
440856
441034
441214
441394
441572
441746
441918
442086
442250
442412
442544
442742
442902
443060
443220
443384
443542
443702
443864
444028
444194
444368
444546
444718
444886
445054
445228
445400
445566
445732
445896
446062
446226
446388
446528
446720
446890
447058
447230
447404
447584
447760
447966
448186
448408
448616
448810
448996
449142
449350
449514
449676
449836
449992
450150
450312
450474
450648
450826
451030
451238
451438
451566
451814
451982
452140
452296
452452
452608
452762
452914
453068
453224
453382
453546
453714
453888
454058
454228
454396
454556
454692
454880
455034
455184
455334
455478
455620
455764
455910
456056
456204
456354
456510
456670
456830
456956
457182
457348
457510
457670
457826
457954
458134
458282
458432
458584
458734
458882
459002
459186
459330
459472
459614
459758
459900
460046
460194
460342
460494
460640
460792
460936
461052
461234
461376
461520
461660
461796
461932
462046
462164
462236
462488
462634
462770
462910
463050
463194
463334
463478
463626
463780
463938
464092
464252
464416
464580
464742
464868
465076
465250
465420
465584
465740
465906
466138
466358
466570
466780
466972
467152
467326
467492
467656
467816
467976
468134
468296
468470
468654
468832
469020
469210
469396
469576
469762
469948
470122
470288
470458
470630
470810
471004
471136
471390
471570
471740
471902
472068
472232
472402
472570
472742
472928
473116
473304
473496
473682
473864
474042
474220
474396
474526
474746
474912
475076
475242
475410
475614
475864
476106
476322
476526
476726
476916
477102
477278
477452
477640
477844
478074
478294
478522
478756
478972
479174
479374
479506
479806
479994
480174
480358
480488
480764
480966
481200
481424
481564
481858
482072
482294
482502
482702
482894
483088
483312
483558
483824
484054
484276
484502
484722
484940
485154
485398
485522
485870
486078
486270
486446
486626
486858
487138
487396
487656
487912
488150
488370
488594
488814
489032
489252
489512
489790
490042
490278
490524
490772
491018
491254
491518
491794
492066
492344
492624
492888
493140
493392
493658
493930
494208
494506
494796
495064
495314
495538
495766
496024
496330
496614
496880
497138
497384
497616
497828
498044
498306
498584
498850
499104
499360
499608
499820
500048
500312
500582
500828
501086
501344
501586
501822
502080
502352
502626
502916
503220
503506
503798
504094
504372
504648
504912
505170
505442
505738
506042
506336
506604
506880
507150
507396
507666
507944
508202
508480
508754
509026
509282
509528
509774
510012
510242
510466
510704
510968
511240
511428
511704
511914
512132
512370
512584
512796
513008
513212
513402
513580
513758
513942
514158
514416
514618
514792
514970
515196
515450
515696
515924
516132
516336
516548
516774
517022
517284
517536
517774
518006
518240
518480
518700
518934
519158
519380
519598
519818
520020
520226
520424
520602
520786
520964
521152
521358
521586
521710
522000
522176
522352
522542
522724
522912
523130
523382
523620
523864
524104
524328
524546
524776
525006
525216
525432
525658
525890
526094
526310
526574
526868
527108
527338
527560
527792
528024
528236
528440
528636
528840
529060
529288
529486
529680
529868
530044
530218
530388
530552
530718
530876
531048
531216
531378
531540
531700
531862
532020
532174
532296
532482
532632
532780
532930
533078
533224
533372
533524
533682
533836
533988
534112
534302
534462
534622
534782
534944
535114
535292
535466
535622
535778
535934
536086
536238
536390
536538
536684
536826
536970
537116
537268
537424
537594
537804
538002
538208
538422
538648
538858
539054
539246
539426
539592
539754
539918
540084
540244
540404
540568
540738
540912
541084
541252
541416
541574
541730
541884
542040
542192
542346
542504
542666
542828
542982
543136
543290
543450
543614
543778
543946
544128
544322
544506
544682
544850
545014
545178
545348
545510
545678
545850
546022
546194
546364
546532
546700
546872
547046
547218
547386
547546
547684
547864
548018
548176
548334
548504
548680
548860
549048
549240
549430
549618
549738
550002
550182
550362
550542
550710
550890
551078
551260
551442
551628
551744
552004
552166
552326
552488
552658
552834
553002
553162
553320
553482
553604
553826
553992
554160
554326
554494
554672
554848
555024
555204
555374
555538
555700
555864
556034
556202
556366
556534
556706
556878
557044
557206
557366
557484
557700
557856
558012
558170
558338
558472
558706
558868
559040
559216
559382
559500
559760
559932
560098
560262
560434
560554
560790
560958
561126
561288
561456
561578
561836
562014
562198
562386
562584
562702
563000
563186
563376
563572
563702
563974
564158
564348
564550
564768
564898
565194
565370
565544
565716
565842
566078
566240
566402
566570
566742
566872
567102
567274
567442
567608
567774
567944
568116
568284
568456
568624
568790
568948
569108
569270
569434
569596
569754
569912
570030
570234
570394
570550
570700
570854
570972
571170
571324
571476
571634
571798
571968
572158
572394
572624
572860
573100
573330
573548
573766
573982
574192
574398
574608
574818
575036
575272
575520
575762
575984
576222
576466
576698
576824
577134
577348
577560
577766
577984
578230
578492
578740
578998
579256
579500
579734
579862
580188
580390
580594
580814
580940
581268
581460
581658
581872
582102
582330
582568
582816
583056
583290
583528
583760
583970
584180
584392
584606
584728
585006
585196
585380
585564
585750
585878
586160
586360
586566
586790
586924
587250
587454
587668
587890
588022
588334
588544
588756
588956
589152
589368
589606
589846
590088
590328
590452
590760
590956
591150
591346
591536
591662
591932
592126
592312
592500
592708
592830
593142
593340
593538
593742
593940
594150
594386
594638
594874
595106
595334
595548
595750
595948
596154
596362
596566
596756
596938
597120
597242
597476
597648
597826
598012
598196
598318
598566
598758
598958
599154
599340
599466
599694
599868
600040
600210
600384
600510
600760
600950
601148
601348
601562
601806
602058
602306
602530
602748
602874
603168
603346
603510
603676
603846
603978
604236
604420
604618
604840
605082
605206
605536
605744
605954
606172
606392
606598
606802
607018
607248
607474
607696
607930
608056
608364
608548
608730
608914
609104
609290
609412
609672
609852
610030
610208
610386
610578
610792
611018
611238
611438
611642
611846
612038
612226
612418
612540
612796
612976
613152
613326
613500
613676
613864
614070
614288
614510
614706
614896
615080
615264
615446
615616
615740
615960
616134
616310
616494
616680
616804
617086
617274
617470
617676
617890
618100
618318
618546
618782
618996
619198
619398
619584
619756
619932
620112
620298
620478
620650
620818
620988
621164
621354
621558
621762
621954
622086
622324
622506
622684
622860
623038
623160
623392
623558
623720
623878
624038
624208
624398
624620
624852
625086
625290
625474
625658
625836
626008
626178
626348
626526
626704
626884
627058
627230
627398
627522
627732
627894
628054
628208
628364
628522
628688
628856
629032
629218
629406
629604
629790
629984
630176
630364
630534
630658
630878
631048
631208
631370
631538
631668
631878
632040
632202
632372
632536
632700
632872
633050
633218
633388
633570
633758
633952
634076
634374
634566
634760
634956
635148
635286
635548
635734
635922
636114
636314
636524
636648
636950
637144
637336
637532
637724
637926
638136
638354
638574
638784
638982
639166
639348
639532
639714
639898
640082
640268
640454
640638
640828
641018
641212
641418
641624
641746
642038
642234
642428
642616
642800
643000
643210
643428
643650
643876
644100
644322
644540
644756
644966
645090
645378
645560
645746
645934
646126
646332
646458
646768
646962
647164
647364
647556
647744
647924
648104
648280
648466
648664
648868
649072
649276
649482
649688
649886
650082
650274
650464
650660
650856
651044
651232
651422
651612
651802
651936
652200
652378
652552
652728
652908
653098
653222
653528
653732
653938
654148
654368
654598
654830
655064
655296
655520
655744
655962
656174
656384
656594
656796
656930
657208
657392
657572
657756
657944
658068
658344
658532
658724
658918
659124
659338
659462
659772
659966
660160
660352
660552
660682
660976
661178
661382
661592
661810
661944
662244
662426
662610
662798
662996
663198
663414
663638
663864
664088
664308
664532
664742
664936
665120
665300
665480
665660
665834
666006
666184
666374
666508
666792
666994
667190
667388
667592
667806
668032
668266
668500
668728
668860
669178
669376
669570
669764
669964
670164
670288
670596
670796
671002
671208
671402
671600
671814
672032
672248
672472
672700
672826
673136
673340
673544
673748
673952
674080
674372
674566
674766
674974
675186
675408
675642
675880
676120
676350
676570
676786
676994
677196
677394
677588
677780
677972
678172
678380
678580
678716
679004
679198
679380
679560
679742
679874
680154
680358
680572
680788
680996
681212
681440
681670
681886
682102
682318
682536
682760
682974
683180
683388
683588
683784
683976
684170
684364
684564
684772
684912
685194
685392
685590
685790
685990
686196
686410
686630
686846
687058
687266
687464
687650
687836
688024
688216
688408
688604
688800
688996
689188
689384
689578
689778
689982
690180
690366
690546
690720
690892
691060
691228
691358
691568
691732
691894
692062
692236
692418
692602
692726
692994
693182
693366
693550
693740
693936
694064
694348
694548
694750
694952
695154
695364
695490
695784
695978
696164
696354
696544
696740
696868
697150
697342
697538
697738
697946
698160
698284
698572
698768
698968
699154
699344
699546
699758
699884
700160
700346
700530
700710
700890
701082
701234
701516
701720
701932
702146
702362
702490
702796
702990
703174
703354
703540
703676
703908
704078
704244
704418
704598
704776
704906
705132
705296
705458
705622
705794
705984
706196
706418
706636
706848
707062
707272
707480
707680
707876
708072
708266
708462
708666
708876
709088
709220
709502
709692
709886
710076
710268
710462
710586
710866
711056
711250
711444
711630
711812
711938
712196
712374
712550
712722
712894
713064
713240
713420
713544
713792
713968
714140
714312
714486
714616
714830
714992
715150
715308
715462
715620
715792
715972
716160
716350
716540
716714
716892
717030
717256
717436
717612
717790
717964
718136
718294
718456
718618
718774
718932
719084
719240
719400
719566
719724
719890
720058
720224
720384
720542
720706
720870
721038
721208
721376
721540
721670
721878
722036
722192
722346
722502
722666
722806
723032
723212
723400
723590
723768
723894
724130
724296
724458
724620
724780
724938
725062
725264
725418
725574
725732
725890
726044
726176
726368
726530
726692
726858
727032
727208
727378
727548
727718
727882
728044
728208
728372
728534
728692
728848
729006
729166
729330
729500
729672
729846
730026
730214
730408
730606
730732
731002
731192
731376
731560
731740
731924
732108
732292
732482
732664
732844
732974
733192
733356
733524
733686
733848
734002
734158
734318
734484
734648
734816
734984
735148
735310
735474
735638
735800
735958
736116
736272
736428
736580
736732
736886
737040
737194
737348
737504
737658
737816
737974
738136
738298
738458
738616
738774
738936
739098
739256
739416
739574
739740
739908
740078
740252
740430
740610
740790
740970
741146
741324
741496
741662
741828
741990
742158
742332
742510
742702
742892
743078
743272
743464
743648
743820
743996
744172
744344
744516
744696
744884
745064
745250
745436
745630
745818
746002
746188
746366
746502
746742
746928
747112
747302
747496
747708
747928
748156
748280
748600
748798
748992
749180
749376
749500
749774
749956
750134
750316
750504
750694
750896
751106
751328
751544
751748
751962
752174
752374
752560
752742
752870
753110
753294
753482
753672
753854
754032
754160
754406
754594
754776
754962
755154
755280
755564
755750
755942
756136
756332
756526
756654
756914
757100
757278
757452
757628
757754
757998
758172
758344
758518
758700
758884
759066
759256
759448
759638
759816
759946
760180
760356
760524
760690
760856
761026
761192
761362
761534
761712
761900
762084
762266
762452
762640
762824
763008
763186
763364
763540
763714
763890
764068
764248
764426
764606
764788
764968
765144
765318
765492
765666
765842
765972
766188
766358
766528
766700
766868
767038
767214
767398
767574
767748
767924
768104
768276
768452
768630
768802
768972
769102
769308
769470
769630
769790
769950
770112
770280
770448
770620
770790
770964
771138
771310
771482
771648
771812
771974
772136
772292
772446
772604
772768
772936
773106
773274
773400
773630
773812
774002
774194
774390
774514
774752
774926
775096
775266
775436
775602
775770
775942
776116
776296
776478
776656
776830
777000
777168
777330
777490
777650
777810
777974
778142
778316
778488
778662
778840
779024
779208
779390
779570
779750
779928
780104
780278
780450
780622
780798
780966
781136
781312
781492
781672
781854
781974
782230
782410
782586
782764
782940
783112
783278
783448
783618
783786
783954
784122
784292
784464
784638
784812
784978
785140
785302
785464
785628
785792
785958
786118
786278
786440
786608
786776
786940
787102
787266
787432
787594
787752
787914
788074
788236
788396
788558
788720
788878
789038
789202
789362
789528
789698
789872
790046
790218
790390
790560
790726
790890
791050
791212
791372
791538
791702
791868
792038
792214
792390
792568
792702
792926
793094
793262
793430
793600
793776
793948
794122
794296
794474
794654
794830
794964
795210
795394
795574
795754
795938
796122
796308
796490
796674
796858
797040
797214
797394
797578
797766
797952
798074
798320
798500
798672
798842
799010
799134
799346
799512
799674
799840
800004
800164
800326
800494
800666
800838
801012
801190
801376
801556
801734
801912
802090
802264
802434
802562
802770
802936
803102
803266
803434
803606
803786
803968
804158
804354
804544
804734
804872
805124
805300
805474
805646
805810
805934
806136
806292
806444
806598
806758
806930
807114
807300
807498
807708
807918
808120
808252
808516
808698
808872
809036
809194
809356
809524
809690
809856
810026
810200
810372
810544
810720
810896
811068
811240
811414
811584
811750
811916
812082
812246
812408
812570
812728
812888
813048
813208
813366
813522
813680
813834
813986
814136
814284
814434
814582
814734
814882
815032
815180
815326
815474
815624
815776
815924
816072
816220
816368
816516
816666
816816
816966
817114
817260
817406
817552
817696
817844
817992
818138
818286
818434
818584
818736
818890
819044
819202
819366
819540
819708
819864
820020
820174
820328
820478
820626
820778
820928
821078
821226
821374
821518
821662
821806
821944
822084
822224
822362
822498
822634
822772
822914
823064
823222
823380
823548
823722
823898
824070
824248
824434
824618
824792
824972
825148
825318
825486
825646
825806
825960
826114
826264
826416
826572
826728
826886
827042
827200
827358
827514
827670
827826
827982
828132
828280
828430
828578
828724
828872
829018
829168
829318
829472
829620
829768
829914
830058
830202
830344
830488
830634
830780
830932
831084
831238
831396
831554
831710
831866
832018
832168
832316
832464
832610
832756
832900
833046
833190
833336
833484
833632
833780
833926
834072
834218
834364
834508
834650
834794
834936
835078
835218
835358
835498
835636
835774
835914
836054
836194
836334
836476
836618
836764
836906
837048
837192
837338
837484
837630
837774
837922
838070
838222
838382
838546
838710
838878
839044
839210
839374
839530
839664
839830
839976
840124
840270
840418
840570
840722
840878
841036
841198
841360
841526
841688
841846
841998
842148
842302
842458
842610
842764
842916
843074
843236
843410
843600
843788
843970
844166
844344
844510
844674
844836
844996
845160
845318
845480
845642
845808
845974
846140
846314
846490
846668
846848
847028
847206
847382
847552
847716
847856
848030
848186
848336
848486
848638
848794
848956
849122
849284
849448
849620
849752
849986
850158
850334
850506
850684
850810
851054
851230
851396
851560
851724
851882
852040
852202
852362
852530
852700
852868
853044
853222
853398
853572
853738
853906
854076
854240
854404
854572
854742
854912
855052
855258
855424
855592
855760
855924
856088
856258
856432
856600
856766
856930
857088
857210
857408
857566
857724
857878
858034
858194
858354
858520
858694
858878
859062
859240
859360
859578
859744
859910
860072
860228
860380
860532
860684
860840
861006
861174
861342
861512
861682
861844
862002
862162
862322
862478
862640
862804
862964
863120
863278
863436
863590
863748
863910
864072
864234
864394
864544
864684
864842
864990
865138
865290
865442
865588
865736
865882
866032
866184
866340
866500
866662
866822
866982
867136
867294
867448
867598
867748
867870
868044
868190
868336
868480
868628
868776
868924
869074
869222
869372
869524
869674
869828
869980
870130
870284
870438
870592
870744
870896
871050
871206
871360
871520
871692
871866
872040
872220
872408
872592
872780
872966
873144
873284
873494
873658
873814
873968
874126
874290
874460
874646
874846
875048
875244
875438
875562
875810
875980
876142
876296
876446
876596
876748
876900
877056
877218
877388
877562
877738
877916
878100
878280
878456
878630
878798
878932
879122
879280
879434
879584
879734
879884
880038
880200
880368
880540
880710
880874
881042
881210
881372
881534
881694
881854
882006
882160
882316
882468
882624
882780
882934
883084
883236
883384
883530
883676
883820
883962
884106
884250
884394
884540
884688
884834
884980
885126
885270
885412
885554
885696
885840
885986
886134
886282
886436
886590
886744
886896
887048
887202
887352
887502
887652
887800
887948
888094
888242
888390
888538
888682
888826
888968
889112
889248
889390
889532
889674
889816
889958
890102
890242
890384
890528
890676
890826
890976
891128
891280
891430
891578
891728
891882
892036
892186
892338
892490
892646
892796
892948
893092
893240
893394
893546
893710
893870
894028
894184
894338
894488
894636
894784
894930
895074
895218
895358
895498
895634
895770
895906
896044
896176
896312
896450
896594
896744
896902
897072
897256
897440
897618
897790
897958
898124
898288
898446
898600
898754
898900
899046
899192
899338
899484
899626
899770
899916
900060
900204
900348
900494
900644
900796
900946
901098
901248
901396
901542
901688
901836
901980
902124
902270
902416
902558
902702
902846
902990
903138
903288
903436
903584
903734
903882
904030
904180
904332
904482
904632
904784
904940
905098
905252
905408
905564
905724
905882
906040
906196
906356
906516
906672
906834
906996
907162
907326
907498
907676
907852
908026
908200
908374
908544
908706
908864
909022
909178
909336
909490
909650
909812
909974
910130
910280
910424
910554
910718
910860
911006
911154
911306
911466
911628
911794
911964
912132
912298
912462
912618
912774
912932
913090
913244
913398
913550
913704
913860
914018
914176
914338
914502
914664
914824
914980
915134
915288
915444
915596
915748
915900
916050
916196
916346
916494
916644
916796
916946
917098
917252
917408
917566
917726
917888
918054
918216
918376
918536
918692
918850
919008
919168
919328
919492
919654
919814
919972
920130
920286
920444
920600
920756
920908
921062
921210
921360
921512
921668
921828
921996
922156
922316
922476
922642
922808
922974
923134
923292
923448
923602
923754
923904
924050
924196
924342
924490
924634
924780
924924
925072
925220
925368
925516
925664
925812
925964
926118
926272
926432
926592
926754
926916
927082
927246
927408
927568
927722
927876
928028
928178
928324
928472
928622
928778
928934
929092
929252
929412
929572
929730
929890
930048
930206
930360
930512
930662
930810
930960
931112
931266
931426
931590
931760
931932
932106
932284
932462
932634
932800
932960
933116
933268
933418
933564
933712
933858
934002
934148
934298
934458
934622
934786
934952
935124
935294
935458
935620
935784
935944
936096
936246
936398
936548
936696
936844
936990
937132
937274
937416
937558
937702
937844
937986
938126
938270
938418
938570
938726
938882
939034
939190
939344
939502
939658
939810
939956
940106
940252
940398
940542
940684
940824
940964
941106
941246
941388
941528
941670
941814
941960
942108
942258
942408
942562
942716
942872
943026
943180
943332
943480
943628
943774
943918
944060
944198
944338
944476
944614
944754
944896
945040
945186
945334
945486
945642
945800
945956
946112
946272
946432
946590
946746
946898
947054
947212
947368
947522
947678
947834
947990
948148
948304
948464
948622
948780
948936
949094
949250
949404
949558
949712
949870
950030
950188
950344
950502
950660
950818
950974
951128
951284
951440
951596
951748
951894
952038
952178
952316
952456
952590
952724
952858
952994
953130
953266
953402
953540
953678
953820
953960
954104
954246
954386
954530
954672
954816
954962
955108
955256
955404
955552
955700
955848
955996
956142
956288
956436
956586
956738
956884
957032
957180
957330
957484
957640
957802
957968
958136
958302
958466
958628
958788
958946
959104
959258
959406
959554
959700
959844
959990
960136
960280
960422
960568
960718
960868
961016
961164
961316
961476
961636
961798
961960
962124
962288
962450
962606
962766
962928
963082
963236
963390
963542
963690
963842
963994
964148
964298
964450
964602
964756
964912
965062
965212
965360
965510
965656
965802
965950
966096
966242
966392
966536
966682
966826
966968
967110
967252
967394
967534
967674
967814
967956
968096
968240
968384
968528
968676
968824
968970
969116
969266
969414
969560
969708
969854
970000
970144
970288
970428
970570
970712
970852
970992
971132
971274
971416
971558
971700
971842
971984
972138
972302
972468
972638
972806
972972
973134
973292
973450
973602
973758
973912
974066
974218
974374
974530
974690
974846
975006
975156
975312
975464
975614
975768
975930
976102
976278
976460
976652
976844
977026
977206
977384
977558
977728
977890
978050
978214
978380
978552
978724
978898
979064
979224
979382
979544
979710
979886
980070
980204
980438
980614
980784
980948
981110
981264
981418
981576
981740
981912
982088
982268
982440
982614
982784
982952
983118
983282
983446
983606
983764
983922
984080
984236
984396
984554
984720
984892
985062
985230
985396
985562
985726
985852
986054
986210
986370
986528
986692
986860
987038
987214
987394
987576
987760
987942
988120
988294
988462
988626
988788
988948
989106
989264
989418
989570
989724
989884
990046
990210
990376
990550
990732
990902
991032
991248
991408
991568
991728
991892
992056
992224
992398
992574
992752
992922
993084
993220
993396
993544
993690
993834
993978
994122
994270
994424
994574
994726
994876
995030
995180
995330
995482
995640
995792
995942
996090
996240
996388
996546
996714
996884
997058
997234
997408
997580
997756
997938
998116
998284
998442
998600
998762
998922
999088
999256
999424
999588
999748
999910
1000072
1000232
1000388
1000542
1000700
1000866
1001024
1001180
1001332
1001484
1001630
1001780
1001924
1002062
1002200
1002338
1002476
1002616
1002760
1002900
1003042
1003188
1003332
1003476
1003618
1003758
1003900
1004042
1004186
1004332
1004482
1004628
1004772
1004918
1005064
1005208
1005350
1005492
1005632
1005772
1005910
1006050
1006188
1006328
1006470
1006614
1006758
1006904
1007046
1007192
1007342
1007494
1007646
1007800
1007952
1008104
1008252
1008404
1008552
1008702
1008850
1008998
1009142
1009286
1009426
1009564
1009702
1009842
1009984
1010128
1010276
1010424
1010570
1010720
1010868
1011016
1011162
1011310
1011458
1011606
1011756
1011906
1012058
1012208
1012354
1012504
1012656
1012808
1012958
1013108
1013258
1013408
1013554
1013700
1013844
1013990
1014134
1014278
1014420
1014560
1014700
1014840
1014980
1015126
1015280
1015444
1015612
1015790
1015962
1016134
1016298
1016458
1016622
1016784
1016940
1017094
1017250
1017408
1017564
1017718
1017872
1018026
1018182
1018334
1018488
1018648
1018810
1018968
1019130
1019290
1019458
1019628
1019796
1019968
1020144
1020318
1020488
1020660
1020830
1021002
1021174
1021348
1021528
1021704
1021878
1022050
1022224
1022404
1022576
1022746
1022922
1023106
1023292
1023474
1023662
1023846
1023964
1024204
1024370
1024534
1024698
1024864
1025028
1025188
1025348
1025510
1025678
1025836
1026000
1026170
1026346
1026522
1026684
1026848
1027010
1027168
1027322
1027480
1027638
1027796
1027956
1028112
1028268
1028424
1028580
1028738
1028900
1029062
1029224
1029382
1029538
1029690
1029844
1029974
1030150
1030302
1030454
1030604
1030754
1030906
1031060
1031218
1031374
1031532
1031686
1031844
1031996
1032148
1032298
1032448
1032600
1032754
1032910
1033070
1033220
1033348
1033526
1033672
1033824
1033976
1034132
1034294
1034450
1034614
1034790
1034964
1035136
1035318
1035492
1035668
1035842
1036018
1036184
1036346
1036510
1036670
1036826
1036980
1037134
1037286
1037434
1037582
1037730
1037880
1038028
1038174
1038322
1038468
1038614
1038762
1038908
1039050
1039194
1039338
1039482
1039624
1039764
1039908
1040050
1040192
1040336
1040478
1040620
1040760
1040904
1041048
1041188
1041328
1041464
1041602
1041738
1041876
1042014
1042152
1042292
1042434
1042576
1042720
1042872
1043030
1043198
1043374
1043558
1043740
1043870
1044088
1044244
1044398
1044550
1044704
1044854
1045004
1045154
1045304
1045450
1045598
1045748
1045898
1046052
1046208
1046362
1046516
1046668
1046822
1046974
1047122
1047270
1047416
1047564
1047710
1047854
1047998
1048148
1048298
1048448
1048602
1048754
1048906
1049064
1049220
1049372
1049524
1049674
1049826
1049978
1050130
1050284
1050436
1050592
1050750
1050912
1051078
1051244
1051412
1051582
1051748
1051918
1052090
1052264
1052438
1052610
1052782
1052952
1053118
1053286
1053454
1053626
1053792
1053954
1054114
1054276
1054442
1054606
1054772
1054938
1055110
1055286
1055458
1055622
1055782
1055938
1056092
1056212
1056392
1056536
1056680
1056824
1056964
1057108
1057246
1057384
1057522
1057662
1057808
1057960
1058122
1058292
1058474
1058654
1058826
1058996
1059166
1059328
1059490
1059650
1059810
1059974
1060134
1060290
1060446
1060600
1060752
1060906
1061056
1061206
1061358
1061512
1061664
1061814
1061964
1062114
1062268
1062418
1062564
1062712
1062862
1063016
1063168
1063320
1063474
1063626
1063776
1063922
1064068
1064210
1064358
1064514
1064672
1064834
1065000
1065168
1065338
1065506
1065674
1065842
1066006
1066168
1066326
1066488
1066648
1066808
1066962
1067116
1067274
1067434
1067590
1067742
1067900
1068062
1068234
1068404
1068568
1068738
1068906
1069072
1069236
1069398
1069564
1069724
1069888
1070046
1070204
1070362
1070520
1070678
1070838
1070994
1071150
1071306
1071464
1071622
1071780
1071938
1072098
1072256
1072416
1072576
1072744
1072914
1073076
1073246
1073408
1073572
1073740
1073898
1074056
1074212
1074362
1074518
1074674
1074826
1074980
1075134
1075284
1075436
1075586
1075734
1075882
1076026
1076168
1076314
1076458
1076602
1076750
1076898
1077044
1077190
1077334
1077476
1077618
1077762
1077902
1078046
1078190
1078334
1078478
1078622
1078770
1078918
1079068
1079216
1079364
1079510
1079658
1079802
1079944
1080084
1080222
1080362
1080504
1080646
1080788
1080930
1081072
1081216
1081360
1081502
1081648
1081794
1081938
1082086
1082234
1082384
1082530
1082676
1082824
1082972
1083120
1083262
1083406
1083548
1083690
1083834
1083978
1084118
1084262
1084406
1084552
1084698
1084842
1084984
1085128
1085272
1085416
1085564
1085710
1085852
1085994
1086138
1086282
1086426
1086568
1086714
1086856
1087002
1087148
1087298
1087442
1087592
1087742
1087892
1088040
1088188
1088336
1088484
1088632
1088784
1088934
1089086
1089238
1089392
1089546
1089700
1089856
1090006
1090154
1090302
1090452
1090602
1090752
1090908
1091070
1091236
1091404
1091576
1091750
1091918
1092076
1092238
1092390
1092538
1092686
1092840
1092998
1093156
1093316
1093474
1093640
1093804
1093964
1094120
1094276
1094432
1094590
1094744
1094898
1095048
1095194
1095338
1095480
1095620
1095762
1095910
1096060
1096208
1096350
1096500
1096654
1096808
1096956
1097104
1097248
1097390
1097534
1097680
1097830
1097976
1098122
1098270
1098420
1098570
1098718
1098872
1099030
1099186
1099350
1099514
1099678
1099838
1099996
1100152
1100306
1100454
1100608
1100758
1100912
1101068
1101218
1101366
1101512
1101660
1101808
1101952
1102096
1102240
1102386
1102534
1102684
1102836
1102988
1103142
1103292
1103442
1103590
1103738
1103884
1104030
1104174
1104318
1104464
1104610
1104760
1104910
1105064
1105220
1105376
1105528
1105680
1105830
1105984
1106136
1106290
1106448
1106604
1106766
1106922
1107076
1107228
1107382
1107534
1107686
1107838
1107988
1108138
1108288
1108442
1108594
1108744
1108896
1109046
1109194
1109342
1109488
1109634
1109782
1109930
1110080
1110226
1110374
1110520
1110668
1110814
1110956
1111098
1111238
1111378
1111518
1111658
1111796
1111936
1112076
1112216
1112354
1112496
1112640
1112780
1112922
1113060
1113200
1113338
1113476
1113614
1113754
1113892
1114030
1114172
1114312
1114452
1114592
1114734
1114876
1115024
1115170
1115316
1115462
1115610
1115756
1115900
1116046
1116192
1116332
1116474
1116616
1116754
1116892
1117030
1117170
1117308
1117450
1117592
1117732
1117870
1118010
1118148
1118290
1118430
1118570
1118708
1118848
1118988
1119128
1119264
1119400
1119534
1119668
1119802
1119938
1120076
1120212
1120344
1120476
1120610
1120746
1120882
1121018
1121156
1121292
1121434
1121578
1121722
1121872
1122026
1122186
1122352
1122514
1122678
1122846
1123014
1123176
1123338
1123502
1123668
1123830
1123990
1124148
1124310
1124484
1124658
1124836
1125020
1125210
1125394
1125576
1125758
1125940
1126118
1126288
1126460
1126630
1126800
1126970
1127136
1127302
1127470
1127632
1127794
1127952
1128114
1128280
1128448
1128612
1128784
1128962
1129142
1129318
1129490
1129660
1129828
1129994
1130154
1130316
1130478
1130640
1130804
1130974
1131144
1131308
1131474
1131646
1131818
1131982
1132146
1132310
1132476
1132638
1132800
1132962
1133126
1133296
1133462
1133626
1133790
1133956
1134114
1134274
1134432
1134590
1134748
1134904
1135060
1135218
1135378
1135544
1135708
1135870
1136030
1136192
1136350
1136508
1136668
1136828
1136988
1137150
1137310
1137470
1137632
1137800
1137970
1138146
1138318
1138484
1138656
1138826
1139000
1139170
1139336
1139504
1139670
1139838
1140004
1140164
1140324
1140480
1140636
1140792
1140964
1141134
1141304
1141474
1141638
1141792
1141948
1142108
1142268
1142426
1142584
1142744
1142904
1143068
1143230
1143390
1143550
1143708
1143868
1144028
1144186
1144340
1144492
1144646
1144800
1144948
1145096
1145244
1145390
1145536
1145684
1145830
1145978
1146128
1146280
1146436
1146590
1146740
1146892
1147044
1147194
1147340
1147488
1147636
1147782
1147932
1148084
1148242
1148402
1148562
1148720
1148874
1149022
1149168
1149312
1149456
1149598
1149738
1149878
1150016
1150152
1150288
1150424
1150558
1150690
1150820
1150950
1151082
1151214
1151350
1151490
1151626
1151764
1151904
1152050
1152194
1152338
1152482
1152624
1152772
1152920
1153064
1153208
1153356
1153506
1153650
1153796
1153942
1154088
1154230
1154374
1154520
1154662
1154802
1154942
1155084
1155226
1155368
1155508
1155648
1155788
1155924
1156062
1156196
1156332
1156464
1156596
1156728
1156860
1156990
1157118
1157246
1157372
1157498
1157626
1157752
1157878
1158004
1158130
1158258
1158388
1158516
1158644
1158772
1158900
1159028
1159158
1159288
1159420
1159548
1159678
1159806
1159936
1160064
1160196
1160326
1160458
1160590
1160724
1160856
1160990
1161124
1161260
1161394
1161530
1161668
1161806
1161944
1162082
1162218
1162354
1162490
1162626
1162760
1162898
1163040
1163184
1163330
1163478
1163624
1163770
1163912
1164056
1164198
1164336
1164470
1164604
1164734
1164864
1164994
1165126
1165258
1165390
1165522
1165656
1165788
1165920
1166050
1166180
1166310
1166440
1166568
1166700
1166832
1166962
1167092
1167222
1167350
1167482
1167610
1167740
1167870
1168000
1168132
1168264
1168396
1168524
1168654
1168788
1168924
1169070
1169222
1169382
1169554
1169730
1169902
1170074
1170248
1170420
1170582
1170742
1170904
1171062
1171210
1171358
1171508
1171664
1171816
1171968
1172122
1172276
1172430
1172584
1172738
1172892
1173046
1173202
1173356
1173508
1173660
1173810
1173962
1174114
1174268
1174420
1174566
1174712
1174864
1175018
1175172
1175326
1175478
1175628
1175774
1175920
1176066
1176214
1176364
1176512
1176660
1176802
1176940
1177080
1177224
1177366
1177512
1177660
1177814
1177968
1178130
1178290
1178460
1178624
1178786
1178944
1179106
1179260
1179410
1179562
1179712
1179862
1180008
1180158
1180304
1180450
1180596
1180742
1180886
1181030
1181174
1181320
1181474
1181624
1181774
1181922
1182072
1182226
1182378
1182532
1182688
1182844
1182996
1183150
1183294
1183446
1183594
1183746
1183898
1184052
1184200
1184346
1184494
1184642
1184790
1184938
1185086
1185230
1185376
1185526
1185678
1185828
1185982
1186138
1186288
1186444
1186598
1186750
1186904
1187064
1187226
1187386
1187542
1187700
1187856
1188014
1188168
1188322
1188476
1188628
1188780
1188930
1189080
1189230
1189376
1189522
1189666
1189812
1189960
1190114
1190270
1190422
1190570
1190714
1190854
1190998
1191144
1191290
1191438
1191588
1191736
1191882
1192032
1192182
1192330
1192478
1192628
1192778
1192928
1193076
1193224
1193376
1193528
1193678
1193830
1193980
1194128
1194278
1194430
1194584
1194744
1194908
1195068
1195226
1195382
1195536
1195690
1195842
1195996
1196154
1196314
1196476
1196636
1196798
1196954
1197112
1197270
1197426
1197584
1197738
1197890
1198042
1198194
1198346
1198496
1198644
1198794
1198940
1199086
1199232
1199374
1199520
1199670
1199822
1199978
1200134
1200292
1200450
1200602
1200752
1200900
1201048
1201196
1201344
1201492
1201638
1201784
1201930
1202076
1202226
1202374
1202526
1202676
1202828
1202982
1203142
1203302
1203464
1203628
1203792
1203950
1204106
1204262
1204420
1204574
1204730
1204886
1205040
1205198
1205356
1205514
1205674
1205834
1205992
1206146
1206302
1206452
1206604
1206758
1206912
1207064
1207214
1207362
1207510
1207656
1207808
1207960
1208120
1208276
1208432
1208592
1208750
1208904
1209058
1209210
1209360
1209508
1209652
1209798
1209946
1210100
1210252
1210404
1210556
1210708
1210862
1211016
1211168
1211318
1211468
1211622
1211776
1211934
1212096
1212264
1212430
1212598
1212754
1212906
1213056
1213204
1213350
1213500
1213652
1213812
1213974
1214152
1214330
1214508
1214690
1214872
1215052
1215216
1215372
1215528
1215680
1215830
1215982
1216134
1216296
1216472
1216650
1216822
1216996
1217168
1217336
1217510
1217686
1217862
1218036
1218208
1218376
1218544
1218704
1218870
1219040
1219212
1219380
1219542
1219706
1219862
1220028
1220190
1220352
1220510
1220668
1220836
1221016
1221190
1221354
1221518
1221684
1221844
1222000
1222156
1222310
1222470
1222630
1222786
1222944
1223102
1223260
1223414
1223568
1223720
1223872
1224022
1224180
1224344
1224504
1224666
1224834
1225002
1225168
1225324
1225476
1225628
1225782
1225936
1226086
1226236
1226390
1226546
1226700
1226860
1227022
1227184
1227350
1227510
1227668
1227828
1227984
1228136
1228292
1228446
1228602
1228758
1228908
1229056
1229208
1229360
1229514
1229676
1229840
1230010
1230172
1230336
1230502
1230670
1230842
1231008
1231166
1231326
1231486
1231642
1231800
1231960
1232114
1232278
1232448
1232624
1232800
1232972
1233108
1233320
1233478
1233640
1233798
1233958
1234114
1234270
1234428
1234586
1234752
1234914
1235078
1235240
1235400
1235554
1235710
1235864
1236020
1236180
1236342
1236520
1236720
1236924
1237118
1237306
1237484
1237604
1237838
1237998
1238162
1238326
1238486
1238654
1238832
1239018
1239208
1239398
1239578
1239762
1239944
1240126
1240304
1240472
1240638
1240802
1240966
1241128
1241294
1241462
1241642
1241820
1241996
1242174
1242340
1242496
1242656
1242812
1242968
1243128
1243290
1243456
1243626
1243792
1243952
1244112
1244270
1244420
1244570
1244718
1244868
1245016
1245164
1245312
1245462
1245612
1245758
1245908
1246060
1246216
1246368
1246522
1246680
1246838
1246996
1247156
1247314
1247464
1247612
1247764
1247916
1248068
1248216
1248364
1248516
1248668
1248816
1248968
1249122
1249272
1249420
1249568
1249714
1249860
1250008
1250166
1250336
1250504
1250662
1250812
1250942
1251110
1251256
1251400
1251546
1251694
1251844
1251990
1252134
1252274
1252418
1252560
1252704
1252856
1253010
1253174
1253344
1253510
1253674
1253844
1254008
1254172
1254336
1254496
1254652
1254808
1254962
1255118
1255270
1255422
1255570
1255718
1255866
1256014
1256164
1256316
1256472
1256624
1256774
1256922
1257074
1257226
1257378
1257534
1257688
1257838
1257986
1258132
1258278
1258424
1258568
1258714
1258858
1259006
1259152
1259298
1259448
1259592
1259744
1259896
1260056
1260208
1260366
1260512
1260662
1260804
1260950
1261094
1261236
1261380
1261524
1261668
1261814
1261962
1262108
1262256
1262400
1262542
1262684
1262828
1262972
1263114
1263256
1263394
1263534
1263676
1263816
1263958
1264100
1264248
1264410
1264582
1264752
1264924
1265102
1265274
1265400
1265606
1265766
1265926
1266092
1266260
1266424
1266584
1266746
1266906
1267068
1267230
1267388
1267548
1267716
1267888
1268058
1268220
1268380
1268544
1268708
1268866
1269026
1269188
1269346
1269506
1269672
1269840
1270008
1270178
1270346
1270510
1270672
1270834
1270998
1271162
1271322
1271484
1271646
1271810
1271974
1272136
1272296
1272450
1272608
1272768
1272938
1273114
1273290
1273466
1273652
1273834
1274012
1274196
1274380
1274556
1274722
1274890
1275058
1275222
1275390
1275558
1275684
1275938
1276118
1276300
1276472
1276644
1276818
1276992
1277166
1277350
1277556
1277758
1277884
1278152
1278324
1278500
1278674
1278850
1279022
1279202
1279396
1279598
1279796
1279988
1280168
1280286
1280532
1280696
1280860
1281028
1281194
1281366
1281550
1281738
1281938
1282138
1282260
1282530
1282698
1282862
1283022
1283180
1283338
1283500
1283678
1283872
1284066
1284246
1284430
1284604
1284734
1284962
1285124
1285282
1285442
1285604
1285768
1285934
1286116
1286320
1286512
1286702
1286916
1287134
1287344
1287546
1287728
1287902
1288064
1288190
1288386
1288544
1288702
1288856
1289014
1289174
1289340
1289508
1289672
1289836
1289994
1290154
1290312
1290472
1290634
1290798
1290962
1291128
1291298
1291458
1291616
1291780
1291942
1292100
1292260
1292426
1292594
1292756
1292918
1293080
1293246
1293412
1293574
1293740
1293910
1294084
1294252
1294420
1294588
1294764
1294940
1295114
1295288
1295462
1295638
1295812
1295990
1296178
1296366
1296548
1296732
1296920
1297096
1297274
1297456
1297642
1297820
1298002
1298190
1298386
1298572
1298748
1298870
1299110
1299274
1299438
1299614
1299796
1299974
1300156
1300350
1300548
1300736
1300928
1301122
1301308
1301484
1301666
1301850
1302028
1302204
1302382
1302562
1302738
1302916
1303092
1303274
1303456
1303628
1303762
1303978
1304144
1304302
1304464
1304632
1304812
1305004
1305198
1305322
1305618
1305802
1305996
1306192
1306380
1306560
1306684
1306938
1307112
1307278
1307444
1307616
1307788
1307960
1308134
1308310
1308480
1308646
1308814
1308974
1309130
1309290
1309452
1309612
1309768
1309920
1310078
1310242
1310404
1310570
1310740
1310910
1311082
1311252
1311416
1311586
1311762
1311938
1312118
1312296
1312482
1312666
1312862
1313062
1313260
1313448
1313640
1313824
1313998
1314166
1314296
1314516
1314678
1314836
1314994
1315154
1315322
1315490
1315668
1315862
1316064
1316256
1316374
1316654
1316834
1317004
1317176
1317348
1317526
1317702
1317888
1318080
1318270
1318456
1318646
1318834
1319012
1319134
1319354
1319520
1319678
1319832
1319992
1320156
1320326
1320504
1320700
1320912
1321116
1321314
1321510
1321704
1321892
1322014
1322234
1322392
1322546
1322698
1322850
1323010
1323186
1323380
1323568
1323694
1323960
1324142
1324316
1324492
1324672
1324852
1324980
1325232
1325418
1325600
1325782
1325978
1326176
1326370
1326562
1326762
1326956
1327140
1327330
1327520
1327702
1327822
1328060
1328232
1328402
1328568
1328740
1328924
1329124
1329252
1329538
1329732
1329920
1330116
1330308
1330436
1330696
1330876
1331054
1331228
1331400
1331584
1331712
1331982
1332156
1332334
1332518
1332702
1332882
1333006
1333262
1333436
1333600
1333764
1333934
1334114
1334304
1334490
1334688
1334890
1335088
1335276
1335398
1335654
1335828
1335992
1336154
1336320
1336498
1336688
1336880
1337092
1337308
1337520
1337714
1337916
1338044
1338310
1338482
1338650
1338822
1338998
1339176
1339362
1339566
1339786
1339988
1340194
1340394
1340580
1340762
1340944
1341130
1341314
1341494
1341688
1341886
1342084
1342274
1342464
1342664
1342862
1343058
1343242
1343426
1343610
1343800
1343988
1344172
1344360
1344482
1344744
1344916
1345090
1345268
1345448
1345632
1345822
1346030
1346246
1346452
1346666
1346880
1347078
1347264
1347384
1347638
1347806
1347970
1348142
1348326
1348528
1348736
1348968
1349094
1349408
1349600
1349794
1349988
1350176
1350368
1350506
1350782
1350964
1351148
1351340
1351536
1351732
1351944
1352076
1352380
1352570
1352766
1352962
1353166
1353360
1353486
1353770
1353962
1354146
1354334
1354532
1354738
1354944
1355148
1355362
1355578
1355780
1355986
1356106
1356394
1356574
1356754
1356940
1357126
1357316
1357530
1357758
1357976
1358202
1358426
1358634
1358830
1359030
1359160
1359424
1359602
1359780
1359962
1360154
1360346
1360558
1360780
1361000
1361210
1361426
1361626
1361810
1361992
1362172
1362344
1362520
1362698
1362876
1363048
1363190
1363396
1363568
1363736
1363900
1364068
1364246
1364434
1364624
1364826
1365034
1365234
1365424
1365622
1365818
1366008
1366194
1366384
1366580
1366768
1366956
1367078
1367334
1367506
1367674
1367844
1368020
1368206
1368394
1368528
1368808
1368994
1369176
1369362
1369548
1369732
1369912
1370042
1370294
1370468
1370634
1370802
1370976
1371158
1371340
1371526
1371650
1371924
1372102
1372274
1372452
1372634
1372812
1372988
1373118
1373364
1373546
1373718
1373890
1374068
1374256
1374458
1374652
1374774
1375054
1375236
1375408
1375582
1375762
1375952
1376142
1376328
1376520
1376720
1376918
1377106
1377300
1377500
1377694
1377878
1378064
1378254
1378452
1378642
1378830
1379024
1379220
1379408
1379528
1379780
1379954
1380122
1380284
1380450
1380624
1380820
1381028
1381156
1381450
1381648
1381838
1382024
1382216
1382416
1382616
1382754
1383016
1383210
1383400
1383588
1383778
1383980
1384178
1384376
1384588
1384800
1384996
1385190
1385332
1385590
1385772
1385952
1386128
1386312
1386496
1386682
1386810
1387082
1387272
1387452
1387630
1387810
1387998
1388190
1388328
1388590
1388782
1388968
1389152
1389346
1389548
1389754
1389950
1390162
1390374
1390582
1390780
1390980
1391182
1391308
1391574
1391746
1391914
1392088
1392266
1392448
1392650
1392870
1393104
1393326
1393550
1393768
1393966
1394160
1394354
1394478
1394738
1394912
1395086
1395260
1395434
1395610
1395806
1396022
1396238
1396442
1396656
1396872
1397078
1397268
1397458
1397644
1397826
1398002
1398178
1398302
1398548
1398718
1398886
1399058
1399238
1399426
1399620
1399810
1399936
1400210
1400386
1400556
1400726
1400900
1401076
1401256
1401432
1401556
1401818
1401998
1402174
1402350
1402528
1402714
1402898
1403080
1403266
1403458
1403650
1403830
1404014
1404198
1404386
1404570
1404746
1404926
1405110
1405300
1405482
1405662
1405792
1406028
1406196
1406362
1406534
1406712
1406902
1407094
1407290
1407422
1407678
1407854
1408020
1408184
1408352
1408520
1408692
1408870
1409058
1409238
1409420
1409602
1409774
1409946
1410124
1410308
1410488
1410622
1410860
1411038
1411206
1411372
1411544
1411722
1411906
1412086
1412266
1412448
1412638
1412830
1413016
1413204
1413400
1413602
1413734
1414006
1414188
1414370
1414550
1414734
1414916
1415092
1415268
1415460
1415670
1415880
1416076
1416280
1416482
1416674
1416858
1416986
1417240
1417412
1417582
1417760
1417956
1418182
1418408
1418624
1418746
1419060
1419256
1419440
1419626
1419816
1420026
1420246
1420460
1420586
1420898
1421090
1421278
1421468
1421666
1421868
1422062
1422200
1422468
1422654
1422834
1423014
1423196
1423400
1423610
1423820
1423946
1424250
1424438
1424618
1424796
1424974
1425154
1425336
1425476
1425748
1425944
1426134
1426328
1426530
1426734
1426932
1427060
1427342
1427532
1427714
1427898
1428082
1428280
1428492
1428698
1428912
1429130
1429350
1429554
1429760
1429886
1430170
1430350
1430528
1430708
1430900
1431102
1431310
1431534
1431766
1431982
1432192
1432398
1432598
1432786
1432916
1433160
1433338
1433516
1433688
1433870
1434066
1434286
1434496
1434626
1434916
1435116
1435308
1435490
1435678
1435874
1436076
1436278
1436410
1436690
1436874
1437048
1437224
1437402
1437588
1437778
1437966
1438108
1438370
1438560
1438740
1438916
1439090
1439266
1439434
1439606
1439784
1439974
1440166
1440350
1440538
1440724
1440908
1441080
1441250
1441424
1441602
1441782
1441958
1442130
1442304
1442484
1442666
1442840
1443006
1443178
1443356
1443542
1443722
1443898
1444080
1444264
1444452
1444632
1444812
1444998
1445192
1445386
1445576
1445764
1445954
1446152
1446350
1446542
1446736
1446938
1447144
1447346
1447542
1447682
1447946
1448134
1448308
1448482
1448664
1448868
1449092
1449306
1449526
1449660
1449970
1450164
1450348
1450536
1450728
1450932
1451140
1451346
1451564
1451790
1452014
1452224
1452434
1452644
1452848
1453040
1453224
1453350
1453606
1453786
1453966
1454142
1454326
1454512
1454732
1454942
1455138
1455340
1455554
1455758
1455956
1456158
1456362
1456552
1456730
1456908
1457088
1457272
1457450
1457632
1457824
1458028
1458236
1458434
1458574
1458834
1459024
1459210
1459390
1459574
1459768
1459980
1460202
1460354
1460634
1460836
1461032
1461210
1461390
1461566
1461748
1461938
1462132
1462332
1462522
1462652
1462894
1463062
1463222
1463380
1463544
1463712
1463886
1464054
1464222
1464394
1464608
1464814
1465020
1465226
1465428
1465628
1465824
1466014
1466200
1466382
1466560
1466734
1466904
1467072
1467242
1467408
1467576
1467746
1467910
1468072
1468238
1468410
1468582
1468752
1468930
1469112
1469290
1469466
1469648
1469832
1470012
1470192
1470378
1470572
1470770
1470964
1471160
1471356
1471550
1471746
1471938
1472134
1472332
1472528
1472716
1472894
1473080
1473270
1473460
1473648
1473846
1474036
1474222
1474414
1474612
1474812
1475002
1475198
1475392
1475584
1475772
1475922
1476150
1476332
1476506
1476684
1476866
1477056
1477240
1477422
1477610
1477800
1477986
1478174
1478366
1478558
1478740
1478922
1479102
1479278
1479452
1479630
1479806
1479982
1480152
1480324
1480496
1480668
1480834
1481006
1481180
1481352
1481522
1481690
1481864
1482040
1482210
1482382
1482562
1482752
1482940
1483128
1483316
1483496
1483672
1483848
1484020
1484188
1484362
1484534
1484702
1484866
1485034
1485204
1485366
1485522
1485680
1485840
1486000
1486158
1486316
1486478
1486646
1486814
1486982
1487140
1487300
1487456
1487608
1487764
1487922
1488082
1488248
1488408
1488564
1488720
1488878
1489034
1489188
1489348
1489508
1489664
1489820
1489982
1490146
1490304
1490464
1490628
1490794
1490958
1491120
1491288
1491454
1491616
1491784
1491950
1492114
1492272
1492430
1492588
1492748
1492906
1493062
1493220
1493380
1493536
1493690
1493844
1494000
1494156
1494318
1494478
1494642
1494804
1494964
1495134
1495310
1495492
1495670
1495848
1496028
1496210
1496388
1496560
1496738
1496918
1497098
1497274
1497450
1497626
1497798
1497968
1498130
1498294
1498460
1498624
1498788
1498958
1499136
1499320
1499496
1499676
1499860
1500052
1500238
1500424
1500614
1500808
1500998
1501180
1501368
1501558
1501756
1501942
1502124
1502308
1502496
1502688
1502874
1503058
1503246
1503436
1503626
1503808
1503996
1504194
1504396
1504590
1504780
1504974
1505170
1505358
1505538
1505726
1505916
1506110
1506300
1506492
1506690
1506890
1507088
1507276
1507470
1507668
1507864
1508050
1508236
1508410
1508626
1508816
1509002
1509186
1509372
1509560
1509754
1509946
1510146
1510344
1510548
1510746
1510940
1511130
1511328
1511522
1511710
1511888
1512062
1512228
1512400
1512578
1512754
1512922
1513092
1513268
1513442
1513618
1513798
1513986
1514170
1514346
1514526
1514710
1514898
1515086
1515268
1515456
1515646
1515838
1516024
1516208
1516398
1516592
1516786
1516972
1517164
1517362
1517562
1517756
1517950
1518142
1518328
1518508
1518680
1518844
1519016
1519190
1519366
1519534
1519706
1519886
1520064
1520234
1520400
1520568
1520726
1520882
1521042
1521210
1521374
1521536
1521702
1521870
1522038
1522204
1522374
1522546
1522722
1522898
1523066
1523238
1523412
1523590
1523768
1523938
1524112
1524292
1524474
1524658
1524834
1525014
1525198
1525384
1525570
1525750
1525940
1526132
1526330
1526516
1526708
1526904
1527104
1527300
1527488
1527680
1527874
1528066
1528254
1528442
1528642
1528852
1529062
1529268
1529476
1529686
1529892
1530090
1530290
1530490
1530694
1530892
1531100
1531316
1531450
1531744
1531942
1532138
1532336
1532534
1532728
1532930
1533144
1533366
1533510
1533798
1534000
1534196
1534380
1534562
1534746
1534936
1535134
1535334
1535546
1535762
1535968
1536178
1536382
1536586
1536782
1536976
1537168
1537366
1537552
1537744
1537936
1538130
1538324
1538530
1538746
1538958
1539160
1539360
1539562
1539766
1539966
1540160
1540362
1540566
1540772
1540968
1541162
1541360
1541562
1541766
1541962
1542160
1542362
1542564
1542758
1542950
1543146
1543350
1543552
1543746
1543950
1544158
1544366
1544564
1544764
1544962
1545158
1545348
1545542
1545738
1545934
1546128
1546328
1546532
1546738
1546934
1547074
1547326
1547506
1547678
1547842
1548010
1548186
1548360
1548538
1548724
1548916
1549106
1549246
1549490
1549674
1549858
1550032
1550210
1550390
1550584
1550790
1550988
1551190
1551384
1551580
1551768
1551958
1552082
1552342
1552520
1552686
1552852
1553016
1553182
1553352
1553518
1553656
1553872
1554044
1554218
1554386
1554554
1554724
1554902
1555086
1555268
1555400
1555652
1555830
1556002
1556168
1556340
1556514
1556690
1556862
1557040
1557216
1557394
1557568
1557738
1557908
1558076
1558242
1558404
1558562
1558720
1558872
1559028
1559186
1559342
1559496
1559652
1559812
1559978
1560144
1560320
1560502
1560692
1560880
1561062
1561246
1561434
1561626
1561812
1561992
1562180
1562372
1562560
1562740
1562922
1563110
1563306
1563504
1563696
1563894
1564096
1564300
1564498
1564700
1564902
1565106
1565300
1565454
1565706
1565888
1566066
1566246
1566430
1566624
1566812
1567012
1567222
1567424
1567624
1567824
1567954
1568224
1568406
1568582
1568760
1568936
1569118
1569308
1569514
1569712
1569836
1570122
1570314
1570494
1570676
1570856
1571040
1571218
1571366
1571602
1571784
1571964
1572144
1572324
1572498
1572666
1572842
1573038
1573240
1573434
1573636
1573840
1574040
1574224
1574350
1574590
1574764
1574932
1575096
1575260
1575432
1575618
1575814
1576006
1576130
1576408
1576592
1576776
1576956
1577146
1577334
1577532
1577736
1577862
1578158
1578360
1578550
1578738
1578930
1579130
1579326
1579532
1579746
1579878
1580176
1580376
1580578
1580776
1580968
1581164
1581294
1581578
1581766
1581954
1582150
1582352
1582558
1582762
1582888
1583198
1583406
1583602
1583804
1584010
1584224
1584432
1584562
1584850
1585046
1585234
1585422
1585604
1585796
1586002
1586218
1586338
1586650
1586834
1587022
1587208
1587394
1587578
1587712
1587978
1588166
1588350
1588534
1588722
1588914
1589106
1589238
1589514
1589692
1589866
1590040
1590210
1590376
1590518
1590718
1590884
1591048
1591214
1591384
1591558
1591726
1591898
1592074
1592242
1592404
1592568
1592726
1592878
1593028
1593180
1593330
1593480
1593630
1593780
1593932
1594082
1594228
1594374
1594520
1594662
1594804
1594944
1595084
1595228
1595370
1595510
1595648
1595792
1595938
1596082
1596222
1596366
1596510
1596662
1596818
1596970
1597120
1597270
1597420
1597572
1597726
1597876
1598024
1598178
1598336
1598500
1598662
1598822
1598980
1599142
1599306
1599468
1599630
1599800
1599982
1600176
1600362
1600544
1600732
1600924
1601110
1601286
1601462
1601648
1601842
1602032
1602212
1602394
1602576
1602756
1602926
1603088
1603256
1603432
1603604
1603788
1603980
1604174
1604352
1604530
1604710
1604898
1605080
1605256
1605428
1605606
1605794
1605986
1606178
1606368
1606550
1606732
1606918
1607112
1607312
1607510
1607696
1607818
1608060
1608234
1608406
1608574
1608736
1608896
1609066
1609264
1609484
1609720
1609938
1610156
1610378
1610594
1610786
1610982
1611172
1611362
1611564
1611774
1611984
1612180
1612382
1612582
1612706
1612980
1613156
1613330
1613506
1613692
1613896
1614110
1614312
1614438
1614738
1614932
1615122
1615312
1615514
1615724
1615932
1616060
1616374
1616578
1616768
1616956
1617148
1617344
1617484
1617766
1617962
1618170
1618394
1618620
1618844
1618980
1619298
1619484
1619662
1619842
1620026
1620220
1620414
1620550
1620840
1621044
1621232
1621424
1621616
1621814
1621966
1622236
1622440
1622650
1622846
1623052
1623264
1623478
1623614
1623892
1624082
1624266
1624442
1624622
1624808
1624996
1625138
1625380
1625558
1625730
1625896
1626062
1626236
1626404
1626564
1626720
1626872
1627026
1627188
1627374
1627570
1627776
1627974
1628172
1628366
1628490
1628724
1628890
1629050
1629214
1629386
1629566
1629754
1629950
1630154
1630360
1630572
1630770
1630962
1631096
1631364
1631538
1631708
1631884
1632070
1632262
1632478
1632732
1632982
1633230
1633476
1633714
1633938
1634144
1634340
1634534
1634730
1634914
1635096
1635220
1635480
1635662
1635838
1636014
1636198
1636392
1636594
1636784
1636912
1637174
1637352
1637528
1637698
1637876
1638060
1638254
1638450
1638574
1638876
1639068
1639250
1639438
1639630
1639822
1640010
1640194
1640386
1640582
1640768
1640948
1641130
1641308
1641488
1641662
1641786
1642022
1642192
1642358
1642520
1642686
1642860
1643044
1643234
1643360
1643654
1643836
1644018
1644198
1644378
1644556
1644696
1644928
1645106
1645280
1645458
1645638
1645822
1646010
1646150
1646408
1646590
1646768
1646950
1647128
1647306
1647474
1647624
1647828
1648004
1648180
1648352
1648528
1648710
1648894
1649072
1649252
1649434
1649616
1649798
1649970
1650142
1650316
1650488
1650656
1650830
1651006
1651180
1651348
1651520
1651696
1651878
1652052
1652228
1652408
1652590
1652764
1652934
1653110
1653290
1653474
1653658
1653834
1654014
1654192
1654376
1654554
1654730
1654918
1655114
1655314
1655506
1655696
1655890
1656080
1656264
1656448
1656640
1656842
1657044
1657236
1657424
1657612
1657804
1657990
1658168
1658354
1658540
1658732
1658916
1659098
1659284
1659474
1659662
1659848
1660040
1660174
1660442
1660630
1660808
1660982
1661164
1661368
1661582
1661790
1662014
1662248
1662374
1662688
1662888
1663090
1663290
1663484
1663684
1663890
1664108
1664330
1664558
1664788
1664910
1665226
1665420
1665608
1665796
1665980
1666160
1666352
1666568
1666800
1667020
1667234
1667448
1667568
1667860
1668042
1668218
1668396
1668568
1668740
1668916
1669088
1669254
1669428
1669612
1669800
1669994
1670196
1670396
1670584
1670710
1670966
1671144
1671312
1671476
1671642
1671816
1671994
1672174
1672364
1672568
1672784
1672990
1673196
1673400
1673604
1673808
1673998
1674148
1674374
1674550
1674724
1674892
1675058
1675234
1675430
1675654
1675872
1676086
1676226
1676518
1676712
1676896
1677082
1677268
1677460
1677652
1677852
1678058
1678270
1678470
1678674
1678802
1679080
1679256
1679428
1679600
1679772
1679944
1680122
1680312
1680506
1680688
1680904
1681096
1681288
1681474
1681660
1681850
1682036
1682216
1682400
1682586
1682772
1682954
1683132
1683312
1683500
1683688
1683872
1684010
1684244
1684418
1684588
1684754
1684924
1685100
1685294
1685486
1685676
1685800
1686066
1686246
1686420
1686588
1686760
1686938
1687130
1687326
1687524
1687722
1687922
1688110
1688288
1688464
1688650
1688830
1689010
1689192
1689322
1689564
1689730
1689888
1690052
1690216
1690386
1690556
1690732
1690928
1691146
1691378
1691596
1691820
1691952
1692258
1692444
1692626
1692812
1693004
1693196
1693392
1693524
1693818
1694002
1694186
1694374
1694572
1694776
1694978
1695106
1695408
1695606
1695794
1695986
1696186
1696392
1696596
1696734
1697018
1697220
1697426
1697624
1697828
1698044
1698172
1698496
1698688
1698876
1699068
1699268
1699482
1699688
1699908
1700140
1700358
1700570
1700778
1700986
1701118
1701404
1701588
1701776
1701972
1702182
1702394
1702608
1702736
1703064
1703274
1703472
1703672
1703866
1704074
1704288
1704414
1704718
1704914
1705104
1705286
1705472
1705668
1705874
1706076
1706210
1706502
1706704
1706898
1707090
1707286
1707488
1707618
1707912
1708108
1708308
1708504
1708698
1708884
1709018
1709300
1709502
1709706
1709910
1710124
1710354
1710504
1710812
1711038
1711260
1711480
1711696
1711924
1712054
1712372
1712564
1712758
1712954
1713158
1713358
1713570
1713702
1714020
1714218
1714424
1714632
1714846
1715064
1715222
1715498
1715716
1715938
1716144
1716358
1716584
1716714
1717006
1717190
1717376
1717566
1717768
1717976
1718190
1718414
1718544
1718848
1719052
1719254
1719454
1719656
1719860
1720056
1720180
1720462
1720648
1720832
1721010
1721194
1721378
1721566
1721748
1721904
1722112
1722286
1722456
1722622
1722798
1722982
1723168
1723362
1723498
1723764
1723948
1724124
1724304
1724486
1724666
1724846
1725022
1725216
1725426
1725640
1725842
1726054
1726266
1726476
1726676
1726882
1727090
1727298
1727498
1727652
1727914
1728110
1728296
1728482
1728670
1728864
1729056
1729260
1729478
1729706
1729838
1730126
1730326
1730526
1730720
1730910
1731104
1731314
1731532
1731748
1731894
1732208
1732404
1732592
1732780
1732970
1733158
1733340
1733514
1733686
1733870
1734060
1734250
1734438
1734634
1734832
1735026
1735210
1735372
1735582
1735768
1735968
1736168
1736364
1736572
1736792
1736970
1737242
1737434
1737624
1737822
1738032
1738252
1738466
1738684
1738820
1739130
1739330
1739518
1739708
1739902
1740106
1740308
1740520
1740732
1740936
1741126
1741318
1741504
1741692
1741880
1742064
1742242
1742418
1742590
1742762
1742934
1743104
1743278
1743446
1743618
1743800
1743988
1744172
1744358
1744550
1744746
1744938
1745126
1745320
1745518
1745712
1745900
1746098
1746306
1746508
1746704
1746910
1747124
1747332
1747532
1747734
1747938
1748138
1748332
1748532
1748700
1748950
1749144
1749338
1749536
1749730
1749928
1750140
1750364
1750588
1750796
1751014
1751234
1751446
1751642
1751838
1751976
1752236
1752416
1752590
1752764
1752932
1753098
1753270
1753464
1753668
1753860
1754062
1754268
1754458
1754638
1754778
1754980
1755142
1755308
1755468
1755628
1755786
1755946
1756106
1756270
1756448
1756640
1756826
1757014
1757202
1757392
1757576
1757750
1757912
1758044
1758242
1758406
1758570
1758730
1758892
1759068
1759260
1759456
1759652
1759856
1760070
1760288
1760492
1760696
1760900
1761038
1761308
1761488
1761668
1761848
1762036
1762226
1762422
1762624
1762836
1763044
1763244
1763444
1763644
1763768
1764048
1764226
1764406
1764590
1764782
1764970
1765170
1765388
1765622
1765752
1766068
1766270
1766468
1766666
1766862
1767060
1767264
1767400
1767688
1767886
1768084
1768282
1768476
1768684
1768902
1769116
1769314
1769516
1769718
1769920
1770112
1770302
1770444
1770704
1770888
1771068
1771252
1771440
1771632
1771822
1772026
1772244
1772474
1772686
1772902
1773110
1773232
1773512
1773700
1773884
1774064
1774236
1774416
1774604
1774812
1775016
1775236
1775362
1775668
1775858
1776050
1776242
1776436
1776626
1776818
1776960
1777210
1777388
1777568
1777752
1777942
1778144
1778348
1778552
1778686
1778972
1779162
1779340
1779520
1779700
1779894
1780086
1780286
1780420
1780714
1780906
1781094
1781282
1781474
1781660
1781842
1782032
1782244
1782464
1782666
1782868
1783068
1783266
1783458
1783654
1783848
1784028
1784238
1784416
1784594
1784778
1784968
1785150
1785330
1785518
1785714
1785912
1786104
1786290
1786482
1786676
1786874
1787064
1787258
1787394
1787650
1787832
1788010
1788194
1788386
1788598
1788812
1789034
1789178
1789500
1789718
1789922
1790122
1790328
1790536
1790690
1790970
1791174
1791376
1791582
1791796
1792016
1792236
1792384
1792684
1792888
1793082
1793272
1793466
1793676
1793892
1794098
1794230
1794518
1794716
1794906
1795092
1795286
1795496
1795720
1795936
1796062
1796378
1796580
1796770
1796964
1797162
1797362
1797558
1797750
1797954
1798162
1798374
1798574
1798716
1798992
1799188
1799376
1799558
1799751
1799949
