peaks
162
342
524
710
898
1080
1260
1440
1618
1800
1978
2152
2328
2502
2676
2848
3024
3200
3376
3550
3728
3908
4086
4262
4440
4616
4792
4966
5136
5308
5480
5652
5822
5992
6164
6336
6510
6682
6858
7034
7208
7384
7562
7738
7916
8096
8274
8448
8624
8796
8964
9130
9298
9464
9628
9800
9972
10146
10320
10500
10680
10862
11038
11218
11396
11576
11752
11928
12106
12286
12464
12644
12828
13012
13192
13372
13552
13732
13916
14102
14292
14482
14674
14866
15050
15234
15422
15612
15802
15990
16182
16376
16568
16760
16950
17140
17332
17522
17716
17908
18104
18302
18498
18696
18888
19082
19274
19468
19658
19848
20042
20238
20436
20632
20828
21020
21210
21398
21592
21784
21984
22180
22380
22584
22790
22984
23180
23380
23574
23762
23954
24150
24350
24546
24742
24938
25136
25336
25534
25730
25930
26132
26330
26526
26720
26914
27110
27300
27484
27668
27854
28038
28222
28408
28596
28780
28966
29150
29334
29514
29692
29874
30058
30246
30438
30636
30830
31022
31210
31402
31594
31786
31978
32172
32368
32574
32768
32970
33172
33380
33582
33786
33982
34188
34390
34594
34790
34988
35188
35388
35584
35778
35968
36172
36372
36574
36774
36974
37174
37374
37576
37776
37972
38166
38360
38552
38740
38926
39106
39286
39472
39662
39852
40046
40240
40436
40634
40830
41028
41222
41412
41610
41810
42008
42208
42408
42616
42814
43016
43218
43424
43628
43836
44034
44234
44432
44626
44816
45004
45190
45380
45576
45772
45964
46162
46360
46562
46760
46960
47160
47370
47576
47784
47992
48200
48412
48616
48818
49018
49220
49422
49626
49826
50032
50236
50440
50642
50850
51050
51242
51436
51636
51840
52044
52244
52436
52634
52828
53022
53214
53400
53590
53780
53968
54156
54346
54536
54730
54920
55112
55308
55506
55704
55902
56098
56296
56494
56684
56876
57064
57254
57444
57632
57816
58002
58192
58380
58564
58742
58924
59106
59292
59478
59666
59856
60052
60248
60440
60634
60832
61034
61228
61424
61622
61820
62022
62220
62410
62600
62794
62984
63172
63322
63544
63728
63920
64110
64300
64492
64688
64884
65080
65280
65472
65676
65880
66084
66284
66488
66686
66882
67076
67268
67458
67652
67842
68032
68222
68410
68598
68782
68972
69164
69358
69550
69746
69940
70136
70326
70516
70706
70896
71084
71270
71458
71646
71834
72022
72202
72380
72556
72732
72906
73082
73258
73438
73620
73806
73994
74182
74368
74558
74748
74940
75132
75328
75522
75720
75916
76112
76300
76490
76678
76872
77062
77252
77442
77634
77832
78022
78220
78416
78618
78812
79006
79200
79394
79588
79778
79972
80166
80358
80550
80744
80940
81136
81328
81526
81718
81912
82102
82292
82482
82670
82862
83052
83246
83440
83632
83830
84026
84228
84422
84622
84820
85022
85222
85420
85616
85814
86012
86208
86402
86594
86790
86996
87194
87402
87606
87822
88030
88240
88446
88654
88856
89052
89248
89442
89640
89834
90018
90200
90380
90556
90736
90916
91100
91292
91486
91676
91866
92056
92250
92446
92640
92834
93038
93240
93446
93644
93848
94052
94256
94456
94652
94856
95062
95268
95468
95676
95884
96084
96286
96478
96672
96864
97060
97250
97442
97634
97824
98012
98198
98382
98562
98742
98928
99116
99308
99504
99704
99900
100098
100296
100492
100690
100884
101080
101276
101474
101666
101860
102054
102250
102436
102628
102824
103032
103238
103442
103646
103848
104048
104250
104446
104642
104842
105040
105236
105430
105616
105804
105990
106176
106358
106540
106726
106910
107092
107272
107450
107624
107792
107962
108134
108304
108478
108656
108836
109018
109202
109384
109566
109746
109926
110108
110286
110462
110638
110818
110998
111178
111360
111544
111730
111914
112096
112282
112468
112654
112846
113032
113216
113400
113588
113776
113962
114150
114334
114526
114720
114908
115100
115290
115482
115672
115862
116050
116238
116422
116608
116790
116972
117156
117340
117518
117698
117880
118062
118242
118426
118529
118804
118990
119176
119362
119542
119722
119898
120072
120242
120414
120588
120766
120942
121116
121288
121456
121622
121788
121954
122122
122290
122462
122636
122808
122982
123158
123334
123506
123678
123850
124022
124192
124362
124534
124708
124880
125056
125238
125428
125616
125804
125988
126172
126358
126544
126728
126916
127106
127296
127480
127658
127838
128018
128196
128374
128548
128722
128898
129072
129244
129412
129578
129752
129932
130124
130310
130508
130702
130896
131082
131266
131448
131628
131808
131990
132174
132360
132546
132736
132924
133116
133306
133502
133690
133880
134068
134260
134452
134646
134838
135030
135220
135404
135590
135774
135960
136142
136326
136514
136698
136888
137084
137280
137484
137684
137880
138066
138266
138470
138672
138878
139072
139264
139454
139644
139830
140018
140202
140392
140578
140764
140952
141146
141342
141544
141740
141938
142130
142324
142516
142704
142888
143072
143250
143426
143604
143782
143960
144144
144332
144528
144726
144916
145108
145298
145482
145670
145856
146042
146230
146414
146602
146792
146992
147186
147378
147582
147782
147990
148184
148384
148584
148780
148972
149160
149350
149534
149720
149904
150094
150288
150480
150672
150862
151056
151246
151438
151630
151822
152014
152214
152374
152610
152794
152984
153162
153336
153512
153684
153860
154038
154222
154406
154594
154782
154972
155164
155352
155540
155734
155928
156130
156324
156522
156722
156918
157108
157294
157482
157670
157854
158038
158226
158416
158608
158798
158984
159166
159346
159522
159706
159888
160072
160258
160440
160620
160804
160990
161174
161366
161554
161744
161936
162130
162322
162514
162706
162896
163084
163270
163450
163630
163812
163994
164174
164358
164548
164752
164952
165156
165364
165568
165768
165970
166164
166358
166550
166738
166922
167106
167290
167474
167656
167838
168024
168210
168394
168582
168768
168952
169138
169324
169510
169690
169874
170056
170236
170410
170584
170756
170928
171102
171280
171458
171636
171818
172002
172188
172378
172570
172758
172948
173136
173324
173510
173696
173884
174074
174266
174458
174656
174850
175044
175236
175432
175624
175814
176002
176192
176380
176566
176750
176932
177116
177304
177488
177670
177856
178044
178228
178414
178600
178786
178972
179156
179340
179524
179712
179900
180084
180274
180462
180648
180832
181018
181200
181382
181562
181746
181924
182102
182278
182458
182636
182814
182990
183168
183348
183532
183712
183890
184068
184250
184426
184598
184772
184954
185138
185332
185526
185712
185904
186094
186282
186474
186656
186840
187028
187216
187404
187590
187780
187968
188156
188344
188530
188714
188898
189088
189270
189452
189640
189830
190014
190198
190378
190556
190732
190908
191082
191256
191434
191612
191790
191968
192146
192324
192496
192670
192844
193020
193202
193386
193574
193762
193952
194140
194328
194518
194708
194892
195072
195258
195440
195624
195806
195992
196180
196368
196554
196742
196928
197112
197296
197476
197654
197832
198008
198186
198358
198530
198704
198874
199050
199228
199412
199600
199784
199972
200160
200344
200526
200706
200882
201054
201224
201392
201562
201728
201896
202068
202244
202418
202588
202760
202932
203108
203286
203464
203644
203828
204014
204200
204384
204568
204750
204936
205120
205306
205494
205682
205868
206058
206246
206434
206624
206816
207000
207186
207372
207560
207746
207934
208118
208294
208474
208652
208830
209002
209174
209350
209526
209704
209886
210070
210254
210438
210624
210806
210986
211162
211342
211522
211700
211880
212058
212236
212412
212586
212758
212936
213112
213290
213466
213640
213818
214000
214182
214362
214548
214740
214934
215120
215308
215492
215680
215866
216044
216224
216400
216584
216764
216942
217122
217308
217496
217682
217870
218060
218246
218430
218620
218812
219008
219206
219404
219606
219808
220006
220202
220394
220586
220774
220964
221152
221342
221530
221716
221898
222066
222260
222438
222618
222798
222984
223162
223344
223524
223708
223892
224072
224254
224434
224614
224798
224980
225162
225344
225526
225708
225886
226060
226234
226404
226578
226748
226922
227098
227282
227470
227656
227838
228022
228208
228394
228578
228766
228952
229144
229336
229530
229724
229916
230108
230298
230486
230670
230854
231038
231220
231400
231582
231764
231944
232124
232298
232474
232650
232824
232998
233170
233338
233508
233680
233852
234022
234188
234354
234520
234684
234848
235014
235182
235348
235516
235686
235858
236030
236200
236372
236548
236722
236896
237078
237258
237438
237618
237794
237964
238134
238304
238474
238646
238816
238988
239160
239328
239494
239662
239824
239992
240154
240318
240484
240648
240812
240976
241142
241312
241488
241668
241844
242024
242206
242390
242572
242758
242948
243138
243328
243514
243700
243882
244066
244252
244434
244614
244796
244980
245166
245354
245542
245722
245906
246094
246280
246462
246644
246832
247016
247202
247386
247566
247744
247922
248094
248272
248448
248624
248802
248978
249156
249336
249516
249698
249878
250054
250230
250406
250582
250758
250932
251108
251290
251480
251664
251846
252030
252218
252406
252592
252778
252964
253148
253330
253512
253692
253872
254052
254234
254412
254586
254760
254932
255104
255276
255446
255612
255778
255948
256124
256304
256490
256674
256866
257054
257244
257434
257618
257800
257982
258158
258336
258514
258696
258872
259050
259228
259406
259582
259760
259934
260112
260292
260472
260654
260834
261020
261204
261392
261574
261754
261932
262104
262278
262450
262624
262798
262970
263148
263326
263504
263680
263854
264026
264194
264364
264530
264700
264870
265044
265214
265386
265556
265728
265902
266076
266250
266426
266606
266782
266960
267138
267316
267492
267666
267840
268014
268190
268364
268538
268714
268890
269064
269238
269410
269580
269748
269912
270076
270240
270402
270564
270722
270882
271044
271210
271374
271538
271700
271868
272040
272214
272398
272582
272768
272948
273130
273308
273484
273662
273836
274010
274186
274364
274542
274720
274900
275076
275252
275422
275594
275764
275936
276108
276284
276458
276636
276810
276984
277154
277322
277492
277658
277822
277984
278148
278310
278476
278640
278804
278968
279132
279292
279452
279614
279776
279938
280102
280266
280434
280600
280766
280936
281108
281274
281438
281600
281762
281924
282084
282250
282412
282574
282738
282906
283076
283240
283404
283572
283744
283918
284086
284254
284426
284598
284774
284950
285126
285306
285488
285668
285844
286020
286196
286368
286540
286708
286874
287040
287206
287368
287530
287690
287852
288012
288176
288340
288506
288670
288834
289000
289166
289332
289496
289658
289822
289988
290158
290326
290498
290674
290856
291038
291218
291394
291570
291746
291918
292094
292262
292432
292602
292772
292940
293106
293268
293428
293590
293750
293910
294072
294236
294400
294566
294732
294898
295060
295220
295382
295546
295708
295868
296030
296198
296362
296530
296694
296856
297018
297178
297340
297502
297664
297828
297992
298156
298320
298482
298644
298808
298968
299132
299294
299456
299620
299784
299948
300116
300282
300448
300614
300778
300942
301106
301268
301432
301592
301754
301918
302082
302244
302406
302572
302736
302894
303052
303208
303364
303522
303678
303838
303996
304154
304310
304470
304628
304786
304946
305106
305268
305430
305592
305754
305916
306080
306244
306408
306570
306738
306902
307066
307230
307392
307558
307724
307888
308054
308216
308376
308536
308700
308864
309024
309184
309344
309502
309660
309818
309976
310136
310292
310450
310606
310758
310910
311060
311212
311360
311510
311662
311814
311968
312122
312284
312450
312620
312786
312956
313130
313304
313474
313642
313808
313972
314138
314304
314468
314634
314800
314968
315138
315306
315474
315640
315808
315978
316146
316314
316484
316656
316824
316990
317156
317320
317484
317644
317808
317970
318136
318300
318468
318638
318806
318972
319136
319300
319464
319628
319794
319954
320116
320282
320446
320612
320772
320930
321090
321254
321418
321580
321742
321904
322068
322232
322396
322556
322716
322878
323044
323208
323372
323534
323700
323868
324036
324208
324376
324544
324710
324876
325042
325210
325378
325544
325712
325878
326044
326206
326366
326524
326682
326838
326992
327146
327298
327456
327616
327780
327940
328100
328262
328424
328586
328750
328912
329076
329244
329412
329586
329762
329936
330108
330282
330456
330624
330790
330956
331124
331294
331462
331628
331796
331964
332134
332300
332464
332628
332790
332954
333118
333284
333448
333612
333778
333944
334108
334272
334434
334594
334756
334918
335082
335244
335412
335582
335750
335918
336084
336252
336418
336582
336750
336918
337086
337256
337424
337594
337762
337928
338100
338270
338438
338604
338772
338938
339100
339264
339424
339582
339738
339896
340056
340216
340376
340536
340696
340854
341016
341178
341342
341508
341674
341844
342014
342186
342356
342526
342696
342866
343036
343202
343368
343472
343698
343860
344026
344192
344358
344520
344684
344850
345016
345184
345350
345520
345690
345858
346026
346200
346370
346538
346708
346876
347044
347210
347378
347546
347714
347884
348054
348220
348384
348544
348704
348862
349022
349184
349346
349510
349672
349842
350010
350176
350342
350508
350674
350840
351006
351174
351342
351512
351682
351850
352016
352178
352336
352496
352656
352816
352976
353136
353298
353464
353630
353800
353972
354140
354310
354478
354646
354812
354976
355136
355300
355462
355620
355780
355942
356102
356258
356414
356570
356724
356876
357030
357186
357340
357496
357652
357810
357972
358134
358296
358454
358614
358778
358944
359110
359272
359434
359598
359760
359924
360084
360244
360404
360566
360728
360890
361050
361208
361368
361532
361700
361864
362034
362204
362380
362552
362726
362900
363074
363248
363418
363588
363758
363924
364088
364248
364408
364566
364722
364880
365046
365214
365384
365550
365718
365888
366054
366220
366388
366554
366722
366888
367058
367228
367400
367576
367750
367926
368100
368272
368442
368610
368776
368944
369110
369276
369448
369622
369796
369968
370138
370308
370478
370646
370810
370972
371134
371296
371458
371620
371778
371936
372092
372246
372400
372556
372714
372872
373036
373200
373362
373526
373694
373858
374022
374184
374344
374506
374666
374826
374986
375146
375306
375466
375628
375788
375948
376106
376262
376420
376580
376742
376906
377074
377242
377414
377584
377760
377930
378100
378266
378428
378594
378756
378920
379084
379248
379416
379580
379744
379904
380064
380224
380386
380550
380714
380882
381052
381222
381392
381562
381730
381896
382058
382222
382384
382544
382704
382870
383036
383202
383370
383536
383702
383870
384042
384208
384374
384540
384704
384872
385038
385204
385370
385536
385700
385860
386018
386176
386334
386496
386660
386828
386996
387162
387330
387500
387668
387834
387996
388160
388324
388488
388652
388812
388976
389136
389298
389458
389618
389774
389928
390088
390250
390414
390580
390742
390908
391074
391240
391410
391578
391744
391912
392080
392248
392412
392578
392742
392910
393074
393240
393406
393572
393738
393902
394070
394232
394396
394560
394728
394896
395064
395234
395404
395574
395740
395904
396068
396230
396396
396562
396726
396888
397052
397214
397376
397534
397692
397850
398010
398170
398330
398486
398646
398806
398970
399136
399308
399478
399648
399816
399922
400162
400334
400502
400674
400844
401014
401182
401350
401514
401674
401832
401990
402144
402300
402456
402614
402778
402942
403108
403274
403438
403602
403764
403926
404086
404248
404408
404568
404726
404886
405046
405206
405368
405530
405694
405856
406018
406182
406348
406514
406680
406846
407012
407178
407344
407506
407668
407830
407992
408154
408316
408474
408634
408794
408960
409126
409290
409454
409616
409778
409938
410100
410262
410426
410594
410758
410924
411088
411250
411410
411566
411722
411874
412028
412184
412340
412502
412664
412830
412994
413158
413320
413480
413642
413800
413958
414114
414272
414430
414586
414744
414900
415056
415216
415378
415534
415694
415858
416024
416194
416364
416536
416706
416876
417042
417210
417374
417538
417706
417876
418050
418224
418400
418574
418752
418926
419098
419268
419434
419598
419766
419934
420098
420262
420428
420592
420758
420924
421090
421250
421412
421578
421742
421906
422070
422238
422404
422572
422744
422916
423086
423252
423420
423590
423758
423926
424096
424266
424440
424610
424780
424950
425118
425286
425454
425622
425792
425960
426128
426296
426464
426630
426798
426972
427144
427312
427474
427640
427806
427978
428150
428326
428498
428670
428844
429022
429196
429370
429548
429726
429902
430078
430250
430422
430598
430776
430958
431136
431312
431488
431664
431838
432014
432192
432370
432544
432722
432900
433080
433258
433436
433608
433782
433958
434134
434304
434474
434646
434824
435004
435180
435358
435534
435708
435878
436048
436220
436392
436560
436732
436902
437072
437240
437408
437580
437746
437914
438076
438240
438404
438570
438738
438910
439080
439256
439428
439602
439772
439942
440112
440284
440456
440628
440798
440962
441122
441284
441442
441602
441762
441926
442086
442246
442408
442568
442732
442888
443050
443210
443370
443530
443690
443848
444006
444164
444322
444482
444646
444810
444968
445130
445292
445454
445618
445778
445940
446100
446260
446424
446592
446760
446922
447086
447250
447418
447580
447742
447908
448078
448252
448422
448598
448770
448940
449112
449286
449456
449626
449792
449958
450126
450298
450468
450640
450812
450986
451158
451330
451502
451674
451846
452020
452192
452360
452526
452690
452852
453018
453180
453344
453506
453674
453846
454020
454190
454364
454540
454712
454886
455062
455234
455410
455590
455772
455952
456130
456308
456490
456670
456844
457016
457188
457358
457524
457690
457856
458020
458182
458346
458508
458668
458824
458982
459144
459304
459464
459628
459790
459954
460118
460286
460454
460620
460784
460948
461114
461276
461440
461602
461766
461934
462100
462262
462420
462580
462738
462898
463058
463222
463390
463562
463732
463906
464080
464256
464432
464604
464774
464942
465110
465276
465442
465602
465766
465932
466098
466266
466430
466594
466756
466918
467076
467232
467390
467546
467704
467862
468024
468184
468348
468510
468670
468832
468992
469152
469310
469470
469632
469792
469954
470114
470278
470440
470606
470772
470936
471098
471260
471424
471592
471764
471930
472098
472266
472436
472600
472768
472934
473098
473262
473424
473588
473748
473906
474066
474224
474382
474540
474698
474856
475020
475188
475360
475534
475708
475878
476056
476230
476404
476574
476744
476912
477084
477250
477414
477580
477748
477920
478092
478262
478432
478594
478760
478926
479096
479262
479432
479572
479780
479946
480112
480274
480438
480600
480760
480922
481086
481250
481416
481582
481752
481922
482092
482260
482430
482594
482758
482918
483080
483244
483408
483570
483732
483896
484064
484234
484402
484570
484742
484914
485082
485252
485424
485592
485758
485926
486094
486258
486416
486574
486730
486884
487036
487188
487340
487492
487646
487804
487960
488118
488274
488436
488596
488752
488910
489064
489218
489370
489522
489674
489828
489976
490124
490272
490420
490566
490710
490856
490996
491136
491276
491420
491566
491712
491862
492010
492158
492308
492458
492612
492762
492914
493066
493220
493378
493532
493684
493840
493996
494150
494304
494456
494608
494760
494914
495070
495230
495392
495552
495710
495868
496026
496178
496332
496482
496638
496792
496946
497102
497256
497412
497564
497716
497870
498022
498174
498322
498472
498620
498768
498916
499064
499212
499362
499512
499664
499816
499968
500114
500264
500414
500566
500720
500876
501028
501186
501342
501498
501652
501812
501974
502138
502298
502460
502624
502788
502950
503114
503276
503436
503592
503750
503902
504052
504206
504362
504520
504678
504838
504998
505162
505328
505494
505660
505826
505994
506158
506322
506488
506654
506820
506986
507148
507314
507482
507652
507820
507982
508144
508306
508466
508624
508780
508936
509094
509256
509414
509572
509734
509892
510046
510202
510358
510514
510670
510828
510984
511144
511300
511458
511618
511780
511940
512098
512258
512414
512572
512730
512892
513056
513218
513380
513548
513720
513888
514054
514216
514380
514538
514696
514854
515010
515164
515320
515482
515644
515806
515964
516122
516282
516444
516606
516768
516934
517104
517274
517446
517618
517790
517962
518136
518308
518476
518642
518810
518978
519144
519310
519476
519648
519814
519976
520140
520300
520456
520612
520768
520924
521082
521242
521404
521568
521728
521890
522046
522208
522370
522528
522686
522848
523012
523178
523348
523520
523694
523862
524032
524202
524372
524544
524716
524886
525058
525228
525396
525560
525724
525886
526048
526216
526388
526560
526730
526904
527080
527254
527426
527592
527754
527926
528102
528282
528462
528640
528814
528986
529158
529328
529496
529664
529830
529996
530166
530338
530512
530682
530854
531026
531194
531362
531530
531694
531858
532022
532186
532348
532512
532672
532832
532992
533148
533304
533462
533614
533768
533922
534078
534242
534410
534574
534738
534900
535064
535226
535388
535548
535710
535870
536030
536190
536350
536508
536666
536824
536978
537132
537286
537442
537598
537750
537906
538062
538216
538372
538526
538686
538846
539004
539162
539322
539484
539644
539804
539962
540122
540282
540440
540602
540764
540926
541086
541246
541406
541558
541720
541882
542042
542200
542362
542520
542680
542838
543000
543162
543324
543482
543638
543796
543954
544110
544266
544418
544568
544722
544878
545038
545200
545360
545518
545678
545838
545998
546154
546312
546468
546624
546786
546948
547112
547274
547434
547596
547758
547922
548086
548252
548418
548586
548758
548928
549100
549270
549436
549602
549768
549932
550092
550256
550422
550586
550748
550910
551072
551236
551400
551564
551726
551888
552050
552214
552378
552542
552708
552874
553042
553212
553382
553548
553708
553870
554034
554200
554362
554528
554696
554862
555028
555196
555360
555522
555684
555848
556016
556180
556346
556514
556682
556850
557018
557186
557350
557516
557684
557848
558012
558174
558336
558500
558666
558830
558994
559156
559320
559482
559648
559812
559982
560152
560324
560500
560672
560848
561022
561198
561370
561542
561712
561880
562044
562208
562370
562528
562686
562846
563004
563160
563316
563470
563622
563776
563932
564086
564244
564406
564568
564730
564890
565048
565206
565362
565520
565684
565846
566008
566170
566334
566498
566658
566818
566982
567146
567304
567462
567622
567782
567942
568102
568264
568428
568562
568704
568910
569078
569244
569408
569568
569728
569888
570048
570204
570358
570512
570664
570816
570970
571118
571270
571422
571574
571726
571882
572038
572192
572348
572504
572662
572816
572972
573124
573276
573430
573584
573740
573892
574044
574196
574352
574510
574668
574826
574982
575140
575298
575454
575612
575766
575922
576076
576234
576392
576548
576704
576858
577008
577158
577308
577458
577606
577754
577902
578056
578212
578364
578516
578670
578824
578974
579120
579244
579398
579566
579714
579862
580010
580162
580312
580460
580610
580764
580916
581068
581216
581366
581518
581670
581822
581972
582124
582278
582430
582580
582730
582878
583024
583170
583316
583462
583610
583760
583908
584058
584206
584358
584506
584656
584804
584948
585088
585228
585370
585510
585652
585794
585940
586088
586236
586384
586532
586682
586832
586980
587128
587278
587428
587576
587728
587878
588028
588176
588324
588472
588618
588762
588908
589054
589202
589346
589490
589636
589784
589930
590074
590220
590364
590508
590654
590802
590946
591090
591230
591378
591524
591668
591812
591958
592102
592248
592392
592540
592686
592830
592972
593112
593252
593390
593530
593668
593804
593944
594084
594222
594364
594506
594650
594792
594936
595082
595226
595370
595518
595664
595812
595958
596106
596252
596396
596542
596686
596828
596968
597108
597248
597386
597526
597666
597804
597944
598086
598230
598376
598522
598666
598810
598952
599094
599234
599376
599518
599662
599806
599952
600096
600244
600392
600542
600690
600834
600980
601124
601272
601416
601558
601700
601842
601986
602128
602270
602410
602550
602688
602828
602966
603110
603252
603396
603540
603684
603828
603970
604110
604254
604398
604540
604682
604824
604970
605114
605256
605396
605538
605682
605828
605972
606116
606260
606402
606544
606684
606826
606966
607108
607250
607392
607538
607682
607826
607972
608116
608262
608408
608550
608694
608836
608976
609116
609252
609392
609530
609670
609810
609948
610088
610230
610372
610514
610658
610800
610944
611088
611234
611382
611528
611674
611820
611966
612112
612258
612402
612542
612680
612820
612962
613106
613248
613392
613536
613682
613828
613976
614124
614272
614416
614556
614698
614840
614982
615120
615256
615392
615528
615668
615810
615954
616098
616240
616384
616528
616670
616814
616954
617096
617240
617384
617526
617670
617814
617956
618096
618236
618376
618518
618658
618798
618940
619080
619222
619364
619506
619650
619794
619936
620078
620224
620368
620510
620652
620794
620936
621080
621222
621364
621504
621646
621786
621926
622068
622210
622352
622492
622632
622772
622910
623048
623188
623330
623470
623612
623754
623896
624040
624182
624322
624460
624596
624732
624870
625010
625152
625294
625438
625588
625736
625886
626034
626184
626332
626478
626622
626766
626908
627048
627188
627330
627470
627612
627758
627904
628050
628198
628344
628492
628638
628782
628926
629068
629210
629352
629494
629636
629776
629914
630056
630196
630336
630474
630610
630750
630890
631028
631166
631304
631444
631584
631726
631868
632010
632154
632296
632436
632578
632720
632862
633004
633146
633286
633428
633570
633712
633856
634000
634142
634280
634424
634566
634710
634850
634990
635134
635276
635418
635560
635704
635852
635998
636142
636286
636428
636572
636716
636860
637008
637156
637306
637454
637600
637748
637896
638044
638190
638332
638470
638608
638748
638890
639030
639166
639306
639446
639584
639722
639862
640002
640140
640274
640408
640542
640680
640818
640956
641096
641238
641382
641526
641670
641818
641962
642104
642246
642390
642534
642676
642816
642958
643100
643242
643384
643526
643670
643812
643952
644092
644230
644370
644508
644646
644784
644922
645060
645202
645344
645488
645630
645772
645916
646058
646202
646342
646484
646626
646768
646908
647052
647196
647340
647482
647622
647762
647900
648038
648174
648310
648446
648586
648728
648872
649016
649162
649308
649454
649598
649746
649894
650038
650178
650318
650460
650600
650740
650878
651018
651158
651296
651436
651578
651722
651866
652008
652148
652288
652428
652566
652708
652850
652990
653130
653274
653418
653564
653708
653852
653994
654136
654274
654412
654548
654686
654826
654966
655108
655250
655398
655544
655694
655842
655988
656136
656282
656426
656570
656714
656860
657006
657154
657300
657444
657592
657742
657888
658032
658176
658324
658470
658612
658756
658900
659040
659182
659322
659462
659606
659750
659892
660036
660178
660320
660464
660608
660750
660896
661044
661192
661342
661488
661634
661780
661926
662070
662214
662356
662498
662642
662784
662928
663072
663214
663354
663492
663632
663770
663910
664044
664180
664314
664452
664590
664730
664868
665008
665146
665286
665428
665570
665714
665856
665994
666134
666274
666412
666552
666688
666826
666964
667102
667240
667378
667518
667656
667792
667928
668062
668196
668332
668468
668602
668736
668872
669006
669142
669278
669420
669556
669694
669830
669966
670104
670242
670378
670514
670648
670784
670920
671056
671192
671330
671462
671596
671728
671860
671992
672124
672258
672392
672526
672658
672792
672928
673066
673202
673338
673474
673612
673750
673888
674024
674162
674300
674438
674578
674720
674866
675008
675150
675294
675438
675582
675728
675874
676022
676168
676316
676460
676602
676748
676896
677044
677192
677340
677492
677640
677788
677934
678076
678220
678364
678506
678648
678790
678932
679074
679214
679354
679494
679636
679778
679918
680060
680202
680348
680492
680636
680778
680920
681064
681208
681350
681490
681632
681774
681918
682064
682208
682352
682494
682638
682782
682928
683076
683222
683368
683514
683662
683810
683956
684100
684244
684388
684530
684674
684818
684966
685114
685260
685408
685550
685690
685832
685976
686116
686256
686394
686534
686674
686812
686950
687090
687228
687370
687510
687618
687792
687934
688076
688220
688364
688508
688652
688798
688946
689096
689246
689390
689536
689684
689830
689972
690116
690262
690410
690560
690708
690858
691008
691158
691308
691456
691602
691744
691888
692032
692178
692322
692472
692622
692772
692922
693070
693218
693364
693510
693658
693806
693954
694100
694248
694398
694548
694696
694846
694996
695146
695300
695448
695596
695746
695898
696052
696204
696354
696506
696656
696806
696956
697106
697254
697400
697542
697686
697830
697974
698118
698266
698416
698568
698720
698874
699028
699182
699336
699490
699644
699798
699954
700110
700264
700420
700576
700734
700890
701044
701202
701364
701526
701684
701844
702002
702160
702318
702476
702630
702784
702938
703094
703246
703400
703552
703706
703860
704014
704164
704318
704470
704622
704772
704924
705076
705224
705372
705520
705670
705820
705972
706130
706290
706446
706598
706756
706914
707072
707226
707376
707528
707680
707830
707980
708132
708282
708432
708582
708732
708886
709034
709182
709326
709468
709610
709752
709900
710044
710190
710338
710488
710638
710790
710942
711094
711242
711392
711544
711696
711846
711992
712140
712290
712444
712596
712746
712898
713052
713208
713366
713522
713680
713838
713996
714154
714312
714470
714624
714780
714934
715088
715238
715392
715544
715692
715840
715990
716140
716288
716440
716590
716740
716892
717042
717192
717346
717494
717646
717798
717954
718108
718262
718418
718574
718732
718892
719046
719198
719352
719506
719660
719814
719966
720120
720274
720426
720580
720734
720884
721036
721186
721334
721480
721628
721778
721926
722078
722228
722382
722536
722688
722840
722988
723134
723280
723428
723580
723728
723878
724032
724184
724334
724486
724640
724792
724942
725090
725236
725384
725536
725692
725850
726010
726170
726324
726482
726636
726788
726934
727080
727226
727376
727526
727678
727828
727978
728130
728282
728438
728594
728746
728900
729056
729210
729364
729518
729676
729834
729990
730152
730314
730474
730634
730792
730950
731108
731266
731422
731578
731734
731892
732050
732206
732362
732518
732674
732828
732986
733140
733296
733448
733598
733752
733908
734058
734208
734362
734514
734666
734818
734968
735118
735268
735414
735560
735704
735850
736000
736154
736314
736474
736636
736796
736958
737122
737280
737440
737602
737760
737916
738074
738236
738398
738558
738716
738874
739034
739194
739360
739524
739686
739846
740004
740166
740324
740480
740634
740786
740936
741084
741232
741376
741520
741662
741806
741950
742096
742242
742396
742552
742704
742858
743016
743172
743328
743482
743640
743800
743958
744116
744274
744432
744590
744748
744908
745064
745218
745376
745534
745692
745850
746010
746170
746330
746490
746648
746804
746960
747112
747268
747426
747584
747742
747902
748064
748226
748386
748546
748702
748860
749016
749168
749324
749480
749640
749800
749960
750124
750280
750440
750592
750744
750894
751048
751202
751352
751506
751660
751818
751974
752128
752286
752442
752598
752748
752900
753054
753208
753364
753520
753676
753834
753996
754156
754316
754470
754624
754776
754932
755084
755236
755388
755540
755690
755838
755986
756134
756280
756428
756572
756720
756866
757012
757158
757304
757452
757600
757748
757898
758046
758198
758350
758496
758644
758792
758940
759088
759236
759382
759530
759680
759830
759982
760132
760286
760438
760590
760746
760898
761048
761202
761356
761512
761668
761820
761972
762126
762282
762434
762586
762738
762890
763042
763196
763350
763502
763654
763806
763956
764108
764262
764416
764572
764728
764886
765042
765200
765354
765504
765656
765804
765954
766104
766254
766400
766544
766686
766826
766966
767106
767248
767392
767540
767688
767838
767990
768144
768292
768442
768594
768746
768898
769048
769200
769354
769508
769662
769816
769972
770128
770282
770434
770588
770740
770890
771038
771186
771338
771488
771638
771786
771936
772088
772240
772390
772540
772692
772842
772990
773136
773284
773430
773576
773722
773868
774014
774158
774300
774442
774582
774722
774864
775010
775158
775308
775456
775608
775762
775918
776072
776222
776372
776522
776674
776826
776980
777132
777288
777440
777596
777750
777908
778066
778220
778376
778528
778688
778844
778996
779148
779302
779454
779606
779758
779914
780066
780220
780370
780520
780672
780824
780972
781120
781272
781424
781574
781724
781874
782028
782180
782330
782484
782636
782788
782940
783090
783240
783390
783544
783698
783852
784004
784150
784298
784444
784592
784736
784880
785028
785178
785326
785476
785626
785778
785932
786086
786238
786392
786546
786702
786854
787006
787160
787316
787468
787620
787776
787930
788084
788236
788390
788542
788694
788846
788994
789144
789294
789442
789594
789748
789904
790056
790210
790362
790516
790664
790816
790968
791120
791272
791420
791568
791718
791866
792014
792158
792304
792452
792600
792748
792898
793048
793202
793358
793516
793676
793836
793994
794150
794306
794462
794620
794772
794924
795078
795232
795386
795540
795696
795852
796008
796160
796314
796472
796628
796782
796934
797088
797242
797396
797550
797702
797856
798008
798158
798308
798456
798606
798760
798912
799064
799220
799376
799534
799690
799844
800000
800156
800312
800466
800622
800778
800936
801096
801254
801412
801572
801734
801896
802058
802212
802366
802518
802670
802822
802970
803122
803270
803420
803572
803726
803880
804028
804178
804328
804478
804628
804778
804926
805076
805226
805378
805530
805682
805830
805978
806126
806276
806424
806574
806724
806874
807024
807174
807326
807480
807630
807778
807926
808074
808222
808368
808512
808656
808800
808946
809090
809234
809378
809520
809662
809802
809946
810090
810234
810378
810522
810668
810812
810956
811102
811250
811396
811544
811688
811834
811978
812124
812270
812416
812562
812706
812854
813002
813150
813292
813438
813584
813730
813876
814018
814164
814310
814454
814598
814740
814884
815028
815172
815316
815458
815604
815744
815886
816024
816164
816306
816446
816586
816730
816874
817018
817162
817304
817450
817596
817740
817882
818028
818174
818320
818466
818612
818758
818906
819054
819202
819350
819496
819644
819792
819940
820084
820230
820378
820526
820674
820820
820968
821120
821270
821426
821576
821724
821874
822022
822170
822314
822460
822606
822756
822906
823054
823202
823352
823500
823646
823794
823942
824092
824236
824384
824530
824680
824828
824978
825132
825284
825438
825588
825738
825892
826044
826196
826344
826494
826648
826802
826958
827110
827266
827420
827576
827732
827884
828038
828194
828350
828506
828660
828816
828970
829124
829278
829430
829582
829732
829882
830034
830184
830338
830494
830650
830808
830968
831128
831292
831452
831610
831768
831926
832086
832244
832400
832560
832720
832880
833042
833204
833366
833522
833678
833834
833990
834140
834292
834446
834600
834756
834906
835062
835220
835378
835534
835686
835842
835998
836152
836306
836458
836614
836770
836924
837078
837230
837378
837526
837674
837822
837974
838126
838278
838432
838586
838742
838902
839060
839216
839372
839530
839688
839846
840000
840156
840310
840466
840622
840776
840930
841084
841240
841394
841548
841700
841852
842006
842160
842308
842462
842616
842770
842924
843078
843236
843390
843548
843700
843854
844008
844160
844314
844464
844616
844768
844922
845076
845226
845378
845530
845682
845832
845984
846138
846290
846446
846598
846752
846902
847056
847208
847358
847512
847664
847816
847966
848116
848264
848412
848558
848704
848850
848996
849144
849290
849438
849588
849738
849890
850042
850192
850344
850498
850652
850806
850958
851112
851262
851414
851562
851714
851862
852014
852166
852314
852468
852618
852774
852928
853082
853232
853384
853538
853690
853842
853994
854146
854300
854456
854606
854758
854910
855064
855218
855370
855522
855676
855832
855988
856146
856302
856464
856624
856782
856942
857098
857256
857412
857568
857720
857874
858028
858180
858332
858482
858634
858784
858938
859094
859248
859398
859550
859702
859854
860006
860160
860316
860472
860630
860786
860942
861096
861250
861404
861560
861718
861876
862038
862198
862354
862516
862680
862846
863008
863166
863326
863490
863652
863814
863972
864134
864296
864458
864622
864782
864942
865102
865264
865426
865582
865740
865896
866052
866204
866360
866516
866670
866822
866972
867124
867278
867430
867582
867734
867886
868036
868190
868340
868490
868640
868794
868948
869102
869254
869404
869556
869710
869866
870022
870176
870332
870490
870650
870810
870970
871126
871286
871446
871608
871766
871926
872086
872248
872408
872572
872734
872894
873054
873212
873372
873530
873686
873840
873996
874154
874312
874470
874628
874784
874940
875098
875258
875412
875568
875722
875876
876034
876188
876344
876500
876654
876804
876956
877108
877258
877410
877562
877718
877872
878028
878184
878342
878502
878656
878812
878968
879124
879278
879430
879580
879732
879886
880044
880198
880358
880520
880684
880846
881002
881166
881326
881484
881640
881796
881954
882110
882268
882424
882584
882740
882898
883056
883210
883366
883522
883678
883832
883986
884140
884294
884450
884606
884758
884912
885064
885220
885376
885530
885686
885842
885998
886156
886312
886470
886628
886786
886942
887100
887256
887412
887570
887728
887888
888048
888206
888366
888530
888688
888844
888998
889154
889308
889462
889616
889770
889924
890080
890234
890392
890548
890702
890854
891004
891156
891306
891462
891616
891768
891922
892078
892236
892390
892544
892696
892850
893006
893158
893314
893468
893622
893776
893932
894088
894242
894396
894548
894702
894858
895014
895168
895320
895474
895626
895780
895930
896080
896228
896376
896528
896678
896828
896978
897124
897272
897424
897574
897728
897880
898032
898186
898340
898492
898644
898796
898950
899104
899256
899414
899572
899730
899886
900042
900202
900362
900520
900672
900828
900982
901136
901288
901440
901594
901748
901902
902058
902216
902376
902532
902688
902844
903000
903156
903308
903460
903614
903768
903924
904082
904240
904396
904552
904704
904856
905010
905162
905312
905460
905616
905770
905930
906082
906234
906386
906536
906688
906848
907004
907156
907304
907454
907604
907752
907898
908048
908194
908344
908490
908640
908790
908938
909086
909234
909386
909538
909688
909836
909986
910138
910286
910436
910588
910740
910890
911040
911192
911344
911496
911652
911806
911960
912118
912274
912424
912576
912728
912878
913028
913180
913330
913480
913634
913792
913950
914104
914264
914414
914568
914718
914870
915022
915172
915324
915476
915630
915784
915938
916096
916248
916400
916552
916704
916858
917012
917166
917322
917478
917636
917790
917950
918106
918262
918420
918576
918732
918888
919046
919198
919352
919506
919656
919810
919962
920116
920266
920412
920562
920710
920860
921010
921156
921306
921454
921606
921754
921900
922050
922196
922340
922486
922630
922776
922924
923070
923216
923364
923512
923658
923804
923950
924098
924242
924388
924534
924680
924824
924968
925114
925264
925410
925556
925704
925848
925996
926142
926290
926440
926592
926746
926900
927054
927208
927360
927508
927656
927802
927952
928098
928240
928382
928526
928670
928812
928958
929102
929242
929384
929522
929660
929798
929936
930070
930204
930340
930474
930610
930746
930882
931018
931152
931286
931420
931554
931688
931822
931956
932088
932220
932352
932484
932618
932750
932878
933006
933136
933266
933398
933534
933664
933798
933930
934062
934194
934324
934456
934590
934722
934854
934986
935118
935250
935386
935522
935658
935794
935928
936062
936194
936326
936460
936592
936724
936858
936992
937128
937264
937400
937538
937676
937812
937946
938080
938218
938358
938496
938636
938780
938922
939064
939206
939348
939494
939640
939786
939930
940074
940216
940358
940500
940642
940784
940926
941072
941216
941362
941510
941656
941808
941958
942110
942262
942414
942564
942716
942868
943020
943174
943324
943474
943624
943774
943918
944064
944212
944360
944508
944652
944800
944948
945098
945250
945400
945552
945704
945854
946000
946146
946290
946432
946572
946712
946850
946988
947126
947262
947402
947540
947676
947814
947950
948086
948222
948358
948492
948628
948762
948900
949036
949174
949314
949452
949592
949730
949868
950006
950144
950282
950418
950554
950692
950826
950962
951098
951234
951368
951504
951638
951770
951902
952034
952166
952296
952428
952558
952688
952818
952952
953082
953210
953342
953472
953600
953730
953858
953984
954112
954242
954370
954498
954628
954756
954884
955010
955138
955266
955394
955522
955650
955778
955908
956038
956164
956292
956418
956548
956676
956804
956932
957062
957190
957320
957448
957578
957708
957836
957962
958088
958216
958344
958474
958602
958730
958860
958988
959116
959246
959376
959504
959632
959760
959888
960014
960142
960270
960398
960526
960652
960778
960906
961034
961162
961288
961414
961540
961668
961796
961922
962050
962180
962308
962436
962564
962690
962822
962954
963084
963214
963342
963472
963600
963730
963858
963986
964112
964240
964368
964498
964628
964760
964892
965026
965162
965294
965428
965564
965698
965834
965968
966104
966238
966372
966504
966640
966780
966920
967060
967198
967336
967476
967616
967754
967890
968030
968168
968306
968446
968584
968726
968866
969006
969146
969288
969432
969574
969716
969856
969996
970138
970280
970420
970562
970702
970840
970978
971118
971260
971402
971542
971684
971824
971964
972108
972252
972400
972552
972698
972850
973004
973160
973316
973468
973620
973772
973928
974080
974234
974388
974548
974708
974868
975032
975196
975362
975522
975680
975838
975998
976158
976314
976474
976634
976794
976952
977110
977268
977426
977578
977732
977890
978046
978200
978356
978512
978672
978828
978986
979148
979312
979472
979628
979782
979936
980092
980244
980396
980548
980708
980870
981036
981204
981366
981522
981676
981828
981982
982138
982294
982452
982614
982780
982946
983112
983280
983446
983618
983788
983954
984116
984280
984440
984600
984758
984914
985076
985236
985334
985544
985696
985846
985998
986150
986300
986448
986600
986756
986914
987074
987234
987394
987558
987728
987902
988068
988234
988402
988568
988732
988896
989060
989224
989384
989544
989706
989870
990032
990196
990356
990516
990674
990832
990992
991150
991306
991464
991622
991784
991942
992100
992260
992418
992578
992734
992894
993056
993216
993374
993532
993690
993848
994004
994162
994324
994486
994648
994808
994966
995124
995284
995440
995594
995748
995904
996062
996218
996374
996528
996684
996840
996998
997156
997312
997468
997622
997774
997924
998080
998236
998396
998554
998714
998876
999038
999198
999360
999522
999686
999848
1000008
1000168
1000328
1000488
1000644
1000802
1000958
1001110
1001262
1001414
1001568
1001720
1001876
1002034
1002196
1002360
1002522
1002684
1002848
1003008
1003164
1003318
1003472
1003624
1003774
1003924
1004072
1004226
1004382
1004536
1004690
1004846
1005000
1005154
1005310
1005466
1005628
1005796
1005966
1006132
1006298
1006462
1006626
1006790
1006954
1007114
1007270
1007430
1007590
1007750
1007908
1008064
1008222
1008380
1008540
1008700
1008860
1009016
1009172
1009330
1009488
1009642
1009796
1009952
1010110
1010268
1010426
1010592
1010758
1010924
1011088
1011252
1011416
1011580
1011748
1011916
1012086
1012260
1012436
1012610
1012784
1012958
1013132
1013308
1013482
1013656
1013830
1014004
1014182
1014356
1014530
1014706
1014878
1015046
1015214
1015378
1015542
1015702
1015862
1016020
1016182
1016342
1016500
1016660
1016828
1016996
1017164
1017340
1017512
1017684
1017852
1018028
1018208
1018390
1018574
1018754
1018926
1019100
1019272
1019440
1019606
1019770
1019932
1020096
1020254
1020410
1020566
1020724
1020880
1021036
1021194
1021352
1021512
1021670
1021832
1021992
1022152
1022312
1022472
1022634
1022794
1022952
1023108
1023264
1023420
1023574
1023728
1023882
1024036
1024196
1024352
1024508
1024668
1024828
1024984
1025142
1025298
1025458
1025614
1025774
1025934
1026094
1026254
1026420
1026590
1026760
1026930
1027102
1027268
1027434
1027600
1027766
1027934
1028102
1028268
1028436
1028600
1028764
1028922
1029084
1029244
1029406
1029568
1029726
1029884
1030044
1030210
1030378
1030550
1030718
1030888
1031058
1031226
1031392
1031556
1031716
1031876
1032034
1032190
1032348
1032504
1032662
1032822
1032982
1033142
1033302
1033464
1033624
1033784
1033946
1034106
1034264
1034422
1034576
1034728
1034878
1035028
1035174
1035318
1035462
1035610
1035760
1035908
1036056
1036204
1036352
1036506
1036660
1036816
1036972
1037130
1037292
1037458
1037626
1037796
1037962
1038126
1038288
1038454
1038614
1038774
1038934
1039092
1039250
1039408
1039570
1039732
1039894
1040052
1040208
1040364
1040520
1040676
1040830
1040982
1041134
1041284
1041432
1041580
1041738
1041902
1042074
1042252
1042430
1042600
1042770
1042936
1043102
1043262
1043422
1043580
1043738
1043898
1044064
1044232
1044398
1044558
1044718
1044882
1045046
1045212
1045380
1045548
1045722
1045896
1046086
1046272
1046452
1046622
1046790
1046956
1047124
1047290
1047458
1047620
1047784
1047948
1048116
1048284
1048452
1048620
1048782
1048942
1049098
1049252
1049408
1049566
1049726
1049884
1050040
1050196
1050350
1050506
1050660
1050818
1050978
1051142
1051314
1051412
1051664
1051832
1052004
1052176
1052352
1052516
1052686
1052864
1053066
1053256
1053452
1053648
1053844
1054038
1054234
1054416
1054594
1054772
1054956
1055142
1055324
1055506
1055682
1055860
1056040
1056220
1056396
1056568
1056744
1056918
1057094
1057276
1057460
1057644
1057828
1058006
1058184
1058362
1058540
1058718
1058894
1059070
1059248
1059428
1059610
1059796
1059980
1060162
1060342
1060522
1060704
1060888
1061064
1061240
1061416
1061594
1061770
1061946
1062118
1062284
1062452
1062624
1062794
1062962
1063130
1063300
1063468
1063638
1063806
1063976
1064144
1064308
1064470
1064632
1064792
1064952
1065112
1065274
1065430
1065590
1065750
1065916
1066082
1066246
1066412
1066574
1066738
1066898
1067062
1067224
1067388
1067550
1067714
1067878
1068042
1068202
1068362
1068522
1068682
1068842
1068998
1069154
1069312
1069470
1069624
1069778
1069932
1070084
1070234
1070382
1070530
1070676
1070822
1070964
1071106
1071248
1071392
1071536
1071684
1071832
1071982
1072132
1072286
1072436
1072588
1072740
1072890
1073038
1073186
1073336
1073490
1073642
1073792
1073946
1074098
1074248
1074400
1074554
1074706
1074860
1075014
1075166
1075322
1075476
1075628
1075778
1075930
1076078
1076226
1076372
1076518
1076662
1076806
1076950
1077096
1077244
1077392
1077542
1077694
1077844
1077992
1078140
1078288
1078432
1078576
1078716
1078856
1078998
1079142
1079286
1079432
1079580
1079728
1079876
1080022
1080164
1080306
1080446
1080588
1080730
1080876
1081034
1081182
1081328
1081476
1081624
1081776
1081924
1082068
1082214
1082356
1082502
1082644
1082790
1082936
1083080
1083230
1083378
1083526
1083674
1083822
1083966
1084114
1084258
1084402
1084544
1084686
1084830
1084972
1085114
1085256
1085398
1085540
1085680
1085824
1085964
1086102
1086244
1086384
1086524
1086666
1086806
1086946
1087090
1087234
1087380
1087524
1087668
1087810
1087952
1088094
1088236
1088376
1088518
1088660
1088802
1088944
1089088
1089234
1089378
1089522
1089668
1089814
1089960
1090104
1090250
1090396
1090542
1090684
1090826
1090970
1091114
1091256
1091398
1091540
1091682
1091822
1091962
1092106
1092250
1092394
1092538
1092682
1092830
1092978
1093130
1093280
1093430
1093586
1093738
1093890
1094040
1094190
1094344
1094494
1094646
1094798
1094948
1095100
1095252
1095408
1095562
1095716
1095868
1096020
1096174
1096324
1096474
1096624
1096770
1096918
1097062
1097210
1097356
1097502
1097648
1097794
1097940
1098090
1098244
1098396
1098544
1098692
1098842
1098990
1099140
1099290
1099438
1099592
1099746
1099900
1100054
1100210
1100362
1100514
1100670
1100822
1100974
1101128
1101280
1101432
1101584
1101734
1101890
1102042
1102194
1102344
1102494
1102644
1102796
1102946
1103096
1103246
1103396
1103548
1103698
1103848
1103998
1104148
1104296
1104444
1104594
1104744
1104894
1105044
1105196
1105346
1105496
1105646
1105798
1105950
1106100
1106252
1106406
1106562
1106720
1106878
1107038
1107198
1107358
1107516
1107670
1107820
1107970
1108120
1108272
1108422
1108572
1108726
1108878
1109030
1109186
1109342
1109498
1109648
1109798
1109950
1110106
1110262
1110418
1110568
1110722
1110878
1111034
1111190
1111346
1111496
1111646
1111796
1111948
1112100
1112254
1112414
1112574
1112738
1112898
1113062
1113228
1113392
1113550
1113710
1113872
1114032
1114194
1114354
1114512
1114672
1114832
1114996
1115158
1115322
1115484
1115644
1115804
1115964
1116122
1116278
1116436
1116590
1116748
1116904
1117058
1117214
1117370
1117524
1117680
1117830
1117984
1118136
1118292
1118448
1118606
1118764
1118924
1119084
1119242
1119400
1119554
1119708
1119864
1120018
1120172
1120326
1120484
1120642
1120806
1120970
1121136
1121304
1121470
1121634
1121800
1121962
1122122
1122282
1122442
1122600
1122758
1122914
1123072
1123228
1123384
1123540
1123696
1123852
1124006
1124166
1124320
1124478
1124636
1124790
1124948
1125106
1125264
1125422
1125578
1125736
1125896
1126054
1126210
1126366
1126526
1126682
1126840
1126998
1127154
1127308
1127462
1127618
1127774
1127932
1128086
1128238
1128390
1128544
1128694
1128846
1128994
1129142
1129292
1129438
1129586
1129740
1129890
1130042
1130190
1130338
1130490
1130640
1130792
1130944
1131098
1131250
1131400
1131550
1131696
1131844
1131990
1132134
1132282
1132430
1132576
1132724
1132868
1133016
1133162
1133312
1133456
1133600
1133744
1133892
1134040
1134190
1134340
1134492
1134644
1134798
1134950
1135106
1135264
1135414
1135562
1135708
1135856
1136006
1136154
1136304
1136450
1136596
1136744
1136894
1137044
1137190
1137338
1137486
1137634
1137784
1137932
1138080
1138230
1138376
1138524
1138670
1138820
1138972
1139120
1139270
1139420
1139570
1139720
1139874
1140026
1140176
1140336
1140490
1140642
1140798
1140950
1141104
1141254
1141402
1141550
1141694
1141842
1141992
1142150
1142308
1142464
1142618
1142772
1142922
1143068
1143214
1143356
1143502
1143648
1143796
1143944
1144096
1144250
1144408
1144562
1144718
1144872
1145026
1145178
1145328
1145478
1145628
1145780
1145932
1146082
1146234
1146386
1146536
1146686
1146838
1146988
1147136
1147284
1147432
1147582
1147732
1147882
1148034
1148184
1148338
1148490
1148644
1148796
1148950
1149100
1149250
1149398
1149548
1149698
1149852
1150006
1150160
1150316
1150472
1150632
1150788
1150946
1151102
1151260
1151418
1151572
1151730
1151890
1152048
1152206
1152362
1152520
1152678
1152836
1152990
1153144
1153300
1153454
1153610
1153766
1153920
1154074
1154226
1154378
1154530
1154686
1154840
1154992
1155142
1155288
1155436
1155580
1155722
1155864
1156008
1156156
1156306
1156458
1156616
1156774
1156932
1157088
1157246
1157406
1157564
1157720
1157874
1158032
1158192
1158352
1158506
1158666
1158824
1158980
1159136
1159290
1159448
1159606
1159766
1159924
1160088
1160252
1160418
1160584
1160748
1160916
1161082
1161248
1161414
1161576
1161740
1161902
1162066
1162232
1162396
1162564
1162730
1162896
1163060
1163224
1163384
1163544
1163704
1163860
1164018
1164174
1164336
1164498
1164664
1164822
1164986
1165148
1165314
1165478
1165640
1165798
1165958
1166116
1166276
1166438
1166594
1166750
1166904
1167056
1167212
1167366
1167520
1167676
1167830
1167986
1168138
1168292
1168446
1168598
1168748
1168850
1169046
1169196
1169342
1169490
1169638
1169788
1169938
1170090
1170242
1170396
1170550
1170702
1170854
1171006
1171160
1171312
1171464
1171616
1171770
1171926
1172080
1172230
1172382
1172532
1172682
1172826
1172972
1173118
1173262
1173408
1173556
1173706
1173860
1174012
1174162
1174312
1174464
1174614
1174766
1174916
1175068
1175222
1175376
1175530
1175686
1175842
1175996
1176150
1176304
1176458
1176608
1176756
1176904
1177052
1177200
1177348
1177498
1177650
1177802
1177960
1178118
1178278
1178440
1178600
1178757
1178916
1179074
1179232
1179390
1179542
1179698
1179856
1180012
1180170
1180324
1180478
1180630
1180782
1180934
1181086
1181240
1181392
1181548
1181702
1181856
1182014
1182170
1182328
1182484
1182640
1182798
1182954
1183112
1183266
1183422
1183580
1183736
1183892
1184046
1184202
1184356
1184512
1184664
1184814
1184966
1185118
1185268
1185418
1185568
1185718
1185868
1186020
1186172
1186324
1186476
1186624
1186774
1186920
1187062
1187208
1187358
1187510
1187664
1187818
1187972
1188124
1188276
1188424
1188570
1188714
1188858
1189004
1189152
1189302
1189452
1189604
1189760
1189914
1190070
1190228
1190388
1190544
1190700
1190856
1191010
1191164
1191316
1191470
1191624
1191776
1191928
1192082
1192240
1192400
1192556
1192710
1192864
1193020
1193174
1193324
1193478
1193632
1193790
1193948
1194110
1194268
1194426
1194584
1194740
1194896
1195050
1195204
1195356
1195510
1195666
1195822
1195980
1196134
1196288
1196436
1196586
1196734
1196884
1197032
1197180
1197328
1197478
1197630
1197782
1197932
1198082
1198232
1198380
1198532
1198680
1198828
1198978
1199126
1199272
1199422
1199572
1199722
1199874
1200026
1200178
1200332
1200484
1200634
1200784
1200936
1201086
1201236
1201390
1201544
1201698
1201850
1202004
1202158
1202310
1202460
1202608
1202758
1202908
1203058
1203208
1203360
1203512
1203660
1203810
1203960
1204110
1204256
1204400
1204540
1204680
1204820
1204960
1205100
1205240
1205378
1205518
1205662
1205804
1205948
1206092
1206238
1206384
1206530
1206680
1206828
1206980
1207128
1207278
1207428
1207580
1207730
1207878
1208028
1208176
1208324
1208474
1208624
1208774
1208926
1209076
1209226
1209378
1209532
1209684
1209834
1209984
1210130
1210278
1210426
1210572
1210718
1210860
1211006
1211152
1211300
1211446
1211592
1211738
1211890
1212042
1212194
1212348
1212506
1212664
1212822
1212984
1213144
1213306
1213466
1213626
1213786
1213948
1214106
1214262
1214418
1214574
1214728
1214884
1215036
1215192
1215348
1215504
1215660
1215818
1215972
1216124
1216278
1216430
1216584
1216734
1216886
1217038
1217190
1217344
1217498
1217654
1217812
1217970
1218126
1218282
1218438
1218598
1218758
1218916
1219076
1219236
1219398
1219560
1219720
1219882
1220040
1220194
1220348
1220500
1220654
1220806
1220958
1221110
1221262
1221414
1221566
1221718
1221872
1222022
1222174
1222326
1222482
1222640
1222802
1222964
1223124
1223284
1223444
1223608
1223768
1223924
1224078
1224232
1224384
1224536
1224686
1224840
1224994
1225156
1225312
1225470
1225626
1225784
1225940
1226092
1226244
1226394
1226542
1226692
1226840
1226990
1227140
1227292
1227442
1227590
1227738
1227888
1228038
1228188
1228336
1228486
1228634
1228788
1228940
1229094
1229244
1229398
1229548
1229698
1229850
1229998
1230146
1230296
1230442
1230588
1230736
1230882
1231030
1231178
1231326
1231474
1231622
1231772
1231920
1232068
1232218
1232370
1232524
1232678
1232832
1232986
1233140
1233294
1233446
1233602
1233758
1233914
1234066
1234220
1234376
1234532
1234686
1234840
1234988
1235138
1235290
1235440
1235588
1235736
1235880
1236030
1236180
1236332
1236486
1236638
1236788
1236940
1237092
1237244
1237396
1237550
1237706
1237860
1238012
1238164
1238322
1238478
1238630
1238782
1238938
1239096
1239248
1239402
1239558
1239716
1239870
1240026
1240182
1240336
1240490
1240644
1240796
1240948
1241094
1241240
1241386
1241530
1241680
1241822
1241968
1242112
1242258
1242406
1242558
1242714
1242872
1243028
1243182
1243340
1243498
1243656
1243810
1243966
1244122
1244278
1244434
1244592
1244748
1244906
1245066
1245226
1245386
1245542
1245696
1245848
1246000
1246152
1246300
1246452
1246602
1246756
1246912
1247068
1247222
1247376
1247534
1247688
1247844
1247998
1248150
1248302
1248452
1248612
1248774
1248934
1249094
1249256
1249416
1249580
1249736
1249894
1250054
1250214
1250374
1250532
1250690
1250850
1251010
1251172
1251334
1251494
1251654
1251810
1251964
1252120
1252272
1252424
1252576
1252728
1252882
1253038
1253192
1253346
1253502
1253656
1253812
1253968
1254120
1254272
1254420
1254568
1254712
1254860
1255008
1255154
1255300
1255446
1255590
1255734
1255878
1256024
1256172
1256322
1256476
1256634
1256792
1256950
1257108
1257264
1257422
1257580
1257736
1257892
1258048
1258206
1258364
1258524
1258682
1258838
1258994
1259152
1259310
1259466
1259622
1259776
1259930
1260088
1260242
1260398
1260550
1260704
1260856
1261006
1261158
1261310
1261462
1261614
1261766
1261924
1262082
1262246
1262410
1262578
1262746
1262914
1263082
1263246
1263412
1263574
1263738
1263904
1264072
1264238
1264402
1264566
1264730
1264896
1265058
1265224
1265384
1265542
1265698
1265858
1266018
1266174
1266328
1266484
1266642
1266800
1266956
1267114
1267274
1267438
1267598
1267760
1267918
1268076
1268234
1268394
1268554
1268714
1268880
1269046
1269212
1269376
1269546
1269716
1269882
1270050
1270212
1270372
1270534
1270700
1270868
1271036
1271204
1271372
1271536
1271700
1271864
1272030
1272196
1272362
1272530
1272696
1272864
1273030
1273194
1273354
1273452
1273670
1273828
1273984
1274140
1274290
1274444
1274596
1274750
1274908
1275068
1275234
1275402
1275568
1275734
1275902
1276066
1276228
1276392
1276556
1276720
1276886
1277054
1277220
1277384
1277546
1277708
1277870
1278030
1278190
1278352
1278516
1278676
1278836
1279000
1279162
1279322
1279482
1279642
1279800
1279960
1280120
1280280
1280440
1280602
1280766
1280932
1281096
1281256
1281416
1281576
1281734
1281888
1282040
1282192
1282344
1282494
1282642
1282788
1282936
1283084
1283228
1283372
1283516
1283660
1283806
1283952
1284098
1284246
1284398
1284548
1284696
1284846
1284998
1285148
1285298
1285448
1285602
1285754
1285906
1286058
1286216
1286372
1286530
1286686
1286840
1286996
1287150
1287304
1287458
1287612
1287768
1287924
1288082
1288238
1288392
1288546
1288702
1288858
1289014
1289164
1289314
1289464
1289612
1289764
1289916
1290068
1290222
1290378
1290532
1290686
1290838
1290986
1291134
1291278
1291426
1291572
1291718
1291864
1292010
1292156
1292302
1292452
1292600
1292750
1292896
1293040
1293186
1293332
1293486
1293642
1293804
1293968
1294138
1294310
1294478
1294650
1294818
1294986
1295150
1295314
1295474
1295630
1295788
1295942
1296100
1296260
1296418
1296576
1296736
1296898
1297058
1297216
1297370
1297522
1297672
1297824
1297976
1298126
1298276
1298426
1298578
1298732
1298888
1299042
1299196
1299348
1299500
1299650
1299798
1299948
1300098
1300250
1300400
1300550
1300702
1300858
1301014
1301172
1301330
1301488
1301650
1301810
1301970
1302132
1302294
1302458
1302620
1302780
1302936
1303092
1303246
1303402
1303556
1303710
1303866
1304022
1304180
1304340
1304500
1304658
1304814
1304966
1305122
1305276
1305430
1305584
1305742
1305900
1306062
1306226
1306394
1306558
1306722
1306884
1307042
1307200
1307354
1307508
1307662
1307814
1307970
1308124
1308280
1308436
1308592
1308748
1308900
1309052
1309202
1309354
1309504
1309656
1309810
1309962
1310118
1310274
1310432
1310588
1310744
1310896
1311048
1311198
1311352
1311504
1311656
1311810
1311962
1312114
1312266
1312420
1312572
1312726
1312874
1313024
1313174
1313324
1313474
1313622
1313770
1313918
1314068
1314220
1314372
1314526
1314678
1314830
1314982
1315134
1315282
1315434
1315588
1315742
1315896
1316050
1316204
1316362
1316520
1316676
1316832
1316986
1317144
1317300
1317456
1317614
1317774
1317934
1318090
1318246
1318402
1318558
1318714
1318872
1319030
1319190
1319354
1319516
1319680
1319842
1320008
1320174
1320338
1320502
1320664
1320824
1320986
1321146
1321304
1321462
1321618
1321772
1321926
1322078
1322230
1322382
1322534
1322686
1322836
1322992
1323142
1323288
1323434
1323588
1323744
1323904
1324068
1324230
1324390
1324550
1324710
1324870
1325026
1325184
1325340
1325496
1325654
1325808
1325960
1326114
1326220
1326422
1326578
1326732
1326886
1327038
1327190
1327346
1327502
1327658
1327814
1327972
1328134
1328298
1328462
1328626
1328790
1328950
1329110
1329272
1329434
1329596
1329756
1329914
1330078
1330240
1330406
1330564
1330720
1330876
1331030
1331186
1331336
1331490
1331652
1331806
1331962
1332120
1332280
1332436
1332590
1332746
1332904
1333062
1333218
1333374
1333534
1333694
1333854
1334018
1334180
1334342
1334504
1334664
1334824
1334982
1335138
1335296
1335452
1335610
1335768
1335928
1336090
1336244
1336400
1336554
1336706
1336858
1337006
1337154
1337300
1337446
1337594
1337744
1337890
1338038
1338184
1338332
1338476
1338620
1338764
1338908
1339052
1339196
1339338
1339482
1339624
1339766
1339908
1340052
1340196
1340340
1340482
1340626
1340772
1340922
1341070
1341222
1341376
1341526
1341676
1341828
1341978
1342126
1342276
1342420
1342568
1342714
1342862
1343008
1343154
1343302
1343446
1343594
1343738
1343884
1344032
1344180
1344326
1344472
1344618
1344768
1344918
1345070
1345216
1345366
1345516
1345668
1345818
1345966
1346114
1346260
1346406
1346550
1346694
1346842
1346992
1347136
1347280
1347430
1347578
1347740
1347886
1348034
1348180
1348324
1348466
1348610
1348754
1348902
1349048
1349192
1349338
1349482
1349626
1349770
1349914
1350058
1350202
1350344
1350486
1350632
1350776
1350918
1351062
1351214
1351368
1351514
1351660
1351808
1351960
1352106
1352252
1352396
1352544
1352688
1352832
1352974
1353120
1353266
1353410
1353552
1353694
1353836
1353978
1354116
1354258
1354404
1354546
1354692
1354840
1354986
1355136
1355292
1355448
1355602
1355752
1355908
1356062
1356208
1356356
1356506
1356658
1356812
1356964
1357120
1357280
1357438
1357598
1357760
1357926
1358090
1358250
1358410
1358572
1358734
1358894
1359052
1359210
1359368
1359528
1359688
1359852
1360014
1360172
1360330
1360486
1360640
1360792
1360944
1361094
1361244
1361394
1361546
1361700
1361856
1362008
1362164
1362322
1362478
1362632
1362792
1362950
1363112
1363274
1363438
1363602
1363764
1363926
1364088
1364250
1364408
1364568
1364724
1364882
1365042
1365204
1365370
1365534
1365704
1365874
1366044
1366212
1366378
1366542
1366704
1366870
1367032
1367196
1367356
1367516
1367678
1367840
1367998
1368152
1368306
1368460
1368614
1368766
1368924
1369082
1369252
1369412
1369568
1369726
1369882
1370036
1370192
1370344
1370500
1370650
1370806
1370962
1371118
1371272
1371432
1371588
1371746
1371904
1372058
1372212
1372370
1372526
1372684
1372840
1373000
1373160
1373318
1373478
1373638
1373794
1373950
1374104
1374258
1374414
1374568
1374720
1374872
1375024
1375178
1375336
1375488
1375644
1375800
1375954
1376108
1376262
1376416
1376570
1376726
1376884
1377042
1377198
1377352
1377508
1377664
1377818
1377972
1378126
1378280
1378434
1378586
1378738
1378890
1379042
1379192
1379344
1379496
1379646
1379794
1379944
1380094
1380246
1380398
1380552
1380710
1380874
1381040
1381206
1381372
1381540
1381704
1381870
1382036
1382200
1382364
1382524
1382686
1382848
1383010
1383170
1383332
1383494
1383658
1383822
1383984
1384146
1384310
1384474
1384644
1384810
1384974
1385140
1385306
1385474
1385644
1385806
1385966
1386124
1386280
1386436
1386596
1386758
1386916
1387076
1387236
1387398
1387556
1387710
1387864
1388020
1388178
1388336
1388498
1388658
1388822
1388984
1389148
1389314
1389482
1389644
1389806
1389970
1390136
1390300
1390464
1390628
1390796
1390964
1391132
1391302
1391468
1391634
1391798
1391962
1392124
1392284
1392444
1392604
1392768
1392934
1393096
1393260
1393422
1393584
1393742
1393902
1394062
1394222
1394384
1394548
1394712
1394876
1395040
1395204
1395368
1395532
1395694
1395852
1396006
1396162
1396322
1396484
1396650
1396822
1396998
1397180
1397358
1397528
1397692
1397854
1398016
1398172
1398326
1398480
1398634
1398790
1398944
1399104
1399266
1399426
1399580
1399736
1399894
1400048
1400202
1400360
1400520
1400684
1400852
1401024
1401194
1401362
1401532
1401698
1401866
1402032
1402202
1402368
1402538
1402704
1402874
1403046
1403218
1403390
1403556
1403722
1403890
1404058
1404222
1404388
1404554
1404722
1404886
1405050
1405216
1405384
1405548
1405712
1405876
1406042
1406208
1406372
1406536
1406702
1406868
1407034
1407198
1407364
1407524
1407682
1407838
1407994
1408150
1408308
1408466
1408624
1408788
1408950
1409114
1409278
1409442
1409606
1409772
1409938
1410104
1410268
1410434
1410598
1410762
1410926
1411092
1411258
1411422
1411586
1411750
1411912
1412078
1412244
1412410
1412580
1412754
1412932
1413108
1413284
1413456
1413630
1413802
1413972
1414140
1414308
1414474
1414640
1414806
1414974
1415142
1415306
1415470
1415634
1415796
1415958
1416120
1416284
1416444
1416608
1416772
1416938
1417102
1417266
1417424
1417582
1417738
1417898
1418056
1418212
1418368
1418526
1418684
1418844
1419004
1419166
1419274
1419486
1419646
1419808
1419966
1420126
1420288
1420454
1420622
1420786
1420950
1421114
1421280
1421444
1421604
1421764
1421924
1422086
1422250
1422414
1422576
1422740
1422902
1423066
1423228
1423388
1423546
1423704
1423862
1424020
1424180
1424340
1424498
1424656
1424816
1424980
1425142
1425304
1425468
1425618
1425802
1425972
1426144
1426316
1426484
1426654
1426826
1426996
1427160
1427326
1427492
1427658
1427826
1427992
1428160
1428330
1428500
1428672
1428844
1429012
1429174
1429338
1429502
1429664
1429826
1429982
1430138
1430296
1430454
1430614
1430768
1430922
1431074
1431228
1431382
1431540
1431702
1431862
1432024
1432186
1432350
1432514
1432678
1432840
1433004
1433168
1433330
1433494
1433654
1433814
1433970
1434128
1434288
1434450
1434616
1434782
1434950
1435118
1435290
1435460
1435624
1435792
1435960
1436130
1436300
1436468
1436640
1436812
1436984
1437154
1437320
1437484
1437648
1437812
1437976
1438142
1438306
1438470
1438636
1438802
1438968
1439136
1439302
1439470
1439640
1439806
1439978
1440152
1440324
1440500
1440674
1440850
1441020
1441190
1441360
1441528
1441698
1441866
1442036
1442204
1442372
1442536
1442702
1442864
1443022
1443180
1443336
1443490
1443644
1443802
1443960
1444122
1444284
1444452
1444622
1444790
1444958
1445128
1445302
1445476
1445650
1445818
1445986
1446150
1446314
1446476
1446636
1446792
1446944
1447094
1447242
1447392
1447540
1447688
1447834
1447982
1448136
1448286
1448434
1448584
1448736
1448884
1449032
1449182
1449334
1449482
1449632
1449780
1449932
1450084
1450238
1450392
1450546
1450700
1450854
1451006
1451162
1451314
1451468
1451624
1451782
1451940
1452096
1452254
1452408
1452566
1452720
1452872
1453024
1453174
1453324
1453476
1453628
1453780
1453932
1454082
1454234
1454386
1454540
1454694
1454844
1454992
1455142
1455292
1455446
1455604
1455758
1455918
1456072
1456232
1456384
1456532
1456680
1456826
1456972
1457120
1457268
1457416
1457566
1457714
1457866
1458020
1458174
1458328
1458484
1458640
1458794
1458950
1459106
1459260
1459412
1459564
1459718
1459874
1460028
1460180
1460334
1460486
1460638
1460790
1460938
1461088
1461238
1461386
1461534
1461684
1461836
1461988
1462140
1462290
1462438
1462588
1462736
1462884
1463034
1463184
1463334
1463486
1463640
1463794
1463944
1464096
1464246
1464398
1464546
1464696
1464846
1464996
1465146
1465298
1465448
1465598
1465750
1465902
1466054
1466208
1466364
1466516
1466666
1466814
1466962
1467108
1467252
1467396
1467540
1467688
1467834
1467988
1468144
1468294
1468448
1468598
1468748
1468902
1469058
1469216
1469376
1469536
1469692
1469850
1470008
1470162
1470316
1470470
1470622
1470774
1470926
1471078
1471226
1471378
1471528
1471680
1471834
1471988
1472146
1472302
1472458
1472612
1472766
1472920
1473072
1473226
1473390
1473546
1473700
1473856
1474012
1474168
1474326
1474478
1474630
1474782
1474930
1475078
1475226
1475374
1475526
1475680
1475836
1475990
1476142
1476296
1476446
1476594
1476742
1476890
1477040
1477192
1477340
1477488
1477640
1477790
1477938
1478086
1478234
1478380
1478528
1478678
1478822
1478970
1479118
1479264
1479416
1479568
1479718
1479868
1480014
1480164
1480310
1480456
1480560
1480744
1480886
1481028
1481170
1481312
1481454
1481598
1481744
1481890
1482038
1482190
1482338
1482490
1482640
1482790
1482940
1483094
1483248
1483400
1483550
1483702
1483854
1484006
1484156
1484302
1484448
1484596
1484744
1484892
1485042
1485192
1485340
1485490
1485638
1485790
1485940
1486088
1486234
1486378
1486522
1486668
1486818
1486964
1487108
1487254
1487400
1487546
1487690
1487834
1487978
1488122
1488266
1488410
1488554
1488702
1488848
1488992
1489138
1489286
1489440
1489594
1489748
1489904
1490062
1490218
1490378
1490534
1490692
1490846
1491002
1491158
1491314
1491466
1491616
1491764
1491910
1492058
1492202
1492346
1492488
1492632
1492776
1492920
1493068
1493216
1493368
1493520
1493670
1493824
1493980
1494138
1494296
1494450
1494606
1494762
1494920
1495080
1495236
1495390
1495546
1495700
1495858
1496014
1496168
1496320
1496472
1496628
1496784
1496940
1497092
1497246
1497402
1497560
1497716
1497870
1498026
1498178
1498330
1498484
1498636
1498786
1498936
1499088
1499242
1499398
1499554
1499712
1499874
1500038
1500204
1500364
1500522
1500678
1500832
1500988
1501142
1501296
1501452
1501610
1501768
1501926
1502082
1502236
1502388
1502536
1502686
1502832
1502981
1503126
1503274
1503426
1503576
1503730
1503884
1504034
1504184
1504332
1504478
1504622
1504764
1504912
1505056
1505204
1505354
1505508
1505662
1505814
1505968
1506118
1506266
1506418
1506570
1506724
1506878
1507036
1507192
1507348
1507504
1507658
1507812
1507962
1508112
1508264
1508416
1508570
1508720
1508872
1509026
1509180
1509332
1509484
1509636
1509788
1509938
1510086
1510234
1510382
1510530
1510676
1510822
1510968
1511116
1511260
1511408
1511556
1511702
1511848
1511992
1512136
1512284
1512434
1512590
1512742
1512896
1513050
1513200
1513352
1513504
1513654
1513804
1513950
1514098
1514246
1514398
1514550
1514700
1514852
1515004
1515158
1515314
1515468
1515620
1515772
1515924
1516074
1516222
1516372
1516518
1516664
1516808
1516952
1517098
1517240
1517382
1517524
1517662
1517802
1517938
1518080
1518224
1518364
1518504
1518646
1518786
1518928
1519068
1519212
1519356
1519504
1519652
1519798
1519946
1520094
1520238
1520382
1520522
1520664
1520806
1520948
1521092
1521232
1521376
1521520
1521666
1521814
1521958
1522102
1522244
1522388
1522534
1522680
1522824
1522968
1523110
1523254
1523400
1523550
1523698
1523842
1523984
1524126
1524266
1524408
1524550
1524690
1524832
1524972
1525112
1525254
1525394
1525536
1525678
1525816
1525956
1526096
1526238
1526380
1526520
1526662
1526802
1526944
1527088
1527234
1527380
1527524
1527670
1527816
1527962
1528108
1528252
1528398
1528548
1528696
1528846
1528996
1529148
1529298
1529450
1529600
1529752
1529902
1530052
1530200
1530348
1530494
1530642
1530792
1530940
1531088
1531234
1531380
1531526
1531670
1531812
1531956
1532098
1532242
1532386
1532530
1532676
1532824
1532968
1533116
1533270
1533424
1533574
1533650
1533862
1534008
1534150
1534292
1534434
1534576
1534722
1534866
1535014
1535162
1535310
1535460
1535608
1535754
1535902
1536050
1536198
1536348
1536502
1536654
1536806
1536962
1537120
1537280
1537442
1537602
1537760
1537914
1538068
1538224
1538382
1538538
1538696
1538856
1539016
1539174
1539332
1539490
1539646
1539800
1539950
1540104
1540260
1540414
1540568
1540724
1540884
1541046
1541206
1541364
1541516
1541666
1541812
1541956
1542102
1542248
1542394
1542540
1542688
1542838
1542986
1543140
1543292
1543446
1543604
1543764
1543924
1544082
1544244
1544406
1544568
1544730
1544888
1545048
1545210
1545372
1545530
1545686
1545846
1546006
1546166
1546324
1546484
1546644
1546802
1546960
1547120
1547276
1547430
1547586
1547742
1547896
1548052
1548206
1548360
1548514
1548668
1548820
1548972
1549124
1549276
1549432
1549588
1549742
1549898
1550054
1550214
1550376
1550536
1550694
1550856
1551020
1551186
1551348
1551504
1551658
1551812
1551966
1552118
1552270
1552420
1552570
1552718
1552868
1553022
1553176
1553328
1553478
1553628
1553782
1553938
1554090
1554242
1554392
1554546
1554700
1554854
1555010
1555162
1555312
1555460
1555606
1555758
1555906
1556052
1556200
1556348
1556500
1556652
1556806
1556960
1557116
1557272
1557428
1557588
1557746
1557904
1558062
1558220
1558378
1558534
1558690
1558844
1558996
1559148
1559296
1559446
1559592
1559750
1559896
1560044
1560192
1560346
1560506
1560656
1560808
1560960
1561112
1561266
1561414
1561562
1561712
1561858
1562010
1562162
1562314
1562464
1562610
1562758
1562906
1563054
1563202
1563350
1563498
1563644
1563790
1563936
1564084
1564232
1564380
1564530
1564682
1564832
1564984
1565136
1565286
1565436
1565584
1565730
1565876
1566028
1566180
1566334
1566486
1566638
1566792
1566946
1567100
1567252
1567402
1567554
1567708
1567856
1568006
1568156
1568308
1568460
1568612
1568762
1568914
1569062
1569210
1569356
1569508
1569660
1569812
1569964
1570118
1570274
1570428
1570582
1570732
1570884
1571034
1571186
1571336
1571492
1571650
1571808
1571962
1572116
1572270
1572426
1572582
1572740
1572894
1573052
1573210
1573368
1573524
1573680
1573838
1573992
1574148
1574302
1574458
1574610
1574766
1574920
1575034
1575224
1575376
1575526
1575678
1575828
1575978
1576130
1576278
1576426
1576574
1576722
1576872
1577022
1577172
1577322
1577472
1577624
1577780
1577936
1578092
1578250
1578406
1578564
1578720
1578878
1579032
1579184
1579332
1579482
1579634
1579784
1579932
1580080
1580230
1580378
1580528
1580678
1580832
1580984
1581134
1581284
1581436
1581586
1581738
1581886
1582040
1582194
1582354
1582512
1582670
1582824
1582976
1583126
1583274
1583422
1583568
1583714
1583858
1584004
1584154
1584304
1584456
1584606
1584758
1584908
1585060
1585212
1585360
1585508
1585656
1585800
1585948
1586096
1586246
1586394
1586542
1586688
1586836
1586982
1587130
1587276
1587422
1587568
1587714
1587858
1588002
1588150
1588296
1588444
1588592
1588738
1588884
1589030
1589172
1589312
1589456
1589602
1589750
1589898
1590050
1590200
1590350
1590500
1590654
1590802
1590950
1591094
1591240
1591386
1591534
1591682
1591830
1591978
1592128
1592282
1592434
1592584
1592734
1592882
1593032
1593178
1593328
1593476
1593626
1593774
1593922
1594068
1594216
1594364
1594512
1594662
1594806
1594952
1595098
1595246
1595392
1595538
1595682
1595830
1595980
1596130
1596280
1596428
1596580
1596730
1596878
1597026
1597174
1597322
1597468
1597614
1597762
1597908
1598050
1598192
1598332
1598476
1598620
1598766
1598914
1599064
1599214
1599362
1599514
1599666
1599820
1599972
1600122
1600274
1600426
1600574
1600722
1600870
1601018
1601166
1601314
1601462
1601612
1601766
1601918
1602070
1602224
1602380
1602536
1602690
1602846
1603000
1603152
1603306
1603458
1603610
1603762
1603916
1604070
1604222
1604372
1604522
1604670
1604818
1604962
1605108
1605254
1605400
1605548
1605692
1605838
1605984
1606134
1606284
1606436
1606586
1606736
1606884
1607034
1607184
1607336
1607490
1607644
1607792
1607940
1608088
1608240
1608398
1608556
1608712
1608866
1609020
1609172
1609326
1609478
1609632
1609784
1609938
1610094
1610250
1610374
1610558
1610708
1610864
1611018
1611172
1611324
1611472
1611620
1611770
1611918
1612074
1612232
1612388
1612544
1612696
1612844
1612992
1613138
1613282
1613426
1613574
1613722
1613874
1614026
1614180
1614334
1614488
1614642
1614796
1614948
1615100
1615252
1615408
1615562
1615722
1615878
1616032
1616186
1616342
1616496
1616646
1616792
1616936
1617080
1617226
1617374
1617528
1617680
1617830
1617982
1618136
1618288
1618442
1618592
1618740
1618890
1619042
1619194
1619346
1619498
1619654
1619810
1619966
1620124
1620280
1620430
1620582
1620730
1620880
1621032
1621186
1621340
1621490
1621644
1621800
1621958
1622116
1622268
1622422
1622574
1622726
1622880
1623034
1623188
1623342
1623498
1623656
1623816
1623972
1624128
1624286
1624436
1624590
1624746
1624904
1625060
1625214
1625370
1625528
1625682
1625838
1625996
1626152
1626306
1626460
1626616
1626772
1626924
1627078
1627230
1627382
1627538
1627692
1627844
1627994
1628146
1628294
1628442
1628588
1628734
1628878
1629024
1629168
1629312
1629456
1629596
1629736
1629878
1630022
1630166
1630308
1630452
1630596
1630740
1630886
1631030
1631176
1631322
1631468
1631612
1631754
1631898
1632044
1632188
1632332
1632476
1632622
1632770
1632916
1633064
1633210
1633358
1633506
1633652
1633800
1633946
1634092
1634238
1634384
1634528
1634674
1634818
1634960
1635102
1635246
1635392
1635536
1635680
1635826
1635972
1636118
1636262
1636406
1636550
1636692
1636832
1636972
1637114
1637254
1637394
1637536
1637680
1637824
1637966
1638110
1638256
1638400
1638550
1638702
1638850
1639004
1639156
1639312
1639464
1639620
1639774
1639926
1640076
1640224
1640370
1640518
1640664
1640808
1640952
1641094
1641234
1641378
1641526
1641672
1641820
1641968
1642116
1642264
1642410
1642558
1642704
1642846
1642990
1643134
1643280
1643424
1643568
1643714
1643858
1644002
1644144
1644286
1644432
1644578
1644722
1644872
1645022
1645174
1645326
1645476
1645626
1645774
1645926
1646074
1646222
1646370
1646514
1646660
1646808
1646958
1647112
1647260
1647410
1647558
1647710
1647862
1648008
1648154
1648300
1648446
1648590
1648738
1648886
1649032
1649180
1649328
1649478
1649624
1649774
1649924
1650068
1650212
1650358
1650502
1650646
1650790
1650934
1651078
1651224
1651374
1651522
1651670
1651818
1651960
1652104
1652248
1652390
1652536
1652678
1652822
1652966
1653112
1653262
1653410
1653556
1653704
1653850
1653994
1654140
1654286
1654432
1654578
1654724
1654870
1655020
1655168
1655316
1655462
1655610
1655754
1655898
1656040
1656186
1656328
1656472
1656612
1656754
1656900
1657044
1657192
1657336
1657482
1657628
1657774
1657920
1658064
1658208
1658350
1658494
1658636
1658780
1658922
1659066
1659212
1659352
1659498
1659644
1659790
1659936
1660078
1660218
1660360
1660502
1660642
1660780
1660920
1661062
1661204
1661346
1661484
1661626
1661766
1661908
1662046
1662188
1662330
1662472
1662616
1662760
1662906
1663048
1663192
1663336
1663480
1663624
1663768
1663910
1664054
1664198
1664340
1664482
1664624
1664764
1664902
1665042
1665182
1665324
1665470
1665616
1665756
1665898
1666040
1666184
1666326
1666470
1666612
1666756
1666900
1667044
1667190
1667334
1667478
1667624
1667764
1667906
1668046
1668188
1668328
1668468
1668612
1668752
1668896
1669042
1669188
1669334
1669478
1669620
1669764
1669906
1670048
1670190
1670330
1670470
1670608
1670750
1670894
1671038
1671184
1671332
1671482
1671634
1671784
1671934
1672086
1672238
1672384
1672532
1672680
1672830
1672980
1673128
1673276
1673424
1673574
1673644
1673856
1673990
1674124
1674246
1674392
1674538
1674676
1674814
1674954
1675090
1675234
1675376
1675520
1675662
1675806
1675948
1676092
1676238
1676388
1676538
1676688
1676838
1676990
1677142
1677294
1677444
1677594
1677742
1677888
1678032
1678176
1678322
1678466
1678606
1678748
1678892
1679036
1679176
1679318
1679460
1679598
1679738
1679874
1680012
1680148
1680284
1680420
1680558
1680696
1680838
1680980
1681124
1681266
1681408
1681550
1681692
1681834
1681976
1682116
1682260
1682402
1682548
1682694
1682842
1682990
1683138
1683284
1683430
1683576
1683720
1683862
1684004
1684144
1684286
1684424
1684566
1684708
1684848
1684988
1685128
1685270
1685410
1685550
1685690
1685830
1685968
1686108
1686252
1686396
1686538
1686682
1686824
1686968
1687110
1687256
1687400
1687546
1687688
1687830
1687972
1688114
1688254
1688398
1688540
1688680
1688820
1688962
1689106
1689252
1689394
1689532
1689672
1689816
1689960
1690104
1690248
1690390
1690536
1690682
1690828
1690972
1691120
1691266
1691410
1691552
1691694
1691838
1691982
1692122
1692262
1692400
1692540
1692682
1692826
1692972
1693116
1693260
1693404
1693548
1693694
1693838
1693982
1694128
1694270
1694416
1694564
1694710
1694856
1695002
1695148
1695292
1695432
1695572
1695710
1695846
1695986
1696126
1696268
1696410
1696552
1696696
1696840
1696986
1697134
1697278
1697422
1697566
1697710
1697852
1697992
1698134
1698272
1698414
1698558
1698700
1698844
1698988
1699130
1699272
1699414
1699556
1699698
1699840
1699982
1700126
1700270
1700416
1700560
1700706
1700852
1701000
1701148
1701294
1701440
1701588
1701734
1701878
1702020
1702166
1702314
1702460
1702606
1702752
1702902
1703048
1703192
1703334
1703478
1703618
1703758
1703898
1704038
1704182
1704324
1704466
1704608
1704750
1704896
1705040
1705184
1705322
1705460
1705598
1705738
1705876
1706014
1706152
1706290
1706428
1706566
1706704
1706842
1706978
1707112
1707244
1707376
1707510
1707644
1707784
1707922
1708058
1708196
1708336
1708472
1708612
1708750
1708890
1709030
1709168
1709304
1709440
1709580
1709720
1709860
1710000
1710138
1710278
1710422
1710562
1710702
1710844
1710984
1711124
1711264
1711404
1711542
1711680
1711818
1711954
1712090
1712226
1712366
1712508
1712644
1712784
1712924
1713064
1713200
1713338
1713474
1713610
1713744
1713880
1714016
1714154
1714292
1714426
1714560
1714694
1714830
1714968
1715104
1715238
1715370
1715504
1715636
1715770
1715904
1716034
1716166
1716298
1716428
1716560
1716694
1716830
1716966
1717098
1717232
1717366
1717502
1717638
1717774
1717908
1718042
1718176
1718310
1718444
1718582
1718722
1718862
1718996
1719132
1719268
1719404
1719538
1719674
1719808
1719946
1720080
1720218
1720358
1720496
1720636
1720772
1720910
1721044
1721180
1721316
1721450
1721582
1721714
1721844
1721974
1722104
1722234
1722364
1722494
1722624
1722756
1722888
1723016
1723144
1723272
1723402
1723528
1723654
1723778
1723904
1724028
1724154
1724282
1724410
1724536
1724664
1724792
1724922
1725048
1725176
1725300
1725426
1725548
1725668
1725790
1725912
1726034
1726156
1726280
1726402
1726528
1726652
1726778
1726902
1727024
1727144
1727266
1727388
1727508
1727628
1727748
1727870
1727992
1728114
1728234
1728358
1728482
1728606
1728722
1728850
1728970
1729092
1729212
1729332
1729450
1729568
1729686
1729804
1729922
1730042
1730158
1730276
1730394
1730512
1730630
1730748
1730864
1730980
1731094
1731212
1731328
1731442
1731560
1731678
1731796
1731914
1732034
1732154
1732276
1732398
1732520
1732642
1732768
1732894
1733020
1733146
1733274
1733402
1733530
1733658
1733788
1733918
1734048
1734178
1734308
1734438
1734570
1734702
1734832
1734962
1735092
1735226
1735360
1735496
1735630
1735764
1735898
1736032
1736170
1736306
1736442
1736578
1736714
1736846
1736980
1737116
1737254
1737388
1737522
1737656
1737792
1737930
1738070
1738210
1738352
1738490
1738630
1738770
1738908
1739052
1739194
1739338
1739480
1739624
1739774
1739922
1740070
1740220
1740370
1740524
1740680
1740834
1740986
1741140
1741296
1741452
1741606
1741760
1741914
1742068
1742222
1742378
1742534
1742690
1742846
1742998
1743146
1743290
1743434
1743576
1743722
1743866
1744008
1744150
1744294
1744438
1744586
1744726
1744868
1745014
1745160
1745312
1745464
1745614
1745762
1745904
1746052
1746206
1746364
1746522
1746674
1746822
1746968
1747114
1747256
1747400
1747542
1747684
1747826
1747966
1748110
1748256
1748404
1748550
1748696
1748844
1748992
1749142
1749290
1749436
1749582
1749726
1749872
1750022
1750172
1750322
1750474
1750624
1750778
1750934
1751088
1751240
1751392
1751542
1751690
1751840
1751990
1752138
1752290
1752444
1752598
1752752
1752904
1753056
1753210
1753366
1753520
1753676
1753838
1753998
1754160
1754322
1754482
1754640
1754798
1754956
1755116
1755274
1755434
1755598
1755764
1755926
1756086
1756252
1756416
1756574
1756734
1756888
1757042
1757198
1757356
1757518
1757680
1757842
1758004
1758166
1758328
1758488
1758644
1758798
1758954
1759108
1759262
1759412
1759562
1759714
1759872
1760028
1760184
1760338
1760492
1760646
1760798
1760950
1761102
1761254
1761408
1761566
1761724
1761884
1762042
1762198
1762354
1762512
1762672
1762814
1762988
1763144
1763300
1763458
1763620
1763780
1763940
1764098
1764258
1764414
1764572
1764730
1764888
1765046
1765206
1765370
1765534
1765698
1765858
1766022
1766186
1766346
1766508
1766668
1766828
1766986
1767144
1767304
1767466
1767626
1767782
1767876
1768098
1768252
1768404
1768554
1768704
1768798
1769012
1769166
1769324
1769482
1769638
1769796
1769944
1770124
1770288
1770450
1770620
1770782
1770944
1771110
1771276
1771444
1771540
1771772
1771934
1772092
1772250
1772404
1772552
1772704
1772856
1773014
1773170
1773328
1773488
1773648
1773810
1773976
1774140
1774302
1774462
1774622
1774784
1774944
1775104
1775262
1775418
1775576
1775736
1775896
1776054
1776212
1776370
1776530
1776694
1776860
1777022
1777180
1777340
1777498
1777662
1777828
1777992
1778154
1778314
1778472
1778628
1778780
1778932
1779084
1779240
1779396
1779554
1779710
1779870
1780030
1780190
1780350
1780508
1780664
1780820
1780976
1781132
1781290
1781448
1781606
1781764
1781926
1782088
1782246
1782400
1782552
1782710
1782868
1783030
1783196
1783362
1783526
1783694
1783860
1784028
1784188
1784350
1784510
1784674
1784838
1785004
1785172
1785340
1785510
1785680
1785850
1786018
1786182
1786344
1786504
1786662
1786818
1786976
1787134
1787292
1787448
1787608
1787764
1787918
1788074
1788228
1788380
1788534
1788694
1788854
1789018
1789186
1789356
1789530
1789704
1789880
1790050
1790216
1790384
1790552
1790722
1790890
1791058
1791230
1791400
1791570
1791740
1791908
1792074
1792238
1792400
1792564
1792726
1792890
1793056
1793220
1793384
1793550
1793718
1793886
1794050
1794216
1794378
1794540
1794702
1794866
1795032
1795198
1795364
1795536
1795706
1795876
1796046
1796214
1796382
1796552
1796722
1796896
1797070
1797242
1797416
1797590
1797764
1797936
1798108
1798280
1798452
1798624
1798792
1798958
1799122
1799282
1799438
1799594
1799756
1799923
