peaks
114
334
546
760
972
1184
1396
1604
1806
2018
2220
2426
2636
2840
3046
3254
3458
3664
3874
4080
4280
4486
4694
4902
5110
5314
5520
5728
5932
6134
6338
6542
6740
6940
7140
7338
7540
7736
7936
8134
8328
8528
8724
8932
9146
9352
9556
9770
9982
10192
10412
10640
10858
11084
11296
11526
11760
11980
12194
12410
12620
12828
13032
13234
13444
13656
13860
14076
14284
14500
14712
14918
15126
15326
15532
15744
15948
16154
16362
16566
16768
16978
17186
17396
17600
17810
18038
18254
18470
18676
18890
19096
19308
19526
19738
19952
20166
20376
20588
20796
21006
21226
21440
21662
21892
22116
22340
22554
22762
22974
23180
23384
23590
23792
23994
24204
24408
24620
24838
25048
25266
25496
25714
25928
26138
26362
26590
26808
27026
27236
27454
27670
27896
28108
28324
28544
28780
29002
29248
29498
29734
29962
30184
30400
30622
30842
31054
31264
31470
31674
31882
32090
32306
32530
32808
33080
33338
33596
33842
34072
34296
34514
34730
34938
35152
35368
35572
35788
36000
36204
36408
36608
36810
37014
37218
37420
37622
37824
38026
38222
38426
38632
38834
39042
39256
39468
39682
39896
40112
40328
40540
40750
40966
41174
41388
41596
41810
42028
42246
42456
42666
42884
43092
43296
43506
43712
43922
44136
44346
44558
44766
44970
45176
45378
45580
45788
45992
46192
46392
46594
46794
46996
47196
47396
47598
47800
48000
48210
48420
48620
48836
49054
49274
49484
49692
49906
50116
50320
50524
50734
50936
51132
51336
51538
51740
51940
52134
52336
52536
52740
52950
53162
53368
53576
53790
53998
54208
54418
54624
54834
55042
55248
55460
55676
55890
56114
56334
56552
56770
56984
57200
57420
57640
57878
58112
58334
58560
58790
59020
59242
59468
59688
59912
60140
60358
60588
60812
61028
61244
61462
61674
61890
62102
62312
62522
62734
62938
63144
63354
63566
63780
64008
64230
64446
64664
64880
65098
65320
65542
65760
65980
66200
66414
66632
66850
67064
67280
67498
67710
67926
68142
68354
68570
68786
69002
69214
69430
69642
69854
70070
70282
70496
70710
70922
71130
71342
71554
71762
71970
72184
72392
72602
72818
73030
73242
73460
73678
73896
74116
74338
74558
74776
74998
75216
75438
75658
75876
76088
76310
76518
76726
76948
77166
77386
77594
77810
78020
78238
78454
78674
78892
79110
79330
79552
79770
79996
80226
80448
80674
80896
81124
81350
81570
81804
82028
82250
82476
82706
82926
83148
83364
83584
83810
84034
84260
84488
84708
84928
85154
85370
85590
85808
86024
86236
86442
86650
86866
87076
87288
87498
87708
87918
88122
88334
88562
88796
89012
89236
89470
89690
89910
90142
90360
90578
90796
91010
91226
91446
91666
91890
92104
92324
92540
92750
92974
93194
93414
93632
93844
94064
94280
94498
94710
94926
95144
95356
95572
95792
96008
96222
96438
96650
96872
97090
97310
97532
97744
97962
98186
98424
98646
98870
99100
99322
99550
99768
99986
100206
100420
100636
100852
101062
101276
101484
101694
101908
102120
102330
102544
102758
102968
103186
103410
103626
103848
104064
104280
104498
104720
104936
105152
105374
105590
105806
106022
106238
106450
106664
106876
107082
107302
107514
107726
107942
108156
108370
108582
108790
109000
109220
109434
109648
109866
110084
110298
110516
110736
110948
111166
111384
111604
111830
112052
112278
112502
112728
112954
113178
113404
113634
113860
114088
114320
114548
114772
114996
115216
115442
115664
115884
116108
116330
116546
116768
116986
117206
117428
117646
117860
118078
118292
118514
118734
118950
119164
119376
119592
119806
120020
120238
120460
120672
120892
121112
121334
121548
121764
121972
122184
122394
122616
122826
123034
123244
123460
123678
123890
124102
124322
124538
124748
124960
125168
125372
125576
125782
125986
126190
126388
126594
126802
127010
127218
127434
127644
127864
128082
128300
128524
128748
128970
129190
129404
129618
129840
130054
130274
130494
130710
130922
131136
131352
131566
131784
132004
132218
132430
132650
132898
133136
133366
133596
133824
134054
134280
134500
134718
134934
135152
135378
135604
135820
136042
136262
136486
136712
136936
137184
137436
137678
137918
138150
138390
138632
138864
139100
139336
139560
139790
140010
140230
140466
140700
140928
141150
141366
141578
141798
142018
142238
142468
142694
142918
143146
143372
143598
143838
144070
144302
144534
144764
144996
145230
145462
145698
145938
146170
146394
146628
146852
147082
147310
147546
147790
148020
148280
148530
148752
148992
149248
149484
149724
149962
150196
150416
150636
150866
151088
151304
151522
151734
151950
152162
152378
152590
152798
153018
153238
153464
153698
153932
154160
154390
154614
154838
155058
155272
155486
155712
155932
156154
156382
156602
156824
157046
157268
157498
157726
157954
158188
158412
158636
158864
159078
159300
159534
159760
159986
160220
160460
160694
160924
161146
161370
161590
161806
162030
162248
162462
162686
162904
163124
163340
163554
163768
163980
164192
164412
164632
164848
165074
165296
165514
165738
165962
166192
166426
166674
166916
167150
167384
167616
167846
168076
168308
168538
168774
169004
169232
169460
169684
169908
170124
170348
170568
170792
171014
171236
171458
171690
171912
172140
172366
172586
172816
173038
173264
173494
173718
173948
174176
174402
174632
174858
175082
175308
175530
175756
175982
176208
176434
176662
176888
177116
177342
177558
177786
178016
178242
178462
178684
178902
179122
179342
179558
179776
179998
180216
180438
180650
180870
181090
181310
181536
181754
181970
182196
182432
182662
182888
183116
183344
183570
183796
184028
184264
184492
184722
184954
185184
185414
185642
185866
186090
186316
186550
186786
187014
187246
187478
187708
187942
188172
188396
188646
188888
189112
189344
189562
189788
190032
190252
190478
190712
190954
191182
191422
191672
191908
192164
192424
192678
192930
193178
193428
193678
193930
194180
194422
194664
194892
195130
195366
195598
195830
196062
196292
196520
196754
196980
197212
197446
197670
197904
198140
198368
198604
198836
199068
199302
199534
199770
200032
200304
200566
200818
201060
201300
201536
201766
201992
202220
202448
202672
202894
203128
203354
203598
203848
204092
204328
204562
204794
205026
205268
205510
205752
205996
206244
206488
206736
206982
207240
207496
207742
207994
208238
208486
208728
208970
209206
209434
209674
209904
210134
210364
210590
210822
211048
211280
211518
211750
211990
212226
212462
212694
212948
213200
213440
213680
213916
214144
214372
214602
214832
215056
215286
215522
215758
215988
216220
216454
216686
216922
217156
217390
217622
217862
218094
218326
218558
218790
219024
219260
219492
219720
219954
220190
220430
220656
220890
221134
221372
221618
221864
222116
222358
222602
222848
223088
223334
223574
223810
224062
224324
224588
224838
225078
225326
225568
225802
226040
226272
226502
226740
226980
227216
227456
227696
227926
228162
228392
228624
228862
229096
229332
229570
229804
230038
230278
230510
230742
230980
231214
231444
231676
231912
232146
232374
232594
232836
233088
233336
233578
233808
234044
234274
234502
234732
234956
235186
235414
235640
235864
236090
236316
236542
236770
237000
237236
237472
237710
237954
238210
238464
238718
238966
239216
239456
239700
239942
240188
240426
240666
240904
241142
241384
241628
241870
242104
242344
242588
242830
243068
243320
243562
243804
244044
244284
244518
244760
245006
245246
245486
245720
245968
246210
246458
246708
246954
247202
247452
247694
247934
248176
248408
248642
248874
249108
249350
249586
249834
250078
250310
250546
250778
251014
251256
251490
251728
251964
252202
252452
252712
252960
253206
253454
253702
253946
254182
254420
254660
254906
255158
255398
255644
255886
256142
256394
256638
256882
257128
257378
257640
257888
258150
258408
258666
258916
259172
259420
259658
259914
260186
260442
260690
260946
261196
261440
261688
261928
262174
262428
262670
262920
263178
263450
263708
263954
264212
264472
264730
264982
265244
265494
265742
266010
266310
266586
266858
267134
267402
267678
267948
268214
268472
268720
268958
269198
269450
269694
269938
270180
270420
270658
270898
271134
271376
271618
271870
272116
272362
272604
272852
273096
273336
273576
273812
274042
274280
274520
274758
275002
275244
275478
275718
275960
276198
276440
276688
276932
277170
277424
277670
277914
278166
278410
278648
278896
279138
279382
279630
279882
280132
280386
280646
280906
281162
281418
281674
281934
282188
282432
282698
282960
283216
283466
283722
283978
284242
284512
284788
285064
285322
285570
285822
286060
286298
286546
286788
287024
287272
287508
287738
287974
288216
288446
288678
288912
289142
289376
289612
289840
290074
290306
290540
290770
291002
291240
291474
291714
291956
292200
292444
292698
292960
293214
293466
293712
293960
294210
294458
294700
294942
295184
295428
295670
295914
296156
296400
296646
296890
297132
297382
297634
297876
298122
298366
298606
298846
299092
299338
299598
299866
300144
300428
300714
301000
301290
301586
301870
302156
302442
302726
303004
303286
303568
303856
304142
304416
304694
304972
305246
305514
305770
306016
306248
306482
306736
306980
307218
307468
307704
307942
308180
308412
308642
308882
309120
309360
309604
309846
310092
310340
310584
310828
311070
311316
311562
311806
312046
312292
312534
312782
313026
313264
313508
313748
313984
314226
314470
314714
314964
315230
315530
315816
316116
316418
316722
317016
317316
317618
317920
318222
318516
318804
319082
319340
319602
319838
320062
320290
320524
320750
320976
321218
321446
321682
321922
322160
322398
322630
322864
323098
323330
323562
323796
324030
324268
324508
324744
324976
325208
325438
325668
325904
326140
326374
326612
326850
327082
327320
327558
327790
328026
328260
328496
328736
328978
329220
329468
329710
329952
330192
330438
330682
330938
331184
331426
331670
331916
332168
332422
332668
332920
333170
333422
333744
334022
334308
334586
334860
335130
335394
335664
335930
336198
336454
336700
336944
337184
337430
337674
337916
338168
338420
338674
338936
339220
339508
339786
340064
340340
340616
340894
341162
341416
341664
341906
342152
342390
342638
342882
343118
343360
343594
343830
344070
344306
344550
344812
345080
345362
345642
345920
346200
346474
346748
347018
347292
347556
347816
348062
348296
348534
348772
349018
349258
349500
349750
349986
350228
350472
350716
350964
351212
351474
351738
352034
352322
352598
352874
353144
353414
353688
353964
354248
354540
354834
355128
355420
355712
356010
356314
356610
356896
357186
357458
357698
357942
358178
358404
358642
358874
359102
359338
359562
359792
360016
360246
360484
360718
360966
361228
361484
361732
361986
362224
362464
362708
362956
363196
363436
363678
363916
364158
364396
364636
364882
365124
365368
365612
365854
366102
366348
366598
366844
367098
367344
367586
367836
368078
368316
368558
368808
369060
369322
369598
369904
370196
370486
370780
371080
371378
371678
371980
372274
372564
372844
373116
373390
373682
373962
374240
374526
374808
375086
375370
375652
375942
376236
376520
376808
377100
377390
377682
377978
378270
378576
378872
379174
379478
379786
380098
380416
380736
381052
381372
381684
381996
382300
382604
382896
383192
383478
383766
384052
384348
384624
384900
385140
385360
385586
385822
386060
386284
386506
386734
386956
387186
387416
387644
387874
388100
388338
388564
388792
389026
389252
389478
389712
389948
390176
390406
390652
390894
391128
391374
391620
391866
392102
392350
392596
392838
393086
393336
393582
393824
394070
394316
394562
394818
395062
395312
395574
395850
396182
396488
396794
397100
397404
397702
397994
398286
398568
398856
399138
399426
399718
400016
400300
400584
400874
401180
401476
401774
402070
402370
402658
402950
403242
403544
403834
404128
404406
404686
404928
405216
405504
405770
406020
406278
406526
406762
407002
407266
407546
407844
408140
408432
408722
409010
409306
409606
409896
410200
410508
410810
411104
411398
411698
411996
412276
412556
412818
413054
413286
413512
413740
413958
414182
414418
414644
414864
415082
415308
415528
415750
415976
416200
416426
416652
416890
417108
417330
417558
417792
418014
418236
418468
418690
418922
419154
419396
419628
419864
420092
420322
420562
420800
421032
421268
421506
421742
421970
422206
422442
422680
422914
423158
423410
423678
423996
424292
424586
424880
425180
425476
425774
426074
426366
426668
426962
427254
427558
427850
428144
428440
428728
429008
429290
429566
429852
430142
430434
430722
431016
431292
431578
431850
432102
432350
432594
432848
433100
433344
433632
433934
434212
434486
434766
435042
435310
435560
435816
436058
436308
436630
436918
437206
437496
437782
438074
438362
438656
438958
439246
439538
439832
440124
440420
440716
441004
441300
441604
441898
442186
442478
442770
443052
443336
443624
443928
444210
444486
444742
444984
445214
445448
445714
445986
446266
446532
446784
447036
447262
447490
447718
447940
448154
448374
448598
448820
449040
449276
449510
449738
449966
450202
450446
450682
450914
451148
451374
451600
451832
452060
452284
452512
452736
452960
453188
453420
453650
453878
454112
454350
454586
454824
455064
455304
455544
455788
456026
456260
456496
456734
456968
457204
457440
457676
457910
458148
458384
458624
458862
459104
459346
459586
459824
460070
460316
460566
460822
461082
461366
461670
461954
462240
462532
462826
463118
463406
463692
463974
464254
464534
464814
465094
465370
465638
465892
466134
466382
466658
466932
467184
467436
467680
467916
468152
468380
468610
468844
469072
469298
469522
469744
469968
470188
470412
470640
470868
471096
471320
471552
471788
472022
472256
472498
472736
472976
473216
473456
473692
473930
474168
474402
474638
474876
475116
475356
475594
475832
476062
476294
476526
476760
476988
477216
477444
477674
477904
478132
478355
478598
478828
479060
479296
479530
479776
480024
480268
480518
480768
481012
481266
481520
481768
482014
482256
482498
482740
482982
483236
483486
483732
483984
484232
484478
484732
484986
485240
485496
485774
486054
486326
486590
486842
487088
487340
487584
487826
488072
488318
488564
488812
489066
489326
489590
489866
490154
490444
490726
491006
491284
491556
491824
492086
492338
492576
492818
493058
493302
493554
493808
494064
494314
494558
494824
495102
495384
495674
495948
496220
496492
496748
497000
497258
497516
497772
498026
498272
498522
498776
499026
499270
499524
499768
500018
500266
500510
500756
501002
501248
501496
501738
501986
502232
502472
502714
502960
503200
503450
503716
504008
504298
504578
504856
505132
505404
505672
505932
506180
506428
506676
506942
507190
507446
507698
507950
508200
508470
508778
509060
509340
509622
509910
510196
510478
510762
511040
511320
511610
511908
512198
512500
512802
513098
513406
513712
514006
514300
514594
514878
515160
515430
515682
515986
516284
516558
516856
517152
517442
517736
518034
518330
518622
518928
519230
519530
519828
520128
520422
520730
521030
521320
521606
521900
522192
522478
522768
523068
523350
523646
523940
524232
524514
524802
525084
525360
525614
525852
526084
526310
526532
526756
526984
527206
527430
527662
527892
528122
528362
528598
528832
529074
529314
529548
529788
530034
530270
530518
530778
531030
531276
531524
531764
532008
532256
532502
532742
532984
533222
533458
533694
533934
534176
534422
534662
534908
535158
535404
535648
535898
536146
536396
536640
536890
537140
537388
537636
537900
538152
538404
538650
538906
539160
539408
539658
539910
540156
540404
540644
540886
541124
541364
541600
541852
542152
542440
542700
542970
543256
543534
543814
544084
544334
544582
544830
545082
545336
545584
545828
546074
546322
546576
546828
547092
547356
547620
547886
548148
548406
548684
548966
549288
549596
549896
550206
550518
550824
551136
551448
551754
552056
552342
552624
552922
553220
553512
553804
554106
554388
554676
554956
555204
555440
555678
555910
556138
556366
556596
556820
557052
557310
557620
557910
558192
558474
558746
559022
559298
559560
559806
560046
560278
560508
560740
560976
561216
561454
561690
561930
562164
562398
562630
562870
563108
563346
563590
563838
564084
564348
564640
564932
565210
565472
565726
565970
566212
566446
566678
566908
567136
567364
567594
567822
568050
568282
568514
568746
568978
569208
569436
569666
569896
570122
570350
570578
570806
571034
571266
571494
571726
571954
572180
572406
572640
572870
573106
573342
573578
573812
574046
574282
574524
574762
575002
575244
575488
575724
575964
576204
576446
576688
576930
577168
577408
577648
577888
578132
578374
578614
578852
579088
579326
579566
579798
580030
580260
580492
580730
580966
581206
581448
581684
581920
582150
582384
582616
582852
583092
583334
583574
583810
584052
584294
584534
584774
585014
585252
585486
585720
585956
586186
586430
586670
586912
587154
587394
587636
587882
588124
588372
588622
588864
589110
589354
589604
589874
590126
590372
590614
590854
591090
591328
591568
591818
592060
592304
592548
592794
593044
593292
593542
593806
594060
594314
594564
594808
595056
595300
595540
595774
596008
596242
596476
596710
596942
597176
597410
597644
597880
598122
598364
598608
598856
599102
599350
599598
599846
600098
600358
600612
600860
601106
601350
601586
601824
602060
602296
602534
602774
603016
603260
603502
603744
603988
604228
604468
604706
604942
605184
605422
605656
605896
606138
606376
606618
606858
607096
607334
607570
607806
608040
608276
608516
608752
608992
609244
609502
609762
610030
610296
610564
610826
611086
611348
611608
611860
612104
612348
612590
612834
613078
613328
613594
613872
614144
614414
614680
614948
615202
615458
615720
615998
616276
616536
616792
617038
617286
617542
617792
618036
618290
618540
618786
619038
619286
619526
619768
620016
620270
620552
620842
621112
621394
621674
621956
622238
622516
622790
623068
623348
623622
623878
624124
624366
624608
624846
625094
625338
625618
625926
626202
626474
626734
626986
627230
627466
627694
627926
628162
628398
628634
628870
629110
629346
629582
629818
630052
630280
630512
630746
630976
631214
631458
631696
631934
632180
632420
632660
632902
633148
633386
633626
633864
634100
634338
634576
634820
635068
635312
635554
635796
636040
636280
636518
636764
637010
637254
637498
637738
637984
638232
638478
638716
638962
639212
639466
639724
639976
640226
640480
640728
640984
641234
641480
641722
641968
642214
642452
642696
642948
643192
643448
643698
643946
644188
644432
644676
644914
645154
645408
645652
645896
646150
646400
646648
646900
647150
647412
647680
647944
648204
648464
648728
649046
649334
649634
649930
650228
650514
650800
651088
651382
651670
651958
652250
652534
652832
653130
653420
653708
653992
654262
654500
654736
654970
655208
655436
655664
655892
656130
656394
656666
656934
657188
657432
657688
657946
658188
658432
658682
658922
659162
659402
659634
659868
660106
660342
660590
660854
661116
661372
661620
661862
662100
662336
662580
662822
663072
663324
663582
663840
664098
664354
664618
664884
665142
665388
665576
665866
666114
666354
666592
666828
667066
667304
667552
667798
668040
668290
668536
668780
669028
669278
669526
669780
670048
670302
670548
670796
671038
671278
671514
671752
671998
672250
672512
672772
673024
673280
673558
673848
674134
674412
674690
674978
675264
675554
675852
676156
676456
676746
677028
677322
677610
677896
678180
678462
678732
678980
679244
679528
679810
680098
680386
680658
680920
681182
681434
681706
682030
682322
682616
682898
683184
683470
683764
684046
684328
684616
684896
685176
685458
685738
686004
686282
686590
686892
687204
687506
687814
688120
688422
688720
689006
689290
689566
689824
690064
690304
690542
690778
691018
691260
691494
691732
691976
692218
692454
692698
692946
693190
693444
693694
693936
694178
694416
694658
694898
695138
695380
695624
695862
696108
696362
696610
696854
697102
697348
697596
697848
698094
698342
698596
698844
699092
699344
699600
699856
700118
700396
700692
701000
701298
701600
701906
702216
702524
702836
703146
703450
703740
704018
704308
704594
704870
705150
705414
705658
705894
706140
706378
706612
706852
707092
707328
707576
707822
708064
708312
708558
708800
709046
709290
709534
709786
710036
710286
710534
710782
711030
711276
711522
711772
712022
712270
712518
712762
713004
713250
713498
713740
713980
714222
714458
714694
714930
715166
715404
715644
715884
716128
716370
716622
716874
717142
717416
717704
717986
718260
718520
718764
719006
719246
719484
719722
719964
720206
720452
720700
720946
721192
721448
721702
721952
722198
722458
722710
722960
723214
723456
723698
723944
724182
724424
724676
724936
725206
725468
725730
725996
726262
726570
726852
727142
727432
727708
727982
728248
728506
728764
729006
729242
729492
729732
729976
730230
730472
730714
730974
731234
731494
731748
732008
732272
732534
732798
733060
733316
733574
733818
734072
734326
734570
734812
735056
735300
735552
735816
736078
736342
736618
736902
737206
737492
737774
738048
738324
738600
738876
739146
739404
739666
739926
740170
740430
740686
740936
741190
741446
741698
741952
742214
742466
742724
742982
743238
743494
743750
744000
744256
744518
744786
745050
745320
745580
745834
746092
746342
746594
746850
747112
747378
747646
747924
748210
748498
748782
749066
749362
749652
749934
750226
750520
750816
751108
751400
751692
751982
752264
752540
752814
753094
753368
753648
753928
754210
754490
754772
755060
755346
755646
755946
756238
756528
756828
757124
757410
757696
757978
758254
758534
758814
759100
759386
759666
759952
760232
760514
760804
761086
761356
761610
761858
762100
762336
762570
762810
763052
763294
763522
763762
763998
764238
764470
764706
764940
765176
765414
765652
765892
766126
766368
766612
766852
767094
767338
767580
767820
768060
768302
768538
768776
769014
769258
769502
769746
769992
770232
770478
770734
770988
771238
771494
771748
772002
772266
772540
772828
773104
773370
773630
773888
774146
774404
774658
774902
775146
775392
775646
775908
776160
776412
776664
776930
777198
777454
777708
777964
778216
778474
778734
778996
779254
779522
779790
780058
780342
780670
780972
781278
781586
781894
782200
782498
782788
783088
783382
783670
783954
784246
784526
784800
785080
785354
785614
785864
786110
786362
786606
786848
787094
787336
787574
787812
788048
788284
788524
788764
789006
789246
789500
789766
790028
790284
790538
790788
791056
791346
791622
791890
792152
792412
792666
792916
793158
793410
793662
793916
794176
794432
794716
795014
795296
795578
795858
796138
796412
796672
796930
797182
797454
797776
798070
798364
798668
798968
799268
799566
799858
800154
800454
800756
801050
801334
801606
801856
802102
802346
802638
802946
803230
803510
803782
804054
804310
804578
804874
805180
805480
805774
806068
806368
806664
806962
807268
807572
807868
808166
808466
808764
809064
809364
809666
809964
810248
810542
810842
811130
811404
811668
811916
812160
812402
812634
812870
813100
813326
813552
813782
814010
814238
814470
814702
814936
815174
815412
815646
815884
816120
816354
816588
816828
817068
817306
817546
817786
818030
818272
818512
818754
818996
819234
819472
819714
819958
820198
820442
820690
820934
821180
821430
821674
821918
822162
822404
822640
822882
823124
823366
823610
823856
824104
824356
824612
824880
825208
825504
825810
826112
826418
826722
827020
827322
827614
827910
828202
828484
828766
829058
829354
829644
829926
830208
830492
830792
831088
831378
831666
831954
832238
832514
832798
833096
833384
833672
833976
834276
834582
834888
835190
835502
835804
836120
836434
836744
837056
837360
837668
837972
838264
838548
838840
839134
839416
839692
839972
840264
840550
840830
841114
841372
841614
841852
842078
842308
842542
842758
843008
843244
843476
843700
843940
844168
844392
844616
844842
845068
845294
845524
845752
845982
846210
846442
846678
846934
847182
847422
847660
847892
848120
848344
848580
848812
849042
849282
849520
849756
849996
850240
850480
850728
850974
851222
851468
851712
851956
852198
852436
852676
852914
853148
853382
853618
853856
854092
854330
854566
854810
855052
855292
855538
855786
856036
856288
856546
856824
857146
857444
857750
858052
858364
858676
858982
859284
859582
859880
860180
860482
860786
861088
861372
861660
861938
862216
862490
862778
863052
863332
863624
863908
864188
864456
864698
864944
865178
865412
865650
865886
866120
866364
866606
866848
867096
867336
867574
867812
868050
868292
868534
868774
869024
869274
869534
869802
870070
870330
870584
870832
871078
871326
871574
871822
872068
872316
872552
872790
873028
873274
873538
873790
874032
874268
874514
874766
875018
875270
875516
875756
875996
876242
876496
876750
877004
877254
877508
877760
878020
878284
878546
878810
879062
879316
879568
879820
880082
880380
880692
880986
881286
881584
881886
882196
882496
882790
883090
883384
883670
883950
884230
884500
884766
885010
885258
885504
885746
885990
886230
886466
886710
886950
887192
887452
887712
888016
888316
888620
888924
889228
889540
889842
890156
890472
890778
891098
891412
891716
892022
892320
892620
892920
893212
893506
893786
894074
894356
894648
894952
895264
895558
895848
896130
896386
896626
896856
897094
897326
897554
897786
898014
898242
898472
898700
898928
899162
899402
899642
899886
900134
900374
900612
900850
901096
901414
901696
901970
902238
902508
902770
903022
903266
903520
903772
904014
904254
904488
904720
904954
905188
905420
905650
905884
906114
906346
906576
906808
907038
907178
907478
907748
908008
908266
908512
908748
908980
909214
909446
909676
909908
910146
910378
910608
910844
911074
911304
911534
911758
911984
912208
912430
912660
912892
913120
913350
913578
913804
914036
914264
914490
914716
914948
915184
915418
915652
915884
916122
916362
916602
916836
917062
917294
917530
917758
917990
918224
918454
918686
918916
919150
919382
919616
919856
920094
920326
920560
920792
921028
921260
921494
921728
921958
922190
922426
922664
922898
923130
923362
923594
923826
924056
924290
924520
924750
924980
925208
925438
925666
925892
926120
926348
926574
926802
927030
927256
927492
927748
928006
928250
928484
928736
928956
929186
929412
929638
929872
930098
930332
930560
930788
931020
931250
931474
931698
931914
932132
932346
932560
932770
932988
933198
933414
933628
933842
934062
934282
934508
934728
934946
935168
935394
935618
935840
936066
936292
936518
936738
936962
937186
937410
937626
937848
938070
938298
938520
938742
938962
939186
939410
939636
939860
940078
940306
940524
940748
940970
941192
941416
941638
941860
942086
942304
942528
942760
942982
943208
943432
943656
943880
944110
944342
944570
944800
945026
945260
945492
945720
945948
946172
946396
946618
946844
947064
947286
947508
947728
947948
948164
948384
948600
948818
949040
949264
949486
949708
949932
950160
950382
950608
950834
951062
951284
951510
951734
951956
952180
952402
952626
952846
953066
953288
953508
953728
953950
954174
954398
954616
954838
955062
955280
955500
955724
955948
956168
956390
956610
956826
957044
957264
957488
957704
957924
958142
958364
958596
958828
959064
959298
959530
959760
959998
960228
960460
960694
960922
961148
961378
961606
961830
962056
962280
962508
962734
962958
963184
963404
963628
963858
964092
964326
964562
964802
965040
965276
965514
965750
965984
966218
966462
966694
966928
967160
967398
967632
967870
968112
968348
968584
968824
969062
969298
969536
969778
970010
970244
970472
970702
970926
971150
971372
971590
971804
972018
972234
972448
972660
972878
973094
973308
973528
973748
973970
974194
974416
974646
974870
975098
975326
975556
975782
976002
976228
976454
976670
976890
977112
977330
977554
977774
978004
978230
978452
978684
978918
979152
979380
979616
979840
980066
980286
980508
980728
980946
981166
981388
981606
981824
982048
982272
982494
982724
982954
983184
983416
983648
983874
984100
984324
984550
984774
984998
985224
985450
985672
985896
986128
986356
986582
986810
987042
987272
987502
987730
987962
988190
988422
988658
988894
989132
989374
989616
989858
990090
990326
990562
990794
991038
991278
991514
991756
991996
992242
992480
992718
992956
993202
993452
993696
993940
994180
994420
994658
994900
995148
995394
995632
995868
996106
996338
996576
996820
997056
997290
997526
997770
998012
998258
998496
998728
998960
999198
999436
999680
999940
1000210
1000462
1000706
1000946
1001176
1001402
1001626
1001850
1002078
1002298
1002526
1002758
1002984
1003216
1003446
1003674
1003894
1004124
1004354
1004586
1004806
1005040
1005272
1005506
1005750
1005996
1006234
1006484
1006724
1006964
1007200
1007438
1007682
1007934
1008178
1008422
1008664
1008904
1009144
1009382
1009610
1009840
1010072
1010296
1010520
1010744
1010964
1011184
1011404
1011622
1011846
1012076
1012308
1012542
1012780
1013012
1013250
1013490
1013726
1013966
1014198
1014428
1014652
1014880
1015106
1015334
1015562
1015786
1016008
1016230
1016452
1016672
1016892
1017108
1017328
1017542
1017760
1017984
1018204
1018424
1018642
1018862
1019076
1019290
1019506
1019720
1019930
1020142
1020350
1020564
1020776
1020986
1021202
1021416
1021630
1021846
1022062
1022278
1022498
1022720
1022936
1023170
1023396
1023624
1023854
1024078
1024306
1024532
1024760
1024986
1025210
1025434
1025656
1025878
1026098
1026322
1026542
1026760
1026978
1027200
1027418
1027638
1027864
1028084
1028306
1028528
1028752
1028972
1029200
1029424
1029644
1029868
1030090
1030302
1030528
1030760
1030998
1031236
1031464
1031698
1031922
1032146
1032366
1032582
1032798
1033010
1033216
1033430
1033650
1033868
1034082
1034292
1034510
1034722
1034930
1035140
1035356
1035574
1035794
1036018
1036248
1036484
1036722
1036960
1037198
1037454
1037708
1037952
1038196
1038446
1038688
1038932
1039178
1039424
1039666
1039918
1040158
1040394
1040634
1040868
1041102
1041336
1041564
1041796
1042028
1042260
1042494
1042734
1042972
1043220
1043480
1043720
1043968
1044214
1044452
1044690
1044934
1045178
1045420
1045682
1045954
1046202
1046454
1046736
1046994
1047240
1047486
1047734
1047982
1048236
1048524
1048800
1049058
1049314
1049576
1049830
1050076
1050354
1050624
1050876
1051120
1051352
1051576
1051800
1052030
1052262
1052498
1052738
1052980
1053218
1053454
1053698
1053942
1054112
1054404
1054648
1054880
1055110
1055338
1055570
1055800
1056028
1056260
1056490
1056724
1056966
1057224
1057476
1057716
1057954
1058188
1058420
1058652
1058884
1059114
1059346
1059576
1059810
1060038
1060266
1060498
1060726
1060960
1061188
1061418
1061652
1061884
1062118
1062356
1062592
1062828
1063082
1063352
1063608
1063866
1064116
1064352
1064588
1064816
1065040
1065264
1065492
1065724
1065954
1066184
1066420
1066654
1066886
1067120
1067360
1067604
1067848
1068094
1068342
1068584
1068824
1069066
1069306
1069538
1069774
1070016
1070248
1070480
1070714
1070942
1071168
1071400
1071628
1071860
1072096
1072330
1072564
1072798
1073034
1073270
1073518
1073764
1074006
1074252
1074488
1074722
1074956
1075186
1075428
1075664
1075904
1076136
1076366
1076596
1076830
1077068
1077314
1077638
1077916
1078198
1078474
1078748
1078996
1079242
1079490
1079730
1079964
1080202
1080432
1080656
1080930
1081168
1081398
1081628
1081854
1082074
1082298
1082524
1082750
1082978
1083212
1083448
1083686
1083924
1084158
1084390
1084622
1084852
1085082
1085322
1085562
1085798
1086038
1086276
1086508
1086744
1086980
1087208
1087440
1087676
1087910
1088148
1088380
1088620
1088856
1089088
1089326
1089564
1089798
1090040
1090272
1090504
1090742
1090976
1091208
1091440
1091672
1091904
1092144
1092392
1092644
1092888
1093136
1093380
1093618
1093862
1094106
1094352
1094600
1094842
1095086
1095320
1095558
1095800
1096036
1096268
1096506
1096738
1096970
1097210
1097450
1097682
1097922
1098152
1098380
1098612
1098846
1099084
1099326
1099568
1099806
1100050
1100282
1100516
1100750
1100998
1101248
1101478
1101722
1101968
1102208
1102458
1102706
1102950
1103188
1103422
1103682
1103940
1104184
1104412
1104652
1104904
1105156
1105404
1105638
1105880
1106120
1106354
1106586
1106818
1107048
1107294
1107544
1107804
1108094
1108406
1108690
1108974
1109246
1109506
1109750
1109988
1110220
1110460
1110702
1110938
1111208
1111482
1111734
1111980
1112230
1112470
1112708
1112952
1113204
1113450
1113692
1113932
1114164
1114394
1114628
1114856
1115078
1115308
1115550
1115802
1116052
1116288
1116522
1116750
1116978
1117210
1117436
1117660
1117884
1118108
1118328
1118552
1118772
1118986
1119204
1119416
1119632
1119852
1120066
1120274
1120486
1120694
1120902
1121112
1121332
1121530
1121724
1121930
1122138
1122338
1122544
1122750
1122960
1123170
1123382
1123592
1123810
1124028
1124246
1124472
1124694
1124914
1125134
1125356
1125578
1125802
1126022
1126244
1126462
1126678
1126898
1127118
1127336
1127552
1127764
1127980
1128196
1128406
1128624
1128838
1129048
1129262
1129476
1129684
1129896
1130108
1130320
1130534
1130750
1130962
1131178
1131396
1131612
1131834
1132056
1132272
1132494
1132716
1132934
1133152
1133374
1133596
1133818
1134038
1134258
1134478
1134696
1134912
1135134
1135356
1135574
1135796
1136018
1136238
1136462
1136682
1136908
1137130
1137354
1137574
1137790
1138008
1138238
1138462
1138686
1138906
1139124
1139352
1139566
1139788
1140024
1140262
1140496
1140722
1140948
1141180
1141408
1141640
1141870
1142094
1142328
1142554
1142780
1143004
1143228
1143452
1143676
1143896
1144120
1144342
1144560
1144782
1145010
1145236
1145462
1145684
1145908
1146136
1146366
1146604
1146838
1147066
1147292
1147518
1147744
1147970
1148196
1148422
1148650
1148874
1149106
1149328
1149552
1149776
1150004
1150228
1150456
1150688
1150916
1151144
1151368
1151604
1151838
1152072
1152314
1152552
1152790
1153022
1153260
1153500
1153740
1153982
1154216
1154448
1154674
1154906
1155132
1155362
1155598
1155828
1156070
1156308
1156548
1156794
1157036
1157276
1157504
1157734
1157968
1158200
1158430
1158654
1158882
1159100
1159320
1159542
1159770
1159992
1160218
1160448
1160680
1160916
1161164
1161408
1161646
1161886
1162122
1162362
1162604
1162840
1163078
1163316
1163552
1163788
1164022
1164254
1164490
1164732
1164964
1165196
1165426
1165666
1165906
1166144
1166374
1166598
1166854
1167140
1167404
1167656
1167902
1168144
1168390
1168618
1168842
1169060
1169276
1169492
1169712
1169930
1170150
1170366
1170582
1170796
1171012
1171230
1171444
1171660
1171874
1172094
1172308
1172516
1172726
1172934
1173138
1173342
1173538
1173746
1173956
1174164
1174372
1174582
1174786
1174992
1175198
1175404
1175608
1175808
1176014
1176218
1176422
1176628
1176832
1177044
1177248
1177452
1177656
1177862
1178066
1178266
1178470
1178674
1178874
1179076
1179276
1179484
1179688
1179894
1180102
1180308
1180516
1180722
1180926
1181132
1181332
1181536
1181740
1181946
1182148
1182346
1182546
1182752
1182952
1183154
1183362
1183566
1183766
1183964
1184162
1184360
1184562
1184764
1184964
1185170
1185374
1185576
1185786
1185998
1186200
1186412
1186624
1186840
1187052
1187262
1187472
1187688
1187896
1188108
1188324
1188536
1188746
1188954
1189162
1189378
1189586
1189794
1190006
1190220
1190426
1190638
1190852
1191060
1191272
1191486
1191698
1191916
1192132
1192344
1192560
1192768
1192978
1193194
1193402
1193612
1193822
1194034
1194250
1194462
1194676
1194888
1195102
1195318
1195528
1195744
1195958
1196170
1196390
1196608
1196824
1197042
1197264
1197480
1197698
1197916
1198132
1198352
1198562
1198770
1198982
1199192
1199402
1199616
1199826
1200038
1200252
1200466
1200682
1200900
1201118
1201340
1201564
1201786
1202010
1202230
1202454
1202680
1202902
1203130
1203352
1203580
1203800
1204030
1204260
1204484
1204710
1204938
1205156
1205382
1205604
1205822
1206048
1206266
1206488
1206708
1206922
1207136
1207352
1207568
1207780
1208004
1208224
1208438
1208658
1208882
1209092
1209308
1209520
1209734
1209950
1210162
1210380
1210598
1210810
1211034
1211248
1211474
1211696
1211914
1212136
1212354
1212570
1212792
1213010
1213226
1213448
1213664
1213884
1214096
1214308
1214526
1214742
1214962
1215180
1215400
1215622
1215838
1216066
1216292
1216512
1216738
1216968
1217190
1217422
1217650
1217880
1218098
1218322
1218538
1218756
1218976
1219192
1219410
1219622
1219840
1220056
1220272
1220492
1220706
1220922
1221140
1221356
1221576
1221798
1222014
1222234
1222454
1222674
1222898
1223112
1223334
1223556
1223774
1223996
1224216
1224434
1224658
1224880
1225098
1225324
1225544
1225768
1225992
1226210
1226438
1226666
1226892
1227118
1227346
1227564
1227792
1228012
1228234
1228460
1228680
1228900
1229122
1229340
1229558
1229772
1229990
1230206
1230416
1230628
1230838
1231056
1231268
1231486
1231708
1231918
1232136
1232354
1232574
1232792
1233008
1233224
1233444
1233658
1233872
1234096
1234316
1234534
1234760
1234978
1235200
1235422
1235642
1235866
1236096
1236318
1236540
1236760
1236970
1237186
1237402
1237622
1237834
1238056
1238274
1238492
1238708
1238916
1239134
1239344
1239558
1239778
1239992
1240204
1240418
1240640
1240854
1241068
1241286
1241500
1241718
1241934
1242144
1242366
1242584
1242800
1243024
1243242
1243462
1243678
1243900
1244124
1244340
1244564
1244782
1245006
1245228
1245448
1245676
1245904
1246134
1246374
1246618
1246852
1247086
1247320
1247546
1247774
1247996
1248220
1248442
1248660
1248878
1249098
1249314
1249532
1249750
1249968
1250186
1250402
1250624
1250850
1251068
1251296
1251528
1251750
1251974
1252204
1252428
1252650
1252876
1253096
1253322
1253544
1253762
1253980
1254196
1254416
1254640
1254864
1255078
1255306
1255532
1255762
1255990
1256216
1256450
1256684
1256912
1257150
1257388
1257626
1257864
1258102
1258332
1258560
1258790
1259012
1259238
1259466
1259688
1259910
1260136
1260368
1260606
1260840
1261076
1261304
1261534
1261756
1261968
1262194
1262410
1262632
1262862
1263094
1263318
1263542
1263772
1263996
1264220
1264440
1264660
1264878
1265094
1265318
1265546
1265770
1265994
1266224
1266446
1266672
1266900
1267122
1267346
1267574
1267796
1268024
1268246
1268462
1268682
1268904
1269120
1269340
1269564
1269780
1270002
1270226
1270446
1270668
1270882
1271104
1271326
1271544
1271768
1271992
1272218
1272438
1272660
1272890
1273114
1273348
1273576
1273798
1274018
1274232
1274456
1274668
1274888
1275110
1275328
1275552
1275788
1276018
1276244
1276462
1276678
1276898
1277106
1277322
1277536
1277746
1277956
1278166
1278372
1278584
1278792
1278998
1279210
1279418
1279628
1279840
1280052
1280268
1280482
1280700
1280918
1281142
1281360
1281580
1281804
1282024
1282246
1282470
1282692
1282912
1283134
1283354
1283570
1283792
1284008
1284230
1284452
1284676
1284900
1285120
1285340
1285562
1285782
1286006
1286226
1286446
1286668
1286886
1287104
1287326
1287546
1287758
1287974
1288190
1288406
1288622
1288836
1289052
1289270
1289484
1289702
1289920
1290136
1290354
1290574
1290794
1291018
1291240
1291462
1291684
1291906
1292124
1292344
1292564
1292786
1293012
1293232
1293454
1293674
1293890
1294112
1294330
1294548
1294772
1294998
1295220
1295444
1295670
1295898
1296122
1296346
1296572
1296790
1297018
1297238
1297464
1297686
1297906
1298134
1298356
1298574
1298792
1299012
1299230
1299444
1299658
1299874
1300082
1300290
1300500
1300710
1300920
1301128
1301340
1301552
1301758
1301968
1302180
1302388
1302598
1302806
1303014
1303224
1303430
1303638
1303852
1304060
1304276
1304488
1304702
1304910
1305116
1305330
1305540
1305750
1305962
1306168
1306382
1306594
1306802
1307014
1307226
1307442
1307652
1307866
1308080
1308294
1308510
1308726
1308936
1309154
1309364
1309582
1309796
1310006
1310224
1310448
1310670
1310894
1311114
1311342
1311564
1311790
1312018
1312236
1312456
1312682
1312902
1313126
1313344
1313564
1313790
1314010
1314236
1314462
1314690
1314916
1315138
1315366
1315592
1315812
1316042
1316272
1316494
1316718
1316936
1317158
1317376
1317592
1317812
1318028
1318244
1318462
1318680
1318898
1319124
1319338
1319564
1319782
1320000
1320224
1320448
1320670
1320892
1321116
1321336
1321552
1321762
1321980
1322190
1322404
1322622
1322834
1323052
1323266
1323484
1323700
1323914
1324128
1324346
1324560
1324776
1324988
1325204
1325422
1325636
1325852
1326076
1326292
1326510
1326724
1326938
1327154
1327368
1327584
1327804
1328016
1328230
1328446
1328664
1328886
1329104
1329328
1329546
1329764
1329984
1330202
1330428
1330654
1330876
1331100
1331326
1331546
1331768
1331982
1332202
1332420
1332634
1332848
1333050
1333262
1333480
1333694
1333908
1334118
1334334
1334548
1334764
1334984
1335198
1335420
1335638
1335864
1336088
1336314
1336538
1336754
1336974
1337190
1337408
1337626
1337844
1338060
1338272
1338492
1338716
1338934
1339150
1339368
1339584
1339794
1340014
1340234
1340448
1340668
1340878
1341098
1341312
1341530
1341750
1341964
1342186
1342404
1342620
1342834
1343046
1343258
1343470
1343678
1343894
1344110
1344320
1344536
1344748
1344962
1345174
1345386
1345604
1345816
1346032
1346242
1346458
1346672
1346882
1347100
1347312
1347532
1347750
1347966
1348190
1348416
1348636
1348864
1349088
1349312
1349540
1349758
1349984
1350198
1350418
1350636
1350852
1351068
1351280
1351504
1351724
1351944
1352168
1352384
1352604
1352820
1353034
1353246
1353458
1353674
1353890
1354102
1354320
1354544
1354766
1354982
1355206
1355430
1355652
1355878
1356104
1356324
1356540
1356758
1356972
1357194
1357412
1357626
1357842
1358058
1358268
1358480
1358696
1358912
1359126
1359346
1359564
1359780
1360000
1360216
1360438
1360658
1360876
1361098
1361320
1361532
1361746
1361964
1362174
1362386
1362602
1362814
1363024
1363238
1363452
1363664
1363878
1364088
1364298
1364512
1364722
1364932
1365148
1365362
1365574
1365790
1366008
1366224
1366444
1366662
1366884
1367106
1367322
1367540
1367762
1367976
1368196
1368422
1368644
1368866
1369090
1369314
1369544
1369768
1369990
1370216
1370430
1370652
1370874
1371094
1371324
1371550
1371770
1371990
1372210
1372430
1372652
1372872
1373092
1373318
1373552
1373782
1374016
1374248
1374480
1374712
1374940
1375172
1375402
1375636
1375866
1376102
1376336
1376562
1376790
1377016
1377234
1377462
1377696
1377920
1378150
1378374
1378600
1378824
1379044
1379270
1379494
1379714
1379942
1380166
1380390
1380620
1380846
1381068
1381292
1381514
1381742
1381970
1382190
1382410
1382638
1382856
1383080
1383314
1383544
1383776
1384020
1384256
1384484
1384714
1384944
1385180
1385422
1385656
1385892
1386122
1386352
1386580
1386798
1387006
1387220
1387426
1387636
1387846
1388056
1388272
1388488
1388704
1388920
1389140
1389352
1389568
1389786
1390002
1390222
1390442
1390664
1390892
1391114
1391338
1391566
1391782
1391996
1392210
1392430
1392656
1392872
1393086
1393300
1393508
1393722
1393932
1394142
1394352
1394556
1394764
1394976
1395184
1395394
1395612
1395822
1396034
1396250
1396466
1396680
1396898
1397120
1397336
1397550
1397764
1397972
1398188
1398412
1398622
1398836
1399048
1399258
1399468
1399688
1399900
1400114
1400330
1400544
1400756
1400966
1401176
1401384
1401590
1401798
1402004
1402214
1402422
1402628
1402830
1403036
1403242
1403446
1403650
1403860
1404064
1404270
1404478
1404694
1404902
1405112
1405324
1405538
1405748
1405960
1406178
1406392
1406602
1406816
1407032
1407246
1407462
1407676
1407892
1408110
1408326
1408540
1408758
1408978
1409192
1409408
1409630
1409842
1410060
1410276
1410492
1410706
1410918
1411134
1411344
1411554
1411764
1411978
1412192
1412402
1412606
1412818
1413026
1413234
1413448
1413668
1413882
1414102
1414328
1414546
1414766
1414984
1415198
1415418
1415634
1415848
1416070
1416292
1416510
1416736
1416964
1417182
1417406
1417628
1417848
1418074
1418300
1418524
1418762
1419002
1419234
1419464
1419684
1419904
1420132
1420354
1420576
1420804
1421028
1421248
1421476
1421708
1421932
1422158
1422384
1422608
1422830
1423060
1423282
1423508
1423730
1423948
1424176
1424406
1424626
1424854
1425086
1425308
1425532
1425758
1425976
1426196
1426420
1426640
1426862
1427084
1427308
1427528
1427748
1427978
1428198
1428424
1428654
1428876
1429104
1429336
1429562
1429788
1430020
1430252
1430476
1430702
1430932
1431152
1431374
1431600
1431818
1432042
1432272
1432490
1432706
1432924
1433140
1433358
1433572
1433782
1433998
1434212
1434422
1434640
1434856
1435072
1435296
1435520
1435738
1435964
1436196
1436416
1436646
1436878
1437098
1437330
1437562
1437780
1438014
1438248
1438470
1438698
1438928
1439154
1439386
1439624
1439860
1440090
1440322
1440546
1440772
1441004
1441226
1441456
1441686
1441906
1442130
1442360
1442580
1442798
1443024
1443244
1443466
1443690
1443918
1444138
1444362
1444584
1444812
1445034
1445258
1445484
1445704
1445922
1446136
1446356
1446570
1446782
1447000
1447216
1447428
1447648
1447864
1448084
1448308
1448526
1448754
1448986
1449206
1449442
1449678
1449904
1450134
1450358
1450580
1450802
1451022
1451246
1451474
1451694
1451916
1452146
1452366
1452592
1452818
1453044
1453274
1453504
1453740
1453972
1454198
1454428
1454656
1454882
1455114
1455338
1455572
1455798
1456020
1456244
1456460
1456670
1456878
1457090
1457300
1457506
1457716
1457930
1458144
1458358
1458580
1458804
1459038
1459276
1459508
1459738
1459958
1460184
1460402
1460630
1460856
1461088
1461316
1461536
1461756
1461978
1462200
1462416
1462634
1462848
1463070
1463290
1463514
1463734
1463950
1464164
1464378
1464594
1464804
1465018
1465228
1465436
1465640
1465848
1466066
1466274
1466490
1466708
1466926
1467152
1467368
1467586
1467810
1468026
1468248
1468484
1468704
1468936
1469166
1469394
1469620
1469840
1470062
1470288
1470504
1470724
1470948
1471162
1471378
1471584
1471802
1472014
1472220
1472430
1472642
1472852
1473060
1473280
1473498
1473710
1473920
1474126
1474340
1474550
1474758
1474970
1475182
1475392
1475600
1475816
1476032
1476248
1476464
1476690
1476918
1477146
1477364
1477594
1477818
1478042
1478270
1478494
1478724
1478948
1479176
1479408
1479630
1479854
1480072
1480290
1480508
1480724
1480940
1481154
1481366
1481588
1481812
1482036
1482258
1482476
1482700
1482922
1483154
1483386
1483614
1483842
1484072
1484292
1484514
1484738
1484958
1485176
1485396
1485616
1485838
1486058
1486274
1486494
1486710
1486930
1487146
1487362
1487578
1487798
1488018
1488242
1488466
1488684
1488902
1489124
1489340
1489556
1489778
1489992
1490204
1490412
1490620
1490824
1491032
1491238
1491448
1491654
1491862
1492072
1492284
1492496
1492710
1492924
1493140
1493356
1493568
1493782
1493996
1494202
1494414
1494624
1494838
1495062
1495278
1495500
1495712
1495920
1496138
1496360
1496574
1496788
1497000
1497214
1497424
1497636
1497850
1498062
1498276
1498488
1498702
1498916
1499124
1499340
1499552
1499764
1499974
1500178
1500386
1500592
1500802
1501008
1501216
1501424
1501628
1501832
1502042
1502246
1502450
1502660
1502868
1503072
1503280
1503486
1503690
1503896
1504098
1504300
1504508
1504710
1504914
1505120
1505326
1505520
1505718
1505916
1506120
1506324
1506522
1506724
1506926
1507124
1507328
1507528
1507736
1507948
1508152
1508370
1508592
1508808
1509030
1509248
1509462
1509678
1509882
1510102
1510330
1510540
1510762
1510986
1511206
1511430
1511644
1511864
1512076
1512286
1512502
1512716
1512936
1513146
1513362
1513594
1513814
1514042
1514282
1514510
1514742
1514966
1515186
1515412
1515632
1515850
1516082
1516300
1516520
1516750
1516968
1517194
1517420
1517652
1517878
1518102
1518324
1518548
1518764
1518980
1519194
1519404
1519618
1519824
1520036
1520248
1520450
1520654
1520872
1521086
1521296
1521518
1521730
1521946
1522170
1522386
1522606
1522830
1523044
1523262
1523488
1523704
1523922
1524140
1524350
1524568
1524782
1524996
1525212
1525426
1525638
1525858
1526070
1526280
1526496
1526712
1526922
1527138
1527354
1527568
1527784
1528000
1528210
1528430
1528640
1528850
1529066
1529278
1529486
1529700
1529910
1530116
1530324
1530532
1530742
1530954
1531166
1531372
1531590
1531802
1532012
1532232
1532452
1532672
1532892
1533108
1533326
1533548
1533760
1533978
1534202
1534416
1534634
1534854
1535068
1535278
1535490
1535710
1535918
1536130
1536348
1536556
1536776
1536988
1537212
1537426
1537640
1537864
1538084
1538310
1538532
1538750
1538976
1539196
1539420
1539646
1539864
1540088
1540306
1540528
1540742
1540966
1541180
1541408
1541630
1541848
1542072
1542296
1542524
1542754
1542978
1543208
1543428
1543648
1543868
1544086
1544310
1544528
1544746
1544964
1545178
1545396
1545614
1545830
1546044
1546258
1546472
1546678
1546892
1547114
1547328
1547540
1547762
1547994
1548218
1548446
1548668
1548892
1549114
1549328
1549546
1549776
1549994
1550218
1550448
1550670
1550884
1551102
1551326
1551542
1551762
1551980
1552196
1552414
1552626
1552832
1553046
1553264
1553488
1553702
1553918
1554144
1554368
1554584
1554800
1555020
1555236
1555458
1555678
1555890
1556108
1556338
1556560
1556788
1557016
1557234
1557450
1557666
1557894
1558122
1558344
1558562
1558778
1558992
1559200
1559414
1559628
1559842
1560062
1560276
1560490
1560706
1560914
1561124
1561340
1561556
1561768
1561976
1562186
1562398
1562612
1562822
1563036
1563246
1563460
1563666
1563880
1564096
1564318
1564522
1564732
1564966
1565200
1565422
1565636
1565844
1566052
1566262
1566470
1566676
1566880
1567080
1567280
1567480
1567680
1567880
1568076
1568276
1568472
1568670
1568870
1569068
1569266
1569468
1569668
1569872
1570078
1570280
1570478
1570674
1570878
1571080
1571288
1571492
1571706
1571914
1572120
1572340
1572558
1572772
1572976
1573184
1573390
1573592
1573794
1573994
1574194
1574392
1574592
1574790
1574992
1575186
1575384
1575578
1575776
1575980
1576180
1576378
1576582
1576776
1576972
1577174
1577386
1577590
1577800
1578004
1578212
1578420
1578626
1578832
1579038
1579244
1579450
1579656
1579864
1580064
1580264
1580460
1580660
1580856
1581054
1581252
1581452
1581650
1581850
1582050
1582254
1582460
1582660
1582864
1583066
1583264
1583460
1583656
1583852
1584054
1584254
1584456
1584664
1584866
1585070
1585272
1585474
1585680
1585888
1586096
1586310
1586520
1586728
1586942
1587152
1587362
1587568
1587772
1587978
1588184
1588388
1588594
1588802
1589004
1589204
1589404
1589608
1589814
1590012
1590214
1590414
1590620
1590824
1591024
1591226
1591428
1591626
1591828
1592026
1592228
1592428
1592624
1592824
1593022
1593216
1593414
1593610
1593806
1594004
1594198
1594390
1594582
1594772
1594958
1595142
1595332
1595522
1595720
1595910
1596102
1596298
1596488
1596680
1596870
1597064
1597256
1597448
1597640
1597838
1598038
1598240
1598436
1598638
1598840
1599036
1599238
1599430
1599632
1599836
1600034
1600232
1600434
1600636
1600840
1601044
1601240
1601446
1601648
1601854
1602064
1602270
1602480
1602690
1602898
1603104
1603306
1603516
1603722
1603924
1604134
1604342
1604550
1604756
1604960
1605162
1605370
1605582
1605784
1606000
1606208
1606414
1606626
1606838
1607052
1607270
1607488
1607704
1607922
1608144
1608358
1608578
1608802
1609020
1609244
1609472
1609692
1609914
1610136
1610352
1610570
1610790
1611006
1611224
1611438
1611648
1611878
1612110
1612332
1612558
1612776
1612996
1613218
1613432
1613648
1613860
1614066
1614280
1614488
1614692
1614896
1615104
1615312
1615520
1615734
1615950
1616162
1616380
1616600
1616818
1617036
1617248
1617464
1617682
1617898
1618116
1618332
1618548
1618764
1618984
1619212
1619430
1619644
1619856
1620070
1620284
1620498
1620718
1620934
1621148
1621368
1621586
1621806
1622028
1622252
1622472
1622690
1622896
1623116
1623334
1623540
1623754
1623970
1624182
1624400
1624616
1624830
1625044
1625258
1625474
1625698
1625920
1626146
1626372
1626610
1626840
1627078
1627310
1627540
1627772
1628006
1628238
1628464
1628686
1628910
1629132
1629352
1629568
1629786
1630006
1630220
1630436
1630656
1630870
1631080
1631298
1631512
1631726
1631940
1632156
1632368
1632582
1632796
1633012
1633222
1633438
1633662
1633884
1634118
1634348
1634576
1634804
1635040
1635276
1635506
1635734
1635956
1636176
1636396
1636610
1636824
1637034
1637240
1637452
1637654
1637858
1638066
1638266
1638472
1638678
1638882
1639080
1639274
1639470
1639668
1639864
1640056
1640252
1640446
1640642
1640844
1641044
1641246
1641450
1641650
1641854
1642064
1642276
1642482
1642682
1642894
1643098
1643304
1643508
1643712
1643916
1644118
1644314
1644510
1644702
1644898
1645088
1645280
1645476
1645668
1645864
1646056
1646250
1646448
1646644
1646836
1647032
1647224
1647416
1647610
1647806
1648002
1648200
1648394
1648592
1648790
1648984
1649178
1649376
1649572
1649768
1649966
1650162
1650360
1650560
1650764
1650966
1651168
1651366
1651562
1651758
1651960
1652156
1652358
1652562
1652766
1652968
1653170
1653372
1653580
1653784
1653988
1654194
1654400
1654602
1654806
1655010
1655218
1655428
1655644
1655854
1656074
1656296
1656508
1656740
1656988
1657220
1657446
1657668
1657882
1658100
1658314
1658530
1658740
1658950
1659158
1659368
1659578
1659792
1660018
1660246
1660476
1660698
1660918
1661138
1661352
1661568
1661788
1662002
1662218
1662428
1662642
1662844
1663046
1663250
1663462
1663670
1663876
1664086
1664300
1664506
1664714
1664928
1665136
1665352
1665578
1665790
1666020
1666254
1666486
1666712
1666938
1667156
1667382
1667606
1667822
1668038
1668248
1668462
1668666
1668870
1669076
1669278
1669482
1669678
1669874
1670076
1670278
1670480
1670682
1670888
1671100
1671308
1671516
1671726
1671938
1672148
1672358
1672574
1672786
1673000
1673216
1673424
1673626
1673834
1674046
1674254
1674460
1674666
1674876
1675080
1675288
1675498
1675708
1675920
1676128
1676330
1676538
1676742
1676942
1677146
1677348
1677550
1677758
1677960
1678168
1678376
1678580
1678784
1678998
1679206
1679414
1679622
1679832
1680050
1680266
1680476
1680692
1680910
1681122
1681338
1681556
1681770
1681986
1682210
1682424
1682644
1682868
1683090
1683310
1683524
1683740
1683956
1684164
1684376
1684582
1684788
1684994
1685202
1685406
1685610
1685816
1686020
1686222
1686424
1686622
1686830
1687032
1687236
1687440
1687642
1687846
1688054
1688254
1688460
1688668
1688874
1689076
1689280
1689484
1689690
1689902
1690112
1690332
1690574
1690804
1691034
1691270
1691498
1691722
1691938
1692154
1692376
1692592
1692808
1693032
1693240
1693458
1693672
1693886
1694100
1694308
1694522
1694744
1694968
1695181
1695412
1695630
1695856
1696082
1696300
1696508
1696718
1696932
1697142
1697348
1697550
1697754
1697952
1698148
1698352
1698556
1698760
1698968
1699172
1699388
1699602
1699822
1700046
1700270
1700490
1700714
1700936
1701158
1701378
1701596
1701818
1702034
1702252
1702466
1702676
1702886
1703098
1703306
1703528
1703742
1703958
1704178
1704392
1704606
1704816
1705028
1705244
1705456
1705676
1705894
1706106
1706320
1706530
1706756
1706970
1707190
1707406
1707616
1707820
1708016
1708214
1708410
1708612
1708822
1709030
1709242
1709450
1709646
1709858
1710072
1710292
1710498
1710708
1710916
1711130
1711348
1711558
1711776
1711984
1712188
1712392
1712600
1712806
1713014
1713224
1713430
1713638
1713846
1714050
1714254
1714452
1714652
1714848
1715050
1715244
1715442
1715640
1715840
1716042
1716244
1716448
1716654
1716860
1717062
1717268
1717472
1717672
1717874
1718072
1718280
1718480
1718684
1718890
1719098
1719302
1719506
1719710
1719922
1720128
1720340
1720554
1720766
1720976
1721182
1721388
1721598
1721806
1722012
1722222
1722434
1722642
1722850
1723060
1723274
1723482
1723692
1723906
1724118
1724328
1724532
1724738
1724942
1725144
1725350
1725560
1725764
1725968
1726174
1726384
1726584
1726786
1726992
1727198
1727400
1727600
1727802
1728006
1728206
1728406
1728602
1728808
1729014
1729212
1729418
1729620
1729824
1730030
1730226
1730436
1730640
1730848
1731048
1731248
1731450
1731648
1731846
1732050
1732254
1732452
1732646
1732844
1733046
1733250
1733446
1733644
1733846
1734046
1734244
1734440
1734646
1734840
1735034
1735232
1735430
1735626
1735822
1736014
1736212
1736410
1736608
1736808
1737008
1737204
1737404
1737598
1737798
1737998
1738192
1738386
1738582
1738780
1738978
1739178
1739374
1739574
1739772
1739968
1740166
1740370
1740572
1740772
1740972
1741174
1741374
1741576
1741774
1741978
1742180
1742382
1742586
1742792
1742998
1743206
1743412
1743620
1743828
1744032
1744236
1744442
1744650
1744858
1745068
1745276
1745484
1745692
1745896
1746106
1746312
1746516
1746720
1746924
1747124
1747320
1747514
1747708
1747902
1748096
1748290
1748488
1748686
1748882
1749076
1749272
1749470
1749666
1749866
1750062
1750274
1750482
1750684
1750884
1751088
1751288
1751494
1751700
1751904
1752110
1752312
1752516
1752712
1752904
1753100
1753292
1753492
1753684
1753878
1754072
1754262
1754452
1754642
1754832
1755028
1755224
1755418
1755608
1755800
1755994
1756188
1756382
1756578
1756776
1756972
1757168
1757364
1757560
1757754
1757950
1758144
1758348
1758546
1758744
1758944
1759144
1759342
1759536
1759732
1759928
1760126
1760320
1760514
1760708
1760904
1761098
1761292
1761484
1761682
1761876
1762070
1762266
1762458
1762648
1762838
1763028
1763220
1763410
1763602
1763794
1763980
1764176
1764368
1764558
1764754
1764952
1765146
1765338
1765534
1765732
1765928
1766128
1766324
1766526
1766734
1766938
1767144
1767354
1767558
1767766
1767978
1768194
1768400
1768606
1768818
1769028
1769240
1769450
1769660
1769870
1770076
1770280
1770478
1770680
1770878
1771078
1771278
1771478
1771678
1771870
1772070
1772268
1772460
1772664
1772868
1773070
1773264
1773458
1773652
1773862
1774076
1774274
1774474
1774678
1774876
1775070
1775266
1775460
1775658
1775848
1776042
1776236
1776438
1776634
1776830
1777028
1777232
1777430
1777632
1777838
1778056
1778260
1778472
1778676
1778884
1779086
1779286
1779482
1779680
1779876
1780078
1780274
1780480
1780682
1780882
1781074
1781274
1781478
1781680
1781882
1782080
1782280
1782480
1782676
1782886
1783092
1783298
1783506
1783708
1783920
1784124
1784334
1784542
1784744
1784950
1785154
1785356
1785558
1785758
1785958
1786158
1786362
1786564
1786770
1786976
1787174
1787374
1787572
1787770
1787974
1788176
1788378
1788580
1788784
1788986
1789190
1789394
1789602
1789814
1790022
1790232
1790448
1790660
1790870
1791078
1791294
1791498
1791704
1791914
1792122
1792334
1792556
1792782
1792996
1793210
1793416
1793624
1793834
1794036
1794240
1794446
1794650
1794852
1795054
1795260
1795458
1795656
1795856
1796058
1796260
1796460
1796660
1796862
1797066
1797266
1797468
1797678
1797884
1798094
1798306
1798516
1798726
1798936
1799146
1799354
1799562
1799768
1799964
