peaks
63
248
422
600
780
956
1134
1310
1506
1690
1870
2050
2228
2406
2582
2758
2932
3106
3282
3458
3636
3812
3986
4162
4342
4520
4704
4892
5074
5258
5444
5624
5806
5986
6164
6342
6522
6706
6884
7062
7244
7422
7600
7782
7966
8144
8322
8498
8674
8848
9024
9204
9388
9570
9756
9938
10128
10312
10494
10678
10866
11052
11234
11418
11598
11774
11952
12138
12324
12514
12704
12892
13078
13266
13462
13652
13844
14032
14222
14404
14588
14768
14950
15127
15309
15492
15672
15860
16050
16250
16434
16636
16822
16998
17178
17360
17546
17732
17926
18114
18306
18502
18696
18888
19086
19280
19466
19650
19844
20036
20220
20402
20600
20788
20974
21164
21362
21556
21748
21942
22132
22316
22500
22684
22864
23040
23222
23408
23590
23778
23974
24166
24360
24566
24764
24954
25148
25336
25518
25704
25896
26086
26274
26468
26674
26872
27064
27256
27452
27640
27820
28002
28196
28386
28580
28780
29000
29202
29390
29576
29760
29938
30116
30310
30520
30720
30930
31130
31330
31534
31728
31924
32120
32308
32496
32686
32870
33056
33244
33432
33626
33820
34008
34198
34398
34612
34854
35072
35270
35464
35654
35840
36022
36214
36406
36598
36792
36990
37186
37380
37572
37762
37944
38126
38316
38524
38726
38934
39144
39342
39534
39736
39936
40130
40330
40534
40728
40916
41106
41302
41496
41696
41908
42110
42312
42516
42718
42914
43112
43320
43520
43712
43908
44108
44308
44508
44710
44906
45108
45328
45532
45728
45938
46132
46326
46522
46708
46894
47094
47294
47498
47702
47900
48090
48286
48488
48684
48892
49102
49310
49506
49702
49896
50082
50276
50484
50694
50898
51118
51346
51562
51768
51976
52176
52368
52562
52768
52974
53188
53386
53588
53784
53976
54176
54386
54588
54788
54990
55190
55384
55576
55758
55926
56090
56260
56434
56616
56802
57012
57210
57406
57608
57804
58012
58246
58450
58656
58858
59076
59292
59494
59692
59894
60098
60298
60498
60698
60892
61090
61290
61486
61674
61868
62066
62258
62450
62654
62870
63070
63256
63446
63644
63840
64026
64220
64422
64614
64800
64992
65198
65394
65582
65772
65976
66172
66356
66536
66722
66912
67098
67284
67494
67698
67886
68068
68258
68456
68646
68848
69046
69232
69418
69612
69808
69998
70184
70382
70592
70832
71024
71204
71386
71572
71758
71976
72206
72412
72622
72834
73036
73244
73462
73670
73860
74048
74238
74434
74630
74826
75044
75260
75462
75656
75854
76048
76238
76440
76646
76844
77058
77288
77562
77822
78056
78266
78470
78662
78854
79050
79246
79434
79630
79828
80020
80212
80408
80594
80780
80972
81160
81354
81566
81762
81954
82144
82332
82520
82726
82940
83144
83354
83580
83782
83974
84168
84368
84564
84756
84956
85164
85368
85556
85744
85936
86126
86322
86526
86752
86954
87150
87346
87544
87736
87934
88140
88348
88544
88736
88934
89146
89346
89540
89746
89948
90156
90364
90580
90784
90980
91174
91368
91560
91746
91938
92148
92364
92562
92774
92984
93178
93366
93560
93750
93934
94132
94336
94534
94734
94942
95150
95346
95540
95738
95938
96144
96346
96552
96758
96952
97138
97326
97522
97716
97910
98116
98332
98534
98728
98926
99132
99356
99568
99790
99996
100188
100380
100572
100772
100970
101188
101406
101610
101802
101994
102190
102380
102582
102794
103002
103202
103402
103608
103806
104000
104194
104406
104610
104798
104992
105186
105384
105582
105846
106094
106306
106510
106712
106908
107098
107300
107506
107706
107916
108144
108358
108574
108792
109006
109204
109404
109606
109810
110008
110204
110410
110624
110828
111026
111232
111434
111628
111818
112018
112226
112424
112618
112816
113024
113220
113410
113602
113802
113996
114184
114374
114564
114750
114936
115126
115330
115540
115746
115936
116194
116442
116652
116862
117080
117298
117500
117704
117910
118110
118314
118530
118734
118938
119144
119342
119538
119734
119930
120138
120348
120550
120760
120974
121176
121380
121590
121800
121998
122194
122394
122586
122776
122976
123178
123380
123574
123780
123992
124192
124380
124568
124762
124954
125142
125340
125556
125766
125966
126176
126404
126618
126822
127022
127222
127418
127606
127798
127996
128198
128406
128628
128838
129042
129256
129470
129672
129876
130082
130276
130466
130656
130848
131040
131228
131410
131608
131816
132016
132204
132396
132604
132806
132998
133200
133410
133608
133798
133990
134184
134374
134558
134752
134970
135184
135376
135574
135776
135984
136178
136372
136572
136772
136968
137168
137368
137566
137756
137954
138152
138342
138528
138722
138928
139136
139332
139536
139758
139978
140182
140384
140588
140788
140982
141176
141378
141584
141784
141976
142174
142380
142576
142764
142960
143166
143370
143564
143758
143952
144136
144318
144504
144702
144894
145082
145272
145474
145668
145868
146080
146288
146492
146710
146926
147134
147344
147552
147752
147946
148140
148344
148538
148728
148918
149114
149306
149490
149676
149868
150056
150240
150424
150612
150796
150980
151166
151388
151600
151802
152014
152236
152444
152654
152870
153076
153278
153490
153702
153902
154112
154332
154536
154726
154908
155086
155272
155478
155730
155940
156144
156344
156536
156732
156932
157126
157324
157526
157728
157940
158144
158360
158572
158772
158978
159186
159388
159582
159774
159964
160160
160360
160554
160744
160944
161150
161348
161538
161714
161892
162068
162244
162432
162626
162812
162998
163214
163432
163656
163866
164072
164256
164442
164624
164810
165000
165192
165374
165554
165734
165920
166086
166256
166426
166600
166760
166924
167082
167232
167384
167530
167676
167820
167960
168104
168252
168402
168548
168694
168848
169026
169212
169410
169616
169812
170024
170222
170422
170624
170814
171006
171194
171378
171568
171746
171920
172090
172260
172436
172610
172772
172932
173088
173240
173388
173536
173684
173830
173976
174126
174274
174422
174568
174716
174872
175034
175206
175380
175550
175720
175888
176052
176216
176382
176542
176702
176858
177012
177166
177316
177464
177610
177752
177892
178032
178168
178302
178442
178572
178708
178848
178990
179130
179268
179406
179540
179676
179812
179950
180088
180226
180364
180502
180644
180788
180930
181072
181212
181354
181496
181636
181776
181916
182056
182194
182334
182474
182622
182774
182924
183078
183234
183388
183540
183694
183846
183998
184146
184290
184432
184572
184712
184852
185000
185158
185326
185498
185680
185856
186024
186190
186362
186540
186716
186902
187086
187274
187460
187646
187826
188000
188172
188338
188508
188680
188856
189030
189206
189394
189590
189784
189972
190162
190346
190532
190712
190890
191066
191242
191418
191596
191770
191952
192122
192296
192464
192634
192796
192958
193116
193276
193440
193604
193772
193936
194096
194252
194408
194566
194724
194886
195054
195222
195390
195560
195730
195898
196064
196232
196400
196570
196740
196904
197066
197222
197380
197538
197702
197870
198038
198216
198390
198568
198746
198924
199102
199276
199450
199624
199796
199968
200144
200320
200498
200680
200856
201034
201206
201378
201550
201726
201904
202082
202262
202440
202624
202800
202978
203156
203336
203516
203690
203860
204030
204200
204372
204546
204714
204884
205054
205222
205392
205562
205740
205916
206086
206256
206422
206586
206750
206914
207086
207256
207426
207598
207772
207944
208116
208286
208456
208626
208794
208962
209128
209296
209466
209638
209810
209982
210154
210322
210494
210666
210836
211008
211178
211346
211510
211676
211840
212006
212174
212342
212510
212674
212836
212998
213164
213332
213510
213694
213872
214052
214236
214412
214588
214762
214934
215104
215274
215442
215606
215772
215938
216104
216270
216436
216604
216770
216934
217100
217268
217436
217604
217766
217926
218086
218242
218392
218542
218692
218846
219006
219166
219330
219498
219662
219830
219996
220164
220334
220502
220666
220832
220996
221160
221322
221484
221650
221816
221982
222148
222316
222488
222660
222834
223004
223174
223342
223512
223678
223842
224006
224174
224346
224518
224692
224872
225052
225242
225434
225620
225804
225986
226164
226340
226508
226678
226848
227018
227192
227366
227538
227710
227884
228062
228234
228406
228576
228742
228902
229058
229212
229374
229542
229716
229898
230082
230264
230440
230610
230784
230964
231146
231330
231516
231700
231878
232054
232228
232400
232572
232742
232908
233072
233236
233402
233574
233746
233914
234084
234254
234424
234598
234770
234938
235104
235268
235430
235600
235772
235940
236106
236272
236440
236608
236776
236946
237116
237284
237452
237622
237788
237956
238124
238292
238460
238628
238800
238974
239146
239316
239486
239652
239818
239984
240152
240320
240488
240656
240828
241002
241176
241346
241516
241686
241856
242026
242196
242364
242528
242688
242846
243006
243166
243332
243502
243676
243856
244036
244216
244392
244564
244736
244912
245076
245240
245402
245558
245716
245876
246044
246214
246376
246540
246704
246872
247050
247228
247408
247586
247762
247938
248110
248280
248452
248632
248818
248998
249178
249356
249534
249710
249884
250058
250238
250416
250592
250766
250938
251112
251284
251460
251642
251824
252004
252178
252350
252520
252686
252852
253020
253188
253356
253522
253690
253858
254026
254194
254366
254538
254712
254888
255062
255236
255406
255574
255742
255908
256076
256240
256408
256572
256740
256908
257074
257240
257406
257574
257744
257914
258086
258258
258428
258596
258764
258932
259102
259274
259448
259620
259794
259970
260140
260314
260486
260660
260832
261002
261174
261354
261530
261706
261878
262048
262218
262392
262566
262738
262914
263092
263266
263444
263618
263792
263968
264148
264328
264500
264674
264846
265014
265180
265346
265516
265688
265860
266034
266212
266388
266564
266736
266908
267076
267244
267410
267580
267750
267918
268088
268256
268424
268592
268756
268920
269078
269238
269400
269566
269720
269880
270038
270192
270348
270502
270660
270820
270986
271156
271330
271504
271678
271858
272046
272230
272406
272580
272752
272924
273092
273260
273428
273592
273758
273924
274090
274256
274422
274590
274756
274922
275088
275258
275422
275590
275760
275928
276094
276262
276430
276596
276762
276926
277092
277258
277424
277590
277752
277916
278078
278238
278398
278556
278716
278872
279030
279190
279348
279504
279662
279822
279980
280140
280300
280460
280620
280776
280934
281088
281240
281392
281548
281700
281856
282012
282168
282324
282476
282626
282776
282926
283080
283234
283392
283552
283712
283874
284038
284200
284362
284522
284682
284840
284996
285154
285310
285466
285620
285774
285928
286080
286228
286378
286528
286678
286830
286984
287140
287294
287450
287602
287748
287896
288046
288194
288348
288502
288660
288816
288974
289128
289282
289436
289588
289740
289892
290044
290196
290350
290502
290656
290810
290962
291112
291264
291418
291570
291722
291874
292022
292172
292318
292464
292612
292764
292918
293074
293232
293386
293536
293684
293832
293978
294122
294266
294410
294554
294702
294852
295004
295152
295302
295450
295598
295746
295892
296038
296186
296330
296476
296622
296772
296922
297074
297224
297376
297524
297674
297814
297952
298092
298230
298370
298508
298650
298802
298954
299110
299260
299408
299556
299704
299854
300000
300142
300284
300422
300562
300700
300842
300986
301136
301292
301450
301606
301766
301922
302078
302232
302386
302538
302692
302848
303000
303150
303304
303456
303610
303760
303912
304066
304220
304376
304528
304674
304816
304964
305114
305272
305438
305602
305762
305924
306082
306236
306384
306532
306676
306820
306966
307116
307272
307434
307600
307768
307934
308102
308270
308428
308584
308740
308890
309042
309194
309344
309490
309636
309782
309930
310080
310232
310382
310530
310676
310820
310960
311102
311248
311402
311560
311726
311890
312054
312216
312376
312530
312684
312842
313000
313160
313330
313504
313692
313888
314082
314282
314472
314654
314832
315002
315170
315340
315514
315690
315862
316028
316198
316370
316542
316714
316890
317062
317234
317402
317566
317730
317894
318058
318222
318388
318556
318726
318896
319070
319244
319422
319602
319768
319932
320090
320248
320412
320574
320730
320882
321030
321174
321318
321460
321608
321758
321914
322068
322226
322388
322556
322730
322904
323082
323258
323432
323610
323782
323954
324124
324294
324466
324638
324814
324986
325156
325330
325502
325676
325850
326024
326194
326364
326538
326712
326886
327062
327236
327408
327578
327748
327920
328090
328258
328430
328598
328770
328952
329132
329310
329486
329662
329832
330006
330176
330344
330512
330682
330852
331018
331190
331360
331528
331696
331864
332036
332208
332380
332554
332728
332906
333082
333260
333438
333616
333790
333962
334132
334300
334468
334638
334808
334976
335146
335318
335490
335668
335844
336020
336190
336362
336532
336700
336870
337040
337214
337388
337564
337736
337906
338074
338240
338408
338578
338748
338920
339092
339264
339436
339606
339776
339946
340122
340298
340474
340648
340820
340990
341158
341322
341480
341632
341784
341936
342088
342240
342388
342538
342694
342852
343016
343186
343358
343530
343708
343882
344056
344230
344404
344580
344764
344942
345126
345310
345488
345664
345834
345998
346160
346322
346492
346666
346836
347000
347166
347328
347492
347652
347810
347976
348152
348328
348500
348662
348822
348980
349138
349292
349444
349594
349742
349890
350034
350182
350328
350472
350624
350782
350952
351130
351304
351482
351658
351840
352022
352198
352374
352550
352718
352894
353064
353246
353434
353624
353820
354014
354202
354376
354550
354720
354888
355062
355240
355418
355608
355794
355976
356160
356344
356528
356702
356876
357048
357214
357388
357566
357742
357928
358116
358304
358492
358676
358858
359034
359210
359382
359560
359740
359918
360100
360278
360458
360634
360808
360984
361160
361334
361508
361682
361856
362024
362190
362360
362528
362696
362866
363034
363202
363366
363534
363698
363866
364036
364206
364382
364558
364738
364916
365092
365266
365440
365612
365788
365958
366128
366302
366470
366640
366808
366976
367148
367316
367486
367658
367830
368004
368184
368362
368546
368726
368900
369076
369246
369420
369596
369768
369942
370118
370292
370470
370644
370820
370998
371172
371346
371518
371688
371860
372032
372204
372380
372554
372728
372902
373080
373256
373432
373602
373770
373934
374098
374264
374428
374594
374760
374926
375098
375276
375454
375636
375816
375992
376166
376336
376504
376672
376838
377006
377178
377346
377518
377688
377858
378026
378196
378364
378536
378708
378884
379064
379246
379424
379604
379790
379972
380156
380334
380512
380688
380862
381038
381210
381384
381562
381744
381926
382108
382290
382470
382652
382832
383008
383180
383350
383518
383690
383866
384040
384216
384394
384576
384758
384936
385114
385296
385472
385646
385818
385988
386156
386324
386494
386662
386834
387010
387186
387362
387546
387732
387922
388116
388300
388478
388654
388828
389008
389186
389364
389542
389724
389908
390104
390294
390476
390656
390836
391012
391192
391368
391542
391720
391896
392074
392250
392428
392606
392788
392972
393158
393340
393516
393692
393864
394034
394208
394390
394578
394770
394956
395138
395324
395508
395688
395868
396044
396222
396398
396572
396736
396894
397054
397220
397388
397572
397754
397934
398112
398294
398470
398644
398818
398992
399172
399350
399522
399692
399860
400030
400198
400366
400532
400700
400880
401060
401234
401400
401568
401734
401904
402072
402238
402406
402570
402736
402912
403092
403266
403432
403594
403756
403918
404080
404236
404398
404568
404744
404924
405110
405290
405466
405644
405820
406006
406194
406380
406566
406750
406938
407126
407308
407482
407654
407822
407996
408170
408346
408520
408694
408866
409042
409220
409394
409572
409746
409926
410098
410270
410442
410618
410790
410966
411144
411326
411504
411686
411866
412046
412226
412404
412586
412758
412930
413102
413278
413454
413630
413806
413984
414160
414334
414506
414682
414858
415034
415202
415370
415536
415700
415868
416036
416206
416384
416560
416736
416914
417090
417262
417436
417608
417780
417950
418122
418292
418464
418634
418806
418982
419156
419330
419504
419674
419848
420018
420188
420360
420528
420700
420870
421042
421214
421392
421568
421744
421924
422102
422274
422448
422616
422786
422954
423124
423290
423460
423630
423800
423972
424142
424312
424478
424646
424816
424986
425156
425330
425504
425672
425844
426014
426186
426358
426530
426702
426872
427040
427206
427374
427544
427714
427886
428056
428228
428398
428566
428736
428906
429074
429246
429422
429598
429776
429950
430122
430294
430466
430636
430804
430974
431142
431312
431482
431652
431822
431990
432156
432326
432492
432660
432824
432988
433152
433316
433482
433650
433822
433990
434164
434332
434500
434670
434840
435006
435174
435344
435516
435694
435872
436050
436232
436410
436582
436756
436928
437098
437268
437434
437602
437770
437942
438116
438294
438476
438654
438834
439018
439198
439380
439560
439744
439928
440108
440288
440468
440644
440818
440996
441174
441352
441532
441710
441890
442074
442254
442436
442618
442796
442978
443164
443352
443542
443726
443908
444096
444278
444464
444646
444822
444998
445176
445358
445542
445726
445904
446088
446268
446444
446614
446784
446952
447122
447294
447468
447644
447822
448000
448180
448360
448536
448712
448888
449060
449234
449408
449580
449754
449926
450096
450266
450434
450604
450776
450950
451126
451302
451476
451654
451832
452006
452184
452358
452532
452708
452884
453060
453238
453424
453600
453780
453958
454136
454314
454490
454664
454838
455010
455182
455354
455524
455694
455864
456034
456200
456366
456530
456698
456872
457046
457224
457404
457584
457766
457948
458128
458306
458484
458666
458848
459024
459202
459376
459552
459728
459904
460078
460256
460432
460606
460780
460952
461122
461294
461464
461638
461814
461990
462166
462344
462522
462698
462874
463050
463222
463394
463564
463734
463902
464070
464240
464412
464582
464760
464936
465116
465298
465478
465654
465834
466010
466188
466362
466534
466706
466876
467046
467220
467394
467570
467748
467926
468104
468282
468458
468634
468810
468984
469156
469330
469504
469676
469852
470028
470202
470376
470546
470716
470886
471060
471240
471426
471620
471812
472000
472184
472362
472540
472718
472892
473066
473240
473416
473590
473768
473942
474120
474298
474472
474648
474822
474996
475170
475346
475524
475696
475866
476034
476204
476370
476536
476702
476870
477046
477218
477388
477558
477726
477894
478064
478236
478406
478576
478744
478912
479082
479250
479418
479588
479754
479918
480080
480248
480418
480590
480756
480922
481082
481240
481402
481562
481726
481892
482060
482234
482414
482592
482772
482950
483132
483306
483476
483642
483814
483982
484150
484318
484484
484650
484816
484978
485142
485310
485488
485666
485842
486008
486166
486324
486484
486652
486822
486988
487148
487316
487484
487658
487846
488038
488230
488412
488594
488768
488938
489110
489280
489450
489616
489784
489956
490130
490300
490470
490628
490790
490956
491124
491296
491474
491648
491822
491992
492164
492340
492518
492692
492864
493034
493202
493368
493538
493708
493886
494060
494232
494406
494588
494774
494952
495132
495310
495482
495656
495830
496008
496180
496356
496530
496700
496870
497040
497214
497388
497558
497734
497908
498084
498260
498442
498626
498804
498978
499150
499320
499490
499660
499830
500000
500166
500332
500494
500662
500828
501000
501174
501350
501536
501726
501911
502094
502262
502430
502594
502754
502918
503080
503242
503404
503562
503718
503874
504026
504178
504328
504476
504626
504780
504936
505092
505254
505412
505572
505738
505906
506076
506242
506404
506564
506722
506882
507042
507206
507372
507544
507724
507894
508062
508228
508390
508552
508714
508882
509056
509228
509398
509566
509732
509898
510064
510230
510394
510560
510724
510884
511046
511210
511374
511540
511710
511882
512054
512226
512404
512578
512754
512926
513098
513266
513432
513596
513760
513928
514100
514270
514438
514610
514784
514962
515134
515302
515472
515642
515814
515986
516156
516326
516496
516668
516840
517016
517188
517354
517518
517686
517856
518026
518194
518360
518526
518690
518858
519026
519196
519372
519552
519734
519916
520096
520272
520450
520626
520804
520984
521164
521338
521508
521680
521844
522008
522170
522336
522500
522668
522838
523014
523188
523360
523532
523698
523856
524010
524162
524312
524460
524608
524770
524944
525138
525342
525546
525748
525948
526140
526324
526502
526676
526848
527020
527194
527366
527538
527712
527888
528062
528240
528416
528590
528764
528942
529122
529302
529482
529664
529840
530018
530194
530366
530540
530712
530884
531054
531224
531398
531570
531742
531910
532080
532250
532418
532586
532754
532920
533088
533262
533436
533610
533788
533960
534134
534308
534482
534656
534828
534998
535162
535328
535498
535668
535840
536012
536180
536346
536510
536674
536836
537000
537166
537338
537512
537686
537866
538050
538236
538414
538586
538752
538914
539076
539240
539406
539572
539740
539908
540076
540246
540416
540584
540754
540922
541092
541260
541428
541596
541760
541922
542086
542250
542414
542576
542740
542906
543072
543238
543408
543576
543744
543910
544080
544244
544410
544578
544744
544910
545078
545248
545414
545584
545756
545928
546102
546276
546446
546616
546784
546954
547122
547290
547458
547626
547796
547968
548140
548312
548480
548650
548818
548984
549150
549316
549482
549648
549814
549982
550148
550314
550480
550646
550814
550984
551150
551316
551482
551650
551816
551986
552160
552332
552502
552672
552840
553004
553170
553336
553508
553694
553880
554062
554248
554424
554594
554762
554932
555102
555294
555478
555658
555834
556008
556182
556354
556530
556708
556884
557060
557230
557394
557554
557714
557868
558020
558172
558328
558488
558648
558810
558976
559142
559308
559478
559652
559822
559992
560160
560326
560488
560648
560812
560978
561148
561324
561504
561684
561874
562056
562246
562436
562620
562800
562976
563148
563326
563502
563680
563856
564034
564212
564388
564560
564732
564902
565070
565238
565408
565576
565748
565922
566092
566266
566438
566606
566778
566946
567118
567306
567488
567664
567838
568010
568178
568346
568516
568686
568858
569036
569218
569398
569576
569750
569918
570086
570250
570414
570588
570768
570942
571114
571286
571456
571626
571796
571968
572138
572308
572480
572648
572818
572988
573154
573322
573492
573660
573830
574000
574168
574336
574506
574676
574848
575020
575190
575362
575536
575708
575880
576054
576232
576410
576590
576762
576930
577094
577260
577420
577584
577746
577908
578072
578240
578410
578580
578752
578920
579090
579260
579430
579596
579764
579932
580098
580260
580420
580578
580738
580896
581056
581214
581372
581534
581694
581856
582022
582186
582344
582502
582660
582818
582974
583132
583290
583450
583610
583774
583938
584106
584272
584440
584610
584778
584948
585118
585286
585454
585628
585808
585990
586168
586342
586508
586672
586836
587002
587170
587332
587496
587662
587826
587992
588160
588324
588486
588650
588816
588980
589146
589316
589490
589662
589836
590012
590182
590352
590520
590689
590858
591022
591180
591348
591514
591678
591846
592012
592176
592342
592508
592678
592846
593010
593170
593330
593492
593654
593820
593988
594156
594320
594488
594652
594820
594992
595164
595340
595512
595682
595850
596018
596186
596350
596520
596692
596866
597040
597214
597386
597560
597728
597896
598064
598234
598406
598574
598744
598912
599082
599250
599416
599582
599748
599912
600078
600246
600410
600576
600740
600906
601072
601240
601408
601576
601748
601916
602084
602252
602418
602578
602740
602914
603086
603254
603418
603576
603730
603886
604048
604220
604400
604588
604774
604954
605126
605298
605468
605640
605808
605976
606142
606314
606490
606668
606848
607022
607198
607370
607540
607710
607882
608052
608226
608400
608578
608758
608936
609114
609288
609462
609634
609804
609976
610146
610316
610486
610654
610826
610994
611164
611334
611504
611674
611842
612010
612178
612348
612516
612682
612850
613018
613184
613344
613504
613666
613830
613994
614160
614326
614492
614656
614826
614992
615154
615320
615484
615648
615816
615984
616152
616322
616494
616662
616832
616998
617164
617328
617494
617658
617820
617986
618150
618316
618482
618652
618824
619000
619174
619346
619518
619688
619858
620030
620198
620366
620536
620702
620866
621032
621200
621370
621544
621716
621886
622058
622226
622394
622564
622734
622904
623076
623246
623414
623588
623766
623942
624116
624288
624464
624664
624848
625024
625194
625366
625536
625708
625882
626058
626236
626412
626588
626760
626932
627104
627276
627446
627618
627788
627954
628118
628284
628452
628616
628780
628944
629110
629276
629440
629604
629772
629942
630106
630266
630426
630600
630758
630918
631078
631242
631410
631578
631746
631918
632090
632262
632436
632608
632786
632958
633128
633294
633460
633624
633790
633956
634126
634294
634464
634634
634804
634974
635146
635312
635474
635632
635782
635930
636076
636218
636364
636508
636650
636792
636936
637084
637232
637382
637536
637694
637860
638034
638206
638378
638542
638704
638868
639032
639196
639362
639538
639716
639894
640078
640258
640432
640606
640778
640946
641120
641294
641468
641646
641824
642000
642178
642352
642520
642688
642854
643024
643196
643380
643562
643760
643948
644128
644304
644486
644666
644846
645026
645202
645372
645544
645712
645882
646052
646226
646402
646578
646752
646926
647104
647284
647462
647638
647812
647982
648152
648322
648492
648662
648836
649008
649184
649360
649536
649714
649894
650070
650248
650428
650602
650776
650944
651114
651288
651460
651634
651810
651984
652158
652332
652504
652676
652848
653018
653188
653360
653532
653706
653890
654074
654258
654442
654622
654802
654980
655154
655330
655504
655676
655852
656026
656198
656372
656548
656720
656894
657068
657242
657422
657600
657776
657946
658112
658272
658436
658610
658786
658966
659140
659314
659482
659646
659806
659968
660134
660306
660486
660666
660850
661032
661212
661388
661554
661720
661882
662046
662208
662376
662544
662712
662884
663060
663234
663406
663580
663752
663924
664096
664270
664442
664614
664786
664960
665132
665304
665474
665644
665814
665982
666146
666308
666472
666634
666798
666962
667128
667294
667458
667624
667790
667956
668124
668288
668452
668618
668786
668956
669130
669298
669466
669632
669798
669962
670126
670288
670448
670612
670772
670936
671100
671264
671434
671604
671774
671942
672110
672276
672442
672604
672768
672932
673096
673254
673412
673566
673722
673886
674054
674226
674398
674572
674746
674914
675082
675248
675412
675574
675738
675902
676068
676238
676410
676580
676750
676922
677094
677264
677430
677594
677762
677930
678098
678270
678444
678616
678792
678972
679150
679326
679498
679670
679840
680006
680174
680344
680514
680686
680862
681032
681202
681368
681532
681694
681856
682018
682180
682338
682494
682650
682804
682958
683114
683268
683424
683586
683754
683922
684092
684268
684444
684616
684784
684948
685106
685266
685424
685584
685746
685912
686080
686248
686418
686590
686762
686936
687108
687282
687452
687620
687788
687956
688122
688288
688458
688628
688796
688964
689128
689294
689456
689620
689784
689948
690116
690286
690460
690632
690800
690966
691126
691288
691452
691612
691772
691928
692086
692256
692428
692600
692772
692942
693112
693278
693440
693598
693748
693896
694044
694188
694342
694510
694686
694866
695054
695234
695410
695578
695746
695912
696074
696236
696400
696566
696730
696894
697058
697236
697414
697584
697748
697910
698070
698232
698398
698568
698736
698908
699086
699284
699478
699662
699842
700018
700194
700372
700544
700722
700904
701090
701272
701446
701616
701784
701948
702112
702278
702446
702610
702772
702930
703088
703244
703404
703566
703734
703908
704082
704254
704428
704606
704778
704948
705120
705298
705474
705648
705816
705984
706148
706312
706478
706648
706820
707000
707182
707358
707536
707710
707886
708058
708232
708408
708582
708760
708934
709108
709286
709464
709646
709830
710012
710200
710382
710562
710740
710914
711086
711262
711436
711614
711794
711974
712154
712334
712508
712686
712862
713036
713210
713390
713564
713738
713912
714082
714252
714418
714582
714746
714908
715070
715234
715400
715568
715738
715910
716078
716246
716414
716586
716756
716926
717098
717270
717444
717616
717788
717964
718142
718318
718498
718674
718850
719026
719202
719378
719554
719728
719902
720076
720250
720424
720598
720768
720938
721118
721280
721450
721620
721786
721954
722120
722286
722454
722620
722786
722954
723122
723290
723460
723630
723798
723968
724138
724308
724482
724656
724828
725002
725176
725352
725526
725702
725876
726050
726224
726400
726572
726742
726910
727080
727246
727414
727582
727748
727916
728086
728256
728428
728600
728770
728940
729108
729276
729446
729616
729786
729954
730122
730290
730454
730620
730786
730952
731118
731284
731450
731614
731780
731944
732106
732270
732434
732596
732760
732926
733092
733258
733426
733594
733766
733934
734102
734270
734436
734602
734768
734932
735098
735260
735424
735588
735750
735914
736080
736246
736414
736588
736758
736928
737106
737278
737444
737610
737766
737926
738082
738242
738406
738574
738740
738910
739084
739260
739434
739606
739776
739950
740124
740298
740470
740642
740814
740986
741154
741320
741484
741650
741818
741980
742146
742314
742486
742658
742828
742994
743160
743326
743492
743658
743826
744002
744180
744356
744532
744710
744886
745058
745230
745402
745572
745746
745916
746086
746262
746436
746610
746786
746960
747132
747306
747480
747654
747828
748000
748170
748342
748510
748678
748852
749022
749192
749360
749534
749706
749874
750042
750208
750374
750542
750710
750884
751054
751230
751404
751576
751752
751926
752100
752270
752436
752600
752764
752926
753088
753254
753420
753586
753752
753920
754088
754262
754432
754602
754772
754940
755108
755276
755446
755614
755782
755950
756114
756282
756448
756614
756780
756944
757114
757282
757452
757620
757788
757958
758124
758290
758448
758604
758756
758910
759066
759224
759388
759558
759726
759896
760066
760234
760398
760566
760736
760904
761076
761250
761422
761600
761778
761950
762122
762292
762460
762626
762792
762958
763128
763300
763472
763646
763820
763992
764166
764338
764510
764686
764864
765040
765214
765384
765550
765714
765888
766066
766236
766406
766572
766732
766886
767038
767186
767328
767470
767606
767742
767878
768012
768144
768280
768420
768562
768710
768854
768998
769146
769296
769446
769596
769742
769888
770032
770174
770314
770452
770590
770732
770884
771050
771236
771420
771600
771788
771976
772162
772344
772520
772688
772850
773008
773164
773322
773484
773648
773816
773978
774138
774296
774450
774604
774758
774906
775052
775198
775344
775498
775660
775826
775990
776148
776304
776458
776612
776766
776916
777064
777210
777352
777492
777630
777770
777916
778068
778228
778390
778548
778708
778870
779032
779184
779332
779482
779626
779768
779906
780045
780186
780316
780454
780596
780746
780902
781062
781228
781438
781642
781836
782016
782192
782366
782542
782720
782904
783086
783258
783432
783600
783768
783934
784096
784256
784410
784564
784720
784880
785040
785204
785364
785522
785676
785830
785992
786142
786296
786450
786602
786754
786910
787060
787210
787362
787514
787670
787828
787984
788148
788310
788472
788630
788790
788950
789108
789272
789432
789594
789758
789920
790080
790244
790404
790562
790722
790882
791042
791204
791370
791538
791702
791868
792036
792200
792360
792518
792676
792830
792982
793138
793290
793436
793582
793730
793874
794018
794162
794304
794444
794584
794724
794864
795004
795144
795284
795422
795562
795698
795834
795968
796100
796230
796360
796490
796616
796744
796872
797004
797134
797266
797398
797534
797670
797816
797956
798096
798236
798380
798526
798670
798812
798954
799096
799236
799378
799518
799658
799796
799932
800070
800206
800342
800476
800612
800748
800892
801034
801178
801320
801464
801608
801756
801901
802054
802206
802356
802502
802646
802784
802920
803056
803194
803336
803480
803622
803762
803902
804044
804188
804332
804470
804608
804748
804894
805042
805186
805334
805484
805636
805784
805932
806077
806226
806372
806518
806660
806804
806948
807090
807232
807374
807514
807654
807796
807940
808086
808238
808390
808542
808694
808844
808996
809146
809290
809434
809574
809712
809848
809984
810118
810254
810392
810528
810662
810802
810948
811098
811246
811398
811550
811698
811844
811990
812134
812276
812416
812558
812696
812836
812980
813122
813270
813418
813566
813714
813860
814004
814148
814288
814426
814564
814700
814834
814968
815102
815240
815384
815530
815678
815826
815974
816120
816262
816406
816546
816686
816826
816966
817110
817254
817402
817552
817700
817848
817996
818140
818282
818422
818562
818700
818836
818976
819118
819262
819406
819552
819696
819844
819990
820142
820292
820444
820596
820748
820896
821042
821186
821330
821472
821612
821754
821896
822040
822182
822326
822468
822608
822750
822892
823036
823180
823330
823482
823636
823790
823942
824094
824244
824392
824534
824676
824812
824948
825082
825216
825352
825494
825638
825784
825934
826086
826236
826388
826538
826688
826834
826980
827126
827272
827422
827574
827722
827872
828024
828176
828324
828470
828624
828782
828946
829114
829280
829444
829612
829770
829928
830086
830246
830412
830578
830744
830916
831074
831236
831394
831552
831710
831868
832030
832194
832354
832516
832674
832828
832980
833132
833282
833432
833588
833740
833890
834050
834216
834396
834576
834758
834944
835132
835336
835524
835710
835888
836064
836236
836414
836592
836776
836958
837154
837350
837540
837732
837922
838112
838298
838480
838658
838840
839018
839206
839390
839574
839752
839928
840100
840272
840448
840622
840804
840984
841166
841342
841520
841692
841866
842036
842204
842374
842546
842718
842888
843058
843226
843396
843572
843750
843924
844094
844260
844428
844594
844760
844924
845090
845252
845412
845574
845736
845898
846058
846220
846386
846556
846726
846896
847068
847234
847400
847566
847728
847890
848050
848220
848394
848576
848752
848932
849116
849294
849468
849634
849796
849962
850136
850318
850496
850674
850848
851018
851188
851356
851524
851698
851874
852042
852208
852372
852548
852724
852898
853070
853244
853416
853586
853748
853904
854066
854236
854422
854614
854796
854978
855162
855338
855514
855690
855860
856034
856214
856392
856576
856756
856940
857126
857304
857474
857638
857804
857986
858160
858330
858496
858658
858822
858984
859144
859312
859486
859658
859824
859994
860168
860344
860518
860696
860878
861056
861236
861420
861602
861782
861954
862122
862288
862446
862606
862768
862944
863138
863352
863558
863756
863944
864122
864294
864462
864630
864796
864968
865140
865316
865512
865708
865912
866112
866306
866506
866700
866896
867090
867274
867456
867634
867802
867972
868138
868298
868458
868628
868804
868988
869168
869344
869522
869698
869878
870054
870230
870414
870590
870770
870948
871126
871298
871470
871646
871822
872002
872184
872364
872554
872736
872924
873110
873292
873474
873658
873852
874052
874262
874458
874654
874846
875042
875246
875438
875618
875796
875974
876158
876338
876522
876704
876898
877104
877304
877498
877682
877870
878050
878226
878398
878574
878756
878934
879114
879290
879456
879626
879822
880026
880232
880432
880630
880822
881010
881192
881374
881552
881728
881908
882094
882288
882496
882694
882888
883078
883264
883440
883610
883780
883956
884134
884306
884482
884654
884817
884982
885146
885310
885476
885638
885796
885964
886150
886354
886552
886738
886918
887090
887258
887420
887580
887738
887900
888076
888254
888432
888614
888820
889026
889224
889414
889596
889772
889940
890102
890262
890416
890570
890726
890900
891094
891292
891480
891668
891878
892102
892316
892526
892732
892934
893124
893316
893498
893682
893876
894074
894266
894454
894630
894800
894966
895136
895312
895486
895658
895830
896004
896180
896356
896542
896740
896938
897138
897328
897512
897694
897870
898046
898218
898386
898550
898712
898872
899042
899216
899396
899574
899756
899936
900122
900304
900484
900664
900848
901034
901226
901414
901604
901790
901970
902148
902324
902502
902688
902902
903106
903306
903500
903690
903882
904066
904248
904438
904626
904816
905004
905188
905376
905564
905752
905938
906118
906296
906476
906652
906834
907016
907200
907386
907570
907750
907928
908104
908278
908454
908630
908810
908992
909172
909354
909536
909716
909894
910074
910252
910432
910612
910792
910970
911148
911326
911500
911672
911842
912022
912204
912384
912566
912748
912936
913120
913304
913484
913664
913844
914022
914200
914372
914548
914722
914900
915088
915276
915462
915646
915828
916010
916194
916378
916558
916740
916922
917100
917282
917458
917632
917806
917974
918140
918310
918484
918658
918836
919008
919182
919356
919528
919700
919868
920036
920206
920380
920554
920732
920912
921092
921274
921454
921628
921800
921974
922150
922328
922504
922682
922858
923034
923212
923386
923560
923734
923906
924078
924242
924402
924564
924734
924912
925090
925274
925456
925634
925814
925992
926168
926346
926522
926698
926872
927042
927216
927390
927564
927744
927922
928102
928286
928466
928644
928818
928990
929162
929334
929504
929680
929856
930038
930218
930400
930582
930762
930942
931120
931294
931468
931644
931816
931988
932162
932336
932510
932684
932862
933044
933224
933402
933580
933758
933936
934112
934288
934472
934656
934848
935032
935220
935404
935586
935768
935952
936136
936322
936500
936680
936862
937040
937220
937400
937580
937762
937938
938110
938282
938454
938630
938812
939000
939194
939384
939580
939776
939970
940164
940344
940516
940684
940860
941038
941216
941398
941574
941750
941922
942082
942244
942410
942584
942760
942938
943122
943306
943484
943658
943834
944002
944164
944324
944480
944634
944786
944940
945096
945252
945406
945560
945712
945858
946004
946146
946286
946422
946558
946694
946832
946972
947114
947260
947406
947548
947694
947846
948024
948212
948388
948562
948736
948906
949066
949234
949400
949560
949720
949884
950068
950238
950408
950578
950746
950904
951064
951228
951404
951580
951758
951924
952086
952240
952390
952536
952682
952832
952992
953174
953354
953528
953694
953858
954018
954172
954328
954498
954662
954830
954996
955162
955322
955480
955634
955786
955942
956104
956264
956426
956584
956744
956898
957060
957236
957410
957574
957740
957928
958116
958300
958476
958656
958832
959004
959176
959348
959524
959698
959874
960044
960216
960394
960578
960762
960938
961112
961284
961454
961614
961770
961924
962086
962250
962422
962610
962798
962972
963140
963306
963474
963642
963810
963984
964156
964324
964488
964648
964806
964962
965116
965270
965430
965598
965766
965946
966124
966298
966482
966662
966846
967034
967222
967404
967582
967756
967926
968092
968252
968410
968572
968746
968934
969130
969312
969482
969648
969812
969972
970132
970298
970462
970634
970810
970984
971154
971326
971494
971664
971836
972006
972172
972330
972492
972652
972818
972990
973164
973346
973516
973680
973842
974004
974162
974316
974472
974640
974820
975010
975194
975370
975544
975718
975882
976052
976220
976386
976558
976734
976912
977090
977262
977428
977596
977762
977926
978090
978252
978418
978586
978752
978918
979086
979252
979414
979572
979724
979872
980018
980164
980312
980464
980622
980778
980936
981098
981260
981420
981572
981722
981868
982014
982164
982318
982478
982630
982790
982962
983144
983328
983512
983694
983874
984048
984214
984374
984534
984696
984854
985014
985180
985364
985560
985748
985920
986090
986254
986414
986566
986716
986870
987026
987192
987366
987534
987706
987880
988056
988226
988388
988548
988708
988870
989036
989202
989368
989536
989698
989856
990016
990178
990342
990500
990660
990822
990986
991154
991318
991482
991644
991804
991962
992114
992264
992412
992556
992708
992870
993046
993226
993406
993586
993762
993932
994096
994262
994424
994584
994752
994908
995076
995236
995400
995568
995732
995898
996060
996216
996370
996526
996680
996834
996990
997150
997312
997476
997634
997788
997940
998092
998248
998406
998568
998732
998888
999044
999200
999354
999508
999658
999808
999956
1000098
1000244
1000394
1000552
1000718
1000878
1001038
1001192
1001348
1001500
1001654
1001804
1001954
1002102
1002252
1002402
1002558
1002718
1002876
1003034
1003194
1003352
1003510
1003662
1003812
1003960
1004106
1004256
1004408
1004560
1004718
1004880
1005038
1005196
1005354
1005506
1005658
1005808
1005956
1006102
1006248
1006394
1006542
1006692
1006842
1006992
1007146
1007298
1007448
1007598
1007744
1007888
1008034
1008180
1008328
1008476
1008620
1008764
1008912
1009064
1009226
1009384
1009540
1009698
1009852
1010010
1010174
1010338
1010498
1010658
1010826
1010998
1011170
1011344
1011512
1011680
1011846
1012008
1012168
1012322
1012476
1012628
1012784
1012944
1013104
1013264
1013424
1013586
1013752
1013914
1014074
1014232
1014390
1014544
1014696
1014852
1015014
1015170
1015328
1015488
1015648
1015806
1015968
1016128
1016288
1016448
1016608
1016770
1016940
1017112
1017280
1017448
1017610
1017776
1017938
1018098
1018258
1018418
1018580
1018740
1018902
1019058
1019212
1019362
1019514
1019664
1019818
1019972
1020126
1020274
1020424
1020572
1020718
1020870
1021022
1021180
1021340
1021504
1021668
1021832
1022002
1022164
1022326
1022482
1022636
1022786
1022938
1023088
1023242
1023404
1023570
1023742
1023914
1024084
1024252
1024424
1024600
1024782
1024962
1025136
1025308
1025474
1025634
1025790
1025944
1026098
1026256
1026418
1026578
1026738
1026902
1027074
1027248
1027414
1027574
1027734
1027892
1028048
1028208
1028370
1028534
1028694
1028850
1029006
1029158
1029306
1029456
1029602
1029748
1029898
1030054
1030210
1030366
1030528
1030688
1030850
1031012
1031172
1031330
1031486
1031638
1031788
1031942
1032104
1032270
1032432
1032596
1032756
1032916
1033068
1033222
1033376
1033532
1033688
1033844
1033996
1034144
1034294
1034452
1034622
1034798
1034974
1035146
1035314
1035472
1035630
1035784
1035934
1036086
1036236
1036390
1036544
1036702
1036862
1037026
1037190
1037354
1037522
1037698
1037864
1038032
1038204
1038378
1038554
1038724
1038888
1039048
1039202
1039354
1039502
1039648
1039792
1039932
1040070
1040206
1040342
1040474
1040606
1040736
1040864
1040992
1041120
1041248
1041376
1041504
1041632
1041760
1041890
1042020
1042148
1042278
1042410
1042544
1042676
1042812
1042944
1043082
1043220
1043358
1043496
1043630
1043766
1043906
1044044
1044184
1044328
1044468
1044606
1044744
1044880
1045014
1045146
1045278
1045412
1045542
1045678
1045814
1045952
1046088
1046222
1046356
1046492
1046626
1046766
1046908
1047052
1047194
1047336
1047490
1047638
1047788
1047944
1048098
1048258
1048416
1048582
1048750
1048918
1049088
1049260
1049430
1049590
1049750
1049904
1050058
1050212
1050374
1050540
1050702
1050864
1051032
1051204
1051382
1051560
1051730
1051894
1052052
1052204
1052352
1052498
1052642
1052792
1052948
1053120
1053310
1053502
1053688
1053866
1054034
1054200
1054368
1054534
1054700
1054872
1055046
1055220
1055396
1055562
1055736
1055912
1056086
1056266
1056444
1056618
1056796
1056974
1057152
1057324
1057498
1057672
1057842
1058016
1058190
1058368
1058550
1058726
1058902
1059076
1059242
1059408
1059566
1059728
1059896
1060060
1060222
1060384
1060552
1060722
1060890
1061050
1061208
1061362
1061512
1061658
1061798
1061938
1062074
1062214
1062362
1062518
1062676
1062854
1063056
1063260
1063456
1063652
1063838
1064022
1064190
1064356
1064520
1064680
1064840
1065002
1065174
1065354
1065532
1065702
1065874
1066042
1066210
1066376
1066542
1066712
1066876
1067040
1067200
1067360
1067518
1067676
1067828
1067976
1068130
1068282
1068434
1068590
1068748
1068906
1069064
1069228
1069396
1069572
1069748
1069920
1070090
1070256
1070418
1070578
1070740
1070906
1071072
1071238
1071410
1071578
1071740
1071902
1072072
1072244
1072418
1072594
1072766
1072932
1073096
1073254
1073412
1073572
1073738
1073908
1074080
1074248
1074418
1074588
1074752
1074916
1075080
1075244
1075412
1075576
1075744
1075920
1076106
1076290
1076464
1076636
1076810
1076976
1077148
1077320
1077492
1077660
1077832
1078000
1078164
1078328
1078492
1078654
1078818
1078986
1079152
1079316
1079474
1079628
1079780
1079934
1080088
1080244
1080398
1080552
1080700
1080850
1081002
1081156
1081316
1081474
1081632
1081784
1081936
1082088
1082244
1082406
1082568
1082732
1082890
1083046
1083200
1083356
1083510
1083664
1083816
1083966
1084114
1084268
1084426
1084584
1084742
1084904
1085064
1085224
1085382
1085540
1085696
1085852
1086010
1086164
1086320
1086482
1086666
1086856
1087042
1087224
1087396
1087562
1087722
1087882
1088038
1088192
1088350
1088516
1088686
1088862
1089048
1089238
1089420
1089598
1089774
1089942
1090106
1090266
1090426
1090588
1090752
1090914
1091074
1091236
1091394
1091552
1091708
1091866
1092020
1092172
1092320
1092470
1092618
1092766
1092920
1093076
1093230
1093386
1093540
1093696
1093852
1094006
1094164
1094322
1094478
1094638
1094796
1094958
1095116
1095276
1095438
1095598
1095758
1095922
1096086
1096252
1096414
1096572
1096728
1096882
1097032
1097180
1097326
1097476
1097628
1097780
1097934
1098088
1098240
1098392
1098546
1098700
1098856
1099008
1099162
1099316
1099474
1099626
1099788
1099952
1100116
1100278
1100440
1100598
1100754
1100908
1101060
1101214
1101370
1101526
1101684
1101844
1102000
1102152
1102300
1102448
1102598
1102748
1102894
1103042
1103190
1103348
1103510
1103672
1103838
1104006
1104176
1104342
1104510
1104676
1104838
1105000
1105160
1105316
1105472
1105630
1105786
1105940
1106098
1106256
1106416
1106572
1106728
1106884
1107040
1107198
1107352
1107508
1107662
1107820
1107980
1108140
1108296
1108450
1108602
1108754
1108906
1109058
1109206
1109356
1109512
1109668
1109822
1109976
1110130
1110284
1110442
1110600
1110760
1110922
1111088
1111256
1111428
1111600
1111770
1111934
1112092
1112246
1112398
1112548
1112694
1112840
1112988
1113142
1113306
1113476
1113660
1113840
1114016
1114188
1114358
1114520
1114678
1114836
1114992
1115146
1115304
1115460
1115614
1115764
1115914
1116064
1116212
1116356
1116502
1116656
1116814
1116976
1117140
1117310
1117482
1117650
1117820
1117988
1118154
1118318
1118478
1118640
1118806
1118972
1119138
1119302
1119458
1119610
1119760
1119908
1120060
1120210
1120362
1120522
1120678
1120844
1121012
1121196
1121382
1121570
1121756
1121936
1122114
1122292
1122464
1122636
1122810
1122984
1123152
1123318
1123488
1123670
1123858
1124044
1124226
1124400
1124568
1124732
1124892
1125050
1125204
1125356
1125504
1125650
1125796
1125946
1126096
1126256
1126416
1126576
1126744
1126910
1127072
1127234
1127396
1127556
1127724
1127888
1128054
1128214
1128370
1128524
1128678
1128832
1128984
1129136
1129292
1129452
1129610
1129766
1129924
1130080
1130232
1130382
1130528
1130676
1130822
1130968
1131116
1131266
1131416
1131570
1131726
1131886
1132046
1132206
1132362
1132518
1132676
1132830
1132984
1133136
1133290
1133442
1133596
1133752
1133912
1134070
1134228
1134384
1134540
1134698
1134858
1135024
1135190
1135356
1135516
1135672
1135826
1135988
1136148
1136304
1136466
1136634
1136814
1137006
1137186
1137366
1137542
1137716
1137882
1138046
1138206
1138364
1138528
1138690
1138856
1139028
1139204
1139378
1139544
1139706
1139868
1140030
1140190
1140350
1140506
1140664
1140826
1140986
1141150
1141318
1141484
1141652
1141822
1141988
1142154
1142316
1142476
1142636
1142790
1142942
1143090
1143238
1143386
1143532
1143674
1143818
1143966
1144114
1144264
1144418
1144580
1144762
1144948
1145148
1145336
1145522
1145702
1145880
1146052
1146222
1146388
1146554
1146722
1146898
1147076
1147258
1147430
1147608
1147784
1147966
1148148
1148328
1148514
1148696
1148880
1149058
1149236
1149412
1149586
1149758
1149934
1150110
1150290
1150472
1150664
1150854
1151036
1151218
1151398
1151570
1151744
1151918
1152094
1152270
1152458
1152640
1152818
1153000
1153186
1153366
1153546
1153730
1153908
1154084
1154264
1154442
1154614
1154796
1154974
1155154
1155338
1155516
1155698
1155898
1156086
1156270
1156464
1156656
1156844
1157040
1157228
1157418
1157604
1157784
1157974
1158162
1158346
1158530
1158706
1158876
1159042
1159210
1159376
1159538
1159694
1159848
1160002
1160160
1160324
1160488
1160646
1160810
1160980
1161150
1161320
1161484
1161642
1161802
1161962
1162116
1162276
1162436
1162608
1162784
1162960
1163134
1163306
1163474
1163646
1163816
1163994
1164168
1164344
1164524
1164696
1164868
1165038
1165210
1165386
1165566
1165740
1165910
1166076
1166236
1166394
1166548
1166700
1166850
1166998
1167146
1167292
1167434
1167578
1167718
1167856
1167994
1168128
1168262
1168392
1168524
1168654
1168784
1168914
1169046
1169182
1169314
1169450
1169584
1169720
1169866
1170014
1170158
1170298
1170450
1170630
1170816
1170984
1171154
1171320
1171492
1171654
1171816
1171982
1172150
1172320
1172488
1172652
1172814
1172980
1173160
1173332
1173506
1173674
1173834
1173990
1174148
1174310
1174468
1174628
1174794
1174964
1175134
1175306
1175474
1175638
1175798
1175958
1176120
1176280
1176444
1176614
1176782
1176944
1177106
1177266
1177420
1177570
1177718
1177868
1178020
1178174
1178330
1178494
1178658
1178818
1178976
1179130
1179286
1179444
1179604
1179760
1179918
1180076
1180232
1180390
1180546
1180702
1180856
1181014
1181168
1181326
1181484
1181648
1181824
1182008
1182190
1182372
1182560
1182742
1182918
1183094
1183268
1183440
1183614
1183790
1183958
1184124
1184290
1184454
1184618
1184778
1184942
1185108
1185270
1185430
1185594
1185754
1185914
1186074
1186234
1186396
1186554
1186718
1186880
1187038
1187202
1187364
1187518
1187666
1187814
1187960
1188106
1188248
1188390
1188538
1188696
1188870
1189060
1189248
1189422
1189588
1189750
1189930
1190110
1190290
1190470
1190646
1190840
1191042
1191246
1191458
1191670
1191878
1192076
1192266
1192448
1192624
1192804
1192994
1193184
1193368
1193564
1193758
1193950
1194132
1194318
1194504
1194690
1194884
1195066
1195244
1195422
1195598
1195770
1195940
1196112
1196292
1196474
1196654
1196834
1197008
1197180
1197348
1197512
1197672
1197834
1198002
1198180
1198358
1198528
1198698
1198868
1199040
1199208
1199372
1199528
1199684
1199836
1199988
1200142
1200300
1200464
1200630
1200810
1200986
1201170
1201350
1201530
1201714
1201894
1202070
1202254
1202430
1202598
1202774
1202950
1203120
1203284
1203456
1203620
1203782
1203942
1204104
1204270
1204434
1204604
1204776
1204946
1205122
1205300
1205474
1205642
1205810
1205978
1206144
1206308
1206466
1206622
1206774
1206922
1207072
1207220
1207368
1207516
1207664
1207812
1207962
1208110
1208262
1208418
1208576
1208736
1208896
1209056
1209214
1209376
1209540
1209704
1209864
1210024
1210184
1210344
1210504
1210664
1210826
1210994
1211162
1211326
1211490
1211648
1211806
1211967
1212114
1212266
1212416
1212568
1212716
1212862
1213006
1213148
1213290
1213430
1213574
1213718
1213864
1214010
1214158
1214310
1214460
1214614
1214766
1214918
1215072
1215226
1215380
1215534
1215682
1215834
1215988
1216150
1216316
1216480
1216642
1216804
1216964
1217128
1217288
1217450
1217608
1217766
1217920
1218072
1218224
1218376
1218528
1218680
1218834
1218988
1219140
1219290
1219448
1219612
1219794
1219986
1220182
1220364
1220540
1220706
1220872
1221032
1221190
1221348
1221502
1221654
1221806
1221962
1222120
1222280
1222438
1222600
1222762
1222924
1223090
1223256
1223416
1223576
1223732
1223886
1224038
1224188
1224348
1224514
1224682
1224852
1225024
1225188
1225350
1225510
1225664
1225816
1225966
1226122
1226274
1226430
1226584
1226744
1226902
1227060
1227220
1227382
1227542
1227704
1227862
1228016
1228170
1228326
1228484
1228642
1228798
1228952
1229106
1229266
1229432
1229600
1229770
1229932
1230094
1230264
1230434
1230598
1230770
1230940
1231104
1231276
1231448
1231626
1231800
1231974
1232150
1232322
1232492
1232660
1232836
1233012
1233184
1233352
1233516
1233678
1233838
1233996
1234158
1234322
1234488
1234652
1234812
1234972
1235132
1235288
1235442
1235598
1235756
1235920
1236086
1236252
1236414
1236580
1236736
1236894
1237050
1237206
1237358
1237516
1237676
1237844
1238014
1238190
1238364
1238536
1238698
1238856
1239010
1239164
1239320
1239474
1239632
1239800
1239966
1240128
1240296
1240474
1240650
1240822
1240988
1241148
1241306
1241472
1241646
1241834
1242024
1242212
1242390
1242564
1242730
1242902
1243084
1243274
1243456
1243638
1243824
1244010
1244194
1244376
1244546
1244712
1244872
1245042
1245224
1245420
1245598
1245780
1245964
1246150
1246344
1246548
1246750
1246946
1247130
1247304
1247474
1247638
1247798
1247954
1248112
1248272
1248444
1248638
1248836
1249028
1249216
1249402
1249590
1249768
1249946
1250122
1250286
1250448
1250610
1250776
1250952
1251136
1251314
1251484
1251654
1251826
1251996
1252170
1252340
1252510
1252680
1252844
1253002
1253162
1253326
1253498
1253682
1253870
1254054
1254228
1254404
1254588
1254778
1254966
1255152
1255328
1255498
1255668
1255840
1256016
1256202
1256376
1256550
1256722
1256896
1257066
1257228
1257384
1257544
1257708
1257880
1258064
1258254
1258446
1258636
1258820
1258994
1259158
1259326
1259490
1259660
1259828
1259992
1260162
1260336
1260506
1260676
1260856
1261038
1261224
1261402
1261578
1261746
1261914
1262074
1262230
1262386
1262550
1262720
1262882
1263048
1263220
1263390
1263562
1263732
1263902
1264070
1264236
1264398
1264558
1264716
1264874
1265034
1265198
1265362
1265528
1265706
1265896
1266096
1266282
1266472
1266656
1266832
1267010
1267186
1267352
1267518
1267686
1267868
1268052
1268226
1268400
1268572
1268740
1268908
1269074
1269232
1269390
1269554
1269722
1269902
1270078
1270254
1270424
1270592
1270760
1270932
1271106
1271274
1271446
1271608
1271768
1271930
1272094
1272260
1272430
1272594
1272754
1272914
1273082
1273246
1273414
1273578
1273742
1273910
1274076
1274244
1274422
1274592
1274764
1274934
1275098
1275266
1275434
1275604
1275776
1275948
1276114
1276280
1276450
1276630
1276824
1277014
1277202
1277384
1277558
1277736
1277914
1278092
1278268
1278434
1278600
1278764
1278932
1279096
1279266
1279440
1279614
1279790
1279962
1280126
1280286
1280450
1280614
1280774
1280936
1281104
1281280
1281454
1281620
1281786
1281948
1282106
1282272
1282440
1282618
1282802
1282986
1283174
1283360
1283542
1283712
1283880
1284048
1284210
1284372
1284534
1284706
1284878
1285048
1285218
1285386
1285552
1285718
1285878
1286036
1286194
1286352
1286512
1286678
1286846
1287024
1287202
1287382
1287558
1287728
1287890
1288054
1288220
1288398
1288582
1288764
1288954
1289152
1289344
1289536
1289730
1289920
1290104
1290294
1290492
1290692
1290892
1291076
1291252
1291424
1291590
1291760
1291928
1292100
1292268
1292440
1292612
1292792
1292974
1293160
1293344
1293526
1293702
1293878
1294048
1294216
1294384
1294550
1294716
1294884
1295046
1295210
1295374
1295540
1295706
1295878
1296050
1296224
1296396
1296568
1296736
1296908
1297078
1297248
1297414
1297576
1297736
1297894
1298048
1298202
1298358
1298524
1298700
1298898
1299090
1299292
1299494
1299694
1299890
1300076
1300258
1300432
1300604
1300774
1300944
1301118
1301292
1301468
1301642
1301820
1301996
1302174
1302356
1302532
1302712
1302890
1303066
1303238
1303412
1303582
1303752
1303918
1304078
1304238
1304402
1304582
1304754
1304928
1305102
1305278
1305450
1305624
1305796
1305972
1306148
1306320
1306490
1306666
1306838
1307014
1307192
1307366
1307540
1307718
1307904
1308084
1308266
1308440
1308612
1308784
1308954
1309122
1309292
1309474
1309650
1309828
1309996
1310160
1310320
1310484
1310648
1310814
1310988
1311164
1311340
1311522
1311714
1311918
1312120
1312324
1312518
1312702
1312880
1313054
1313226
1313396
1313572
1313754
1313950
1314148
1314346
1314540
1314726
1314908
1315086
1315262
1315436
1315606
1315774
1315940
1316102
1316266
1316434
1316600
1316772
1316938
1317102
1317260
1317414
1317564
1317716
1317870
1318028
1318190
1318350
1318514
1318682
1318846
1319010
1319174
1319342
1319512
1319676
1319836
1319998
1320158
1320320
1320484
1320644
1320804
1320970
1321136
1321302
1321472
1321644
1321814
1321984
1322158
1322326
1322492
1322656
1322818
1322980
1323140
1323302
1323464
1323626
1323786
1323942
1324092
1324242
1324392
1324546
1324718
1324890
1325068
1325258
1325444
1325624
1325810
1325994
1326166
1326340
1326510
1326680
1326846
1327010
1327168
1327324
1327476
1327628
1327784
1327944
1328112
1328284
1328460
1328630
1328806
1328988
1329164
1329340
1329520
1329694
1329866
1330038
1330210
1330380
1330548
1330710
1330876
1331040
1331202
1331364
1331526
1331690
1331856
1332022
1332184
1332340
1332500
1332666
1332840
1333020
1333198
1333368
1333528
1333690
1333852
1334010
1334164
1334316
1334468
1334624
1334788
1334904
1335114
1335272
1335432
1335594
1335762
1335938
1336124
1336314
1336506
1336702
1336896
1337094
1337290
1337496
1337690
1337886
1338078
1338266
1338452
1338634
1338820
1339008
1339194
1339388
1339584
1339796
1339994
1340192
1340382
1340572
1340758
1340944
1341130
1341318
1341504
1341692
1341882
1342072
1342266
1342458
1342654
1342844
1343032
1343220
1343406
1343592
1343784
1343972
1344168
1344376
1344572
1344764
1344950
1345136
1345322
1345506
1345692
1345888
1346086
1346280
1346480
1346672
1346870
1347066
1347264
1347456
1347652
1347842
1348038
1348232
1348424
1348616
1348804
1348996
1349192
1349392
1349586
1349784
1349980
1350174
1350366
1350558
1350748
1350936
1351126
1351312
1351504
1351690
1351878
1352060
1352242
1352426
1352608
1352792
1352978
1353168
1353362
1353556
1353752
1353948
1354146
1354344
1354538
1354730
1354918
1355112
1355308
1355498
1355690
1355884
1356078
1356268
1356466
1356670
1356874
1357066
1357260
1357450
1357650
1357862
1358064
1358270
1358468
1358666
1358858
1359052
1359246
1359438
1359630
1359818
1360006
1360196
1360388
1360584
1360776
1360966
1361158
1361356
1361554
1361748
1361940
1362128
1362332
1362540
1362742
1362944
1363142
1363338
1363532
1363734
1363930
1364122
1364320
1364514
1364704
1364888
1365074
1365260
1365450
1365638
1365832
1366028
1366218
1366410
1366598
1366792
1366986
1367180
1367372
1367564
1367752
1367932
1368104
1368280
1368460
1368638
1368818
1369000
1369184
1369366
1369536
1369706
1369886
1370066
1370242
1370420
1370598
1370776
1370956
1371138
1371318
1371500
1371682
1371862
1372042
1372224
1372408
1372592
1372774
1372960
1373146
1373338
1373538
1373736
1373934
1374128
1374322
1374510
1374700
1374892
1375090
1375284
1375482
1375684
1375884
1376100
1376306
1376520
1376716
1376910
1377100
1377292
1377486
1377684
1377880
1378080
1378288
1378498
1378724
1378946
1379162
1379374
1379584
1379788
1379998
1380204
1380418
1380632
1380848
1381058
1381270
1381476
1381680
1381880
1382086
1382298
1382512
1382724
1382930
1383132
1383328
1383526
1383716
1383912
1384102
1384296
1384492
1384694
1384898
1385098
1385304
1385506
1385706
1385902
1386100
1386296
1386486
1386678
1386868
1387058
1387248
1387434
1387622
1387810
1387994
1388178
1388360
1388544
1388728
1388918
1389102
1389290
1389474
1389660
1389844
1390028
1390212
1390402
1390592
1390782
1390968
1391154
1391344
1391534
1391724
1391914
1392102
1392294
1392482
1392670
1392858
1393048
1393236
1393430
1393620
1393810
1393998
1394188
1394378
1394572
1394764
1394956
1395148
1395338
1395528
1395716
1395902
1396092
1396276
1396460
1396650
1396836
1397022
1397208
1397394
1397580
1397768
1397956
1398144
1398330
1398514
1398700
1398884
1399066
1399248
1399434
1399620
1399808
1400000
1400190
1400388
1400584
1400780
1400980
1401172
1401368
1401566
1401758
1401948
1402126
1402296
1402466
1402644
1402822
1403000
1403174
1403340
1403524
1403732
1403950
1404152
1404364
1404576
1404766
1404948
1405122
1405292
1405460
1405624
1405802
1405980
1406162
1406342
1406520
1406698
1406868
1407040
1407214
1407390
1407570
1407748
1407930
1408120
1408300
1408476
1408646
1408812
1408976
1409138
1409302
1409464
1409628
1409798
1409970
1410146
1410328
1410508
1410690
1410872
1411048
1411228
1411408
1411588
1411774
1411960
1412144
1412328
1412514
1412698
1412880
1413064
1413242
1413422
1413604
1413786
1413972
1414162
1414350
1414536
1414716
1414900
1415084
1415268
1415452
1415636
1415820
1416004
1416190
1416372
1416554
1416736
1416918
1417102
1417286
1417470
1417656
1417840
1418030
1418216
1418398
1418580
1418762
1418946
1419140
1419334
1419528
1419718
1419906
1420094
1420284
1420474
1420660
1420846
1421028
1421212
1421396
1421584
1421770
1421956
1422136
1422318
1422500
1422684
1422872
1423066
1423256
1423448
1423640
1423832
1424014
1424194
1424380
1424570
1424768
1424966
1425162
1425362
1425560
1425756
1425950
1426142
1426334
1426528
1426722
1426922
1427116
1427310
1427500
1427692
1427882
1428070
1428262
1428452
1428646
1428834
1429022
1429208
1429394
1429582
1429766
1429952
1430142
1430330
1430520
1430710
1430896
1431088
1431280
1431472
1431658
1431848
1432032
1432216
1432398
1432584
1432774
1432970
1433166
1433364
1433560
1433750
1433942
1434132
1434334
1434532
1434730
1434928
1435122
1435314
1435504
1435692
1435882
1436072
1436260
1436450
1436640
1436828
1437016
1437200
1437388
1437576
1437762
1437946
1438130
1438318
1438508
1438702
1438896
1439094
1439286
1439480
1439672
1439864
1440060
1440252
1440444
1440634
1440828
1441022
1441218
1441410
1441602
1441794
1441988
1442184
1442376
1442566
1442754
1442946
1443138
1443324
1443508
1443698
1443880
1444064
1444254
1444442
1444632
1444822
1445010
1445200
1445390
1445582
1445772
1445958
1446146
1446332
1446510
1446680
1446847
1447019
1447190
1447350
1447506
1447660
1447814
1447966
1448120
1448274
1448428
1448580
1448732
1448886
1449036
1449180
1449324
1449466
1449612
1449760
1449916
1450078
1450240
1450404
1450566
1450740
1450918
1451090
1451268
1451452
1451632
1451810
1451980
1452142
1452300
1452454
1452602
1452752
1452906
1453118
1453330
1453532
1453726
1453920
1454112
1454292
1454470
1454646
1454824
1454998
1455166
1455342
1455526
1455714
1455892
1456068
1456246
1456428
1456604
1456772
1456940
1457104
1457266
1457428
1457600
1457778
1457960
1458142
1458320
1458504
1458690
1458872
1459052
1459226
1459396
1459566
1459740
1459904
1460072
1460238
1460404
1460568
1460726
1460878
1461028
1461178
1461330
1461478
1461630
1461790
1461952
1462132
1462316
1462514
1462694
1462878
1463064
1463236
1463408
1463582
1463756
1463928
1464102
1464280
1464452
1464636
1464826
1465022
1465216
1465410
1465594
1465772
1465954
1466138
1466320
1466496
1466666
1466838
1467012
1467186
1467356
1467530
1467702
1467874
1468050
1468226
1468400
1468568
1468734
1468904
1469074
1469250
1469428
1469602
1469776
1469936
1470110
1470274
1470438
1470600
1470762
1470930
1471102
1471272
1471446
1471624
1471794
1471968
1472144
1472320
1472496
1472668
1472836
1473008
1473186
1473358
1473534
1473712
1473884
1474060
1474238
1474410
1474580
1474750
1474916
1475086
1475260
1475432
1475604
1475774
1475946
1476120
1476286
1476450
1476622
1476804
1477002
1477196
1477384
1477574
1477762
1477940
1478122
1478308
1478496
1478688
1478872
1479050
1479228
1479398
1479562
1479722
1479884
1480056
1480230
1480404
1480570
1480738
1480910
1481078
1481248
1481418
1481588
1481760
1481934
1482108
1482278
1482448
1482620
1482786
1482958
1483132
1483302
1483474
1483638
1483796
1483950
1484108
1484262
1484418
1484574
1484734
1484888
1485044
1485206
1485376
1485548
1485722
1485898
1486064
1486228
1486388
1486550
1486712
1486874
1487036
1487200
1487370
1487536
1487702
1487868
1488040
1488212
1488386
1488552
1488718
1488888
1489056
1489220
1489388
1489560
1489738
1489918
1490096
1490280
1490454
1490624
1490796
1490972
1491148
1491320
1491496
1491670
1491838
1492004
1492170
1492340
1492510
1492678
1492850
1493028
1493208
1493388
1493562
1493736
1493902
1494070
1494240
1494416
1494598
1494780
1494972
1495160
1495342
1495514
1495678
1495842
1496008
1496176
1496346
1496510
1496670
1496828
1496992
1497154
1497314
1497478
1497638
1497794
1497944
1498094
1498242
1498392
1498548
1498712
1498896
1499086
1499276
1499460
1499638
1499810
1499976
1500144
1500316
1500490
1500656
1500824
1500990
1501162
1501328
1501503
1501662
1501822
1501980
1502138
1502298
1502460
1502626
1502798
1502966
1503140
1503308
1503476
1503642
1503804
1503960
1504116
1504272
1504434
1504596
1504754
1504918
1505088
1505264
1505438
1505612
1505790
1505960
1506130
1506300
1506466
1506626
1506784
1506942
1507104
1507266
1507430
1507594
1507754
1507912
1508074
1508242
1508414
1508580
1508740
1508894
1509050
1509202
1509356
1509512
1509676
1509854
1510048
1510246
1510444
1510638
1510824
1511006
1511182
1511358
1511534
1511708
1511870
1512028
1512186
1512344
1512508
1512670
1512828
1512986
1513148
1513314
1513488
1513662
1513840
1514016
1514194
1514378
1514558
1514742
1514926
1515104
1515288
1515472
1515656
1515840
1516016
1516184
1516350
1516514
1516674
1516834
1516996
1517156
1517314
1517474
1517632
1517790
1517954
1518128
1518318
1518524
1518726
1518918
1519102
1519282
1519456
1519630
1519802
1519972
1520138
1520302
1520460
1520614
1520774
1520934
1521094
1521250
1521412
1521582
1521754
1521938
1522116
1522284
1522446
1522608
1522774
1522940
1523106
1523270
1523440
1523614
1523786
1523958
1524130
1524298
1524462
1524624
1524784
1524942
1525100
1525258
1525418
1525578
1525736
1525892
1526048
1526202
1526352
1526504
1526660
1526814
1526968
1527124
1527282
1527440
1527598
1527756
1527914
1528068
1528224
1528376
1528528
1528680
1528832
1528990
1529150
1529312
1529478
1529640
1529800
1529952
1530106
1530258
1530406
1530552
1530698
1530846
1531000
1531144
1531292
1531438
1531580
1531722
1531862
1532004
1532150
1532298
1532448
1532598
1532744
1532890
1533036
1533182
1533328
1533474
1533622
1533770
1533916
1534060
1534202
1534344
1534488
1534634
1534782
1534932
1535083
1535230
1535374
1535518
1535662
1535808
1535956
1536102
1536246
1536390
1536540
1536690
1536842
1536990
1537142
1537302
1537454
1537602
1537752
1537900
1538050
1538196
1538342
1538488
1538630
1538770
1538908
1539048
1539194
1539346
1539500
1539654
1539804
1539950
1540098
1540248
1540394
1540540
1540686
1540830
1540976
1541122
1541266
1541410
1541558
1541708
1541860
1542014
1542168
1542320
1542472
1542624
1542780
1542936
1543092
1543244
1543396
1543548
1543696
1543844
1543992
1544142
1544292
1544444
1544610
1544772
1544934
1545092
1545240
1545394
1545544
1545692
1545838
1545984
1546130
1546274
1546424
1546568
1546708
1546854
1547000
1547152
1547308
1547468
1547632
1547794
1547954
1548118
1548280
1548440
1548594
1548744
1548896
1549044
1549194
1549344
1549494
1549644
1549794
1549942
1550090
1550238
1550390
1550538
1550688
1550836
1550982
1551124
1551266
1551410
1551556
1551710
1551868
1552030
1552200
1552366
1552530
1552698
1552866
1553032
1553200
1553364
1553524
1553684
1553846
1554008
1554172
1554334
1554496
1554656
1554818
1554976
1555134
1555292
1555450
1555614
1555780
1555942
1556104
1556266
1556424
1556582
1556738
1556896
1557050
1557208
1557366
1557526
1557684
1557840
1557990
1558138
1558288
1558442
1558600
1558754
1558902
1559050
1559202
1559356
1559520
1559680
1559838
1559990
1560140
1560288
1560434
1560580
1560722
1560864
1561012
1561164
1561316
1561472
1561634
1561802
1561966
1562134
1562304
1562474
1562642
1562802
1562960
1563114
1563266
1563420
1563570
1563718
1563862
1564018
1564176
1564336
1564494
1564648
1564804
1564956
1565108
1565260
1565412
1565566
1565720
1565872
1566026
1566178
1566332
1566486
1566636
1566790
1566940
1567090
1567240
1567390
1567542
1567692
1567848
1568006
1568162
1568316
1568468
1568622
1568772
1568922
1569074
1569224
1569378
1569530
1569682
1569838
1569998
1570158
1570318
1570478
1570634
1570784
1570932
1571078
1571224
1571370
1571518
1571668
1571820
1571974
1572130
1572288
1572442
1572596
1572746
1572892
1573040
1573188
1573338
1573494
1573650
1573804
1573960
1574122
1574288
1574450
1574610
1574772
1574934
1575098
1575256
1575412
1575564
1575718
1575870
1576024
1576176
1576328
1576478
1576634
1576796
1576960
1577120
1577276
1577428
1577578
1577724
1577872
1578024
1578172
1578322
1578474
1578630
1578786
1578944
1579104
1579262
1579420
1579580
1579740
1579900
1580054
1580210
1580364
1580518
1580676
1580834
1580990
1581148
1581300
1581454
1581606
1581758
1581914
1582072
1582230
1582386
1582538
1582684
1582830
1582976
1583124
1583278
1583430
1583582
1583734
1583892
1584048
1584202
1584356
1584508
1584662
1584814
1584964
1585114
1585260
1585406
1585552
1585698
1585846
1585992
1586138
1586284
1586424
1586562
1586702
1586844
1586994
1587148
1587302
1587458
1587612
1587766
1587918
1588070
1588224
1588372
1588520
1588664
1588810
1588952
1589096
1589242
1589386
1589538
1589692
1589844
1589998
1590152
1590306
1590460
1590612
1590766
1590916
1591064
1591216
1591368
1591518
1591666
1591814
1591962
1592110
1592258
1592410
1592560
1592708
1592854
1592998
1593142
1593284
1593420
1593566
1593714
1593866
1594020
1594172
1594328
1594482
1594638
1594796
1594950
1595106
1595258
1595410
1595562
1595712
1595870
1596030
1596188
1596346
1596504
1596660
1596818
1596970
1597122
1597272
1597422
1597572
1597720
1597868
1598016
1598164
1598314
1598462
1598610
1598752
1598896
1599042
1599190
1599340
1599490
1599640
1599794
1599946
1600096
1600246
1600396
1600544
1600690
1600834
1600978
1601124
1601272
1601420
1601576
1601738
1601894
1602054
1602212
1602364
1602512
1602660
1602808
1602958
1603108
1603256
1603404
1603552
1603698
1603844
1603986
1604132
1604274
1604420
1604568
1604718
1604866
1605016
1605172
1605324
1605478
1605634
1605788
1605942
1606094
1606244
1606390
1606538
1606688
1606836
1606988
1607138
1607292
1607442
1607592
1607740
1607892
1608040
1608188
1608336
1608484
1608634
1608782
1608928
1609076
1609222
1609370
1609516
1609664
1609808
1609956
1610102
1610248
1610394
1610540
1610688
1610834
1610984
1611130
1611278
1611426
1611576
1611724
1611870
1612018
1612162
1612308
1612456
1612602
1612748
1612894
1613040
1613186
1613332
1613478
1613622
1613770
1613916
1614062
1614208
1614354
1614500
1614646
1614794
1614944
1615098
1615248
1615400
1615550
1615700
1615848
1615996
1616142
1616288
1616434
1616580
1616726
1616872
1617020
1617168
1617318
1617466
1617618
1617768
1617918
1618070
1618220
1618368
1618514
1618660
1618802
1618942
1619082
1619222
1619364
1619508
1619654
1619802
1619950
1620098
1620244
1620394
1620540
1620686
1620832
1620978
1621126
1621272
1621418
1621564
1621712
1621858
1622006
1622156
1622302
1622450
1622600
1622748
1622890
1623028
1623166
1623306
1623448
1623590
1623734
1623878
1624022
1624168
1624310
1624454
1624596
1624738
1624880
1625022
1625164
1625306
1625450
1625596
1625744
1625894
1626046
1626200
1626354
1626510
1626666
1626820
1626974
1627126
1627276
1627428
1627578
1627730
1627878
1628022
1628166
1628312
1628458
1628604
1628752
1628900
1629046
1629194
1629342
1629492
1629640
1629786
1629934
1630082
1630226
1630372
1630518
1630664
1630808
1630954
1631096
1631242
1631384
1631528
1631672
1631818
1631964
1632110
1632254
1632400
1632546
1632690
1632834
1632980
1633122
1633266
1633408
1633548
1633688
1633828
1633966
1634104
1634242
1634378
1634518
1634660
1634806
1634954
1635108
1635264
1635416
1635566
1635716
1635864
1636012
1636160
1636308
1636454
1636602
1636746
1636892
1637040
1637186
1637336
1637486
1637638
1637790
1637940
1638092
1638244
1638390
1638536
1638682
1638824
1638968
1639110
1639254
1639398
1639542
1639686
1639830
1639974
1640118
1640264
1640410
1640554
1640698
1640840
1640984
1641126
1641270
1641410
1641552
1641694
1641836
1641982
1642128
1642276
1642424
1642574
1642724
1642874
1643024
1643174
1643326
1643474
1643624
1643772
1643920
1644068
1644214
1644358
1644504
1644652
1644798
1644946
1645096
1645248
1645400
1645550
1645700
1645846
1645992
1646136
1646282
1646426
1646572
1646718
1646868
1647020
1647170
1647320
1647470
1647620
1647774
1647924
1648070
1648218
1648366
1648512
1648656
1648802
1648948
1649094
1649240
1649388
1649536
1649680
1649826
1649978
1650132
1650292
1650448
1650606
1650756
1650906
1651058
1651214
1651370
1651522
1651676
1651828
1651980
1652138
1652292
1652448
1652602
1652754
1652904
1653054
1653204
1653354
1653504
1653660
1653814
1653968
1654124
1654280
1654434
1654588
1654740
1654892
1655038
1655186
1655330
1655472
1655616
1655758
1655898
1656038
1656176
1656314
1656452
1656590
1656724
1656860
1656994
1657126
1657256
1657386
1657514
1657644
1657772
1657898
1658026
1658156
1658286
1658416
1658546
1658676
1658806
1658934
1659064
1659192
1659320
1659448
1659576
1659702
1659830
1659956
1660080
1660204
1660328
1660452
1660574
1660698
1660822
1660944
1661066
1661190
1661312
1661436
1661558
1661680
1661802
1661924
1662046
1662166
1662288
1662408
1662528
1662648
1662768
1662888
1663006
1663126
1663248
1663374
1663496
1663622
1663752
1663878
1664006
1664134
1664262
1664386
1664510
1664634
1664760
1664884
1665006
1665130
1665258
1665384
1665512
1665638
1665768
1665900
1666034
1666166
1666300
1666434
1666566
1666696
1666826
1666956
1667084
1667212
1667342
1667470
1667602
1667734
1667870
1668008
1668146
1668282
1668418
1668554
1668686
1668818
1668948
1669076
1669202
1669328
1669454
1669578
1669706
1669834
1669964
1670098
1670232
1670370
1670510
1670650
1670786
1670920
1671054
1671186
1671316
1671446
1671576
1671710
1671840
1671974
1672110
1672246
1672380
1672516
1672652
1672786
1672920
1673056
1673190
1673326
1673460
1673596
1673734
1673872
1674012
1674158
1674306
1674452
1674600
1674746
1674892
1675038
1675182
1675330
1675480
1675632
1675782
1675936
1676092
1676250
1676416
1676578
1676736
1676888
1677040
1677192
1677340
1677488
1677638
1677792
1677946
1678096
1678250
1678404
1678558
1678720
1678888
1679050
1679218
1679390
1679566
1679740
1679904
1680066
1680226
1680386
1680550
1680718
1680886
1681052
1681220
1681386
1681548
1681706
1681866
1682024
1682172
1682326
1682490
1682660
1682836
1683006
1683182
1683358
1683532
1683704
1683876
1684044
1684214
1684386
1684552
1684724
1684894
1685056
1685218
1685374
1685532
1685696
1685864
1686026
1686188
1686350
1686516
1686674
1686828
1686978
1687126
1687272
1687418
1687566
1687718
1687872
1688030
1688194
1688362
1688532
1688700
1688864
1689024
1689184
1689342
1689504
1689672
1689836
1689998
1690160
1690326
1690490
1690650
1690812
1690980
1691140
1691302
1691462
1691620
1691780
1691940
1692102
1692262
1692420
1692578
1692730
1692884
1693042
1693204
1693368
1693528
1693684
1693834
1693984
1694134
1694286
1694436
1694584
1694736
1694892
1695048
1695202
1695356
1695508
1695656
1695802
1695946
1696088
1696232
1696374
1696518
1696658
1696798
1696940
1697086
1697238
1697382
1697532
1697682
1697834
1697990
1698140
1698290
1698442
1698590
1698738
1698886
1699038
1699190
1699348
1699512
1699668
1699830
1699990
1700146
1700308
1700466
1700622
1700780
1700936
1701094
1701248
1701404
1701556
1701708
1701856
1702000
1702148
1702296
1702444
1702590
1702734
1702876
1703018
1703160
1703298
1703432
1703568
1703702
1703838
1703974
1704114
1704256
1704402
1704550
1704696
1704844
1704988
1705132
1705276
1705420
1705564
1705706
1705852
1705998
1706146
1706294
1706444
1706592
1706740
1706890
1707044
1707194
1707344
1707496
1707648
1707798
1707950
1708098
1708246
1708394
1708542
1708680
1708826
1708974
1709124
1709276
1709428
1709582
1709734
1709886
1710032
1710178
1710320
1710466
1710614
1710760
1710908
1711060
1711218
1711374
1711530
1711688
1711848
1712006
1712162
1712320
1712476
1712634
1712798
1712964
1713130
1713300
1713466
1713634
1713794
1713956
1714112
1714266
1714424
1714584
1714738
1714884
1715034
1715186
1715338
1715492
1715642
1715786
1715934
1716084
1716240
1716406
1716584
1716760
1716932
1717098
1717260
1717422
1717580
1717736
1717892
1718054
1718224
1718394
1718562
1718720
1718874
1719022
1719170
1719318
1719474
1719634
1719794
1719950
1720106
1720262
1720418
1720580
1720740
1720904
1721066
1721232
1721396
1721556
1721714
1721872
1722028
1722182
1722336
1722492
1722643
1722800
1722952
1723106
1723254
1723406
1723556
1723708
1723858
1724010
1724160
1724308
1724454
1724602
1724750
1724896
1725044
1725190
1725338
1725494
1725650
1725808
1725970
1726132
1726290
1726452
1726614
1726774
1726932
1727092
1727252
1727412
1727570
1727732
1727890
1728046
1728200
1728354
1728506
1728656
1728806
1728956
1729106
1729260
1729416
1729574
1729734
1729894
1730054
1730218
1730378
1730540
1730702
1730864
1731028
1731188
1731348
1731508
1731668
1731824
1731980
1732142
1732304
1732464
1732620
1732774
1732920
1733066
1733214
1733364
1733516
1733670
1733826
1733980
1734134
1734290
1734448
1734604
1734762
1734920
1735078
1735230
1735380
1735524
1735666
1735806
1735948
1736090
1736238
1736396
1736552
1736708
1736876
1737050
1737222
1737392
1737556
1737716
1737876
1738038
1738198
1738358
1738514
1738672
1738832
1738992
1739150
1739308
1739464
1739616
1739770
1739926
1740080
1740242
1740408
1740574
1740740
1740910
1741076
1741240
1741402
1741566
1741728
1741890
1742056
1742230
1742400
1742568
1742726
1742884
1743044
1743208
1743372
1743530
1743682
1743834
1743986
1744148
1744314
1744486
1744652
1744818
1744982
1745140
1745298
1745454
1745608
1745764
1745926
1746088
1746252
1746420
1746592
1746758
1746924
1747090
1747254
1747418
1747574
1747728
1747882
1748036
1748194
1748348
1748510
1748680
1748844
1749008
1749172
1749336
1749496
1749656
1749822
1749986
1750146
1750306
1750468
1750630
1750788
1750944
1751100
1751258
1751416
1751576
1751738
1751902
1752066
1752228
1752390
1752554
1752714
1752872
1753032
1753194
1753356
1753516
1753670
1753824
1753980
1754136
1754296
1754460
1754628
1754800
1754966
1755136
1755308
1755480
1755648
1755812
1755972
1756126
1756276
1756422
1756566
1756718
1756878
1757046
1757208
1757360
1757508
1757656
1757806
1757952
1758098
1758242
1758388
1758538
1758684
1758832
1758986
1759142
1759294
1759446
1759602
1759758
1759912
1760066
1760218
1760372
1760526
1760678
1760834
1760994
1761160
1761326
1761492
1761664
1761838
1762010
1762178
1762344
1762510
1762678
1762840
1763002
1763162
1763320
1763480
1763640
1763808
1763982
1764160
1764338
1764502
1764658
1764816
1764974
1765132
1765296
1765456
1765614
1765770
1765920
1766068
1766222
1766376
1766538
1766702
1766866
1767026
1767182
1767338
1767490
1767642
1767796
1767954
1768120
1768284
1768460
1768648
1768830
1769014
1769194
1769368
1769536
1769700
1769860
1770018
1770176
1770330
1770484
1770642
1770802
1770962
1771124
1771286
1771446
1771604
1771764
1771924
1772082
1772242
1772396
1772544
1772690
1772840
1772994
1773146
1773302
1773460
1773624
1773782
1773942
1774100
1774256
1774412
1774568
1774722
1774876
1775028
1775186
1775342
1775502
1775670
1775840
1776012
1776188
1776360
1776530
1776696
1776864
1777026
1777186
1777346
1777506
1777662
1777812
1777962
1778112
1778268
1778428
1778592
1778752
1778914
1779078
1779246
1779414
1779578
1779744
1779906
1780066
1780224
1780382
1780536
1780690
1780850
1781012
1781172
1781332
1781494
1781656
1781816
1781974
1782132
1782294
1782456
1782620
1782784
1782944
1783100
1783256
1783416
1783574
1783730
1783888
1784048
1784206
1784364
1784518
1784674
1784828
1784984
1785142
1785296
1785454
1785608
1785762
1785924
1786078
1786224
1786376
1786528
1786680
1786832
1786986
1787136
1787290
1787442
1787596
1787758
1787934
1788120
1788300
1788474
1788638
1788796
1788952
1789110
1789268
1789428
1789588
1789750
1789914
1790080
1790248
1790414
1790578
1790740
1790904
1791064
1791224
1791388
1791550
1791712
1791876
1792040
1792204
1792370
1792534
1792696
1792858
1793022
1793190
1793356
1793518
1793682
1793848
1794016
1794184
1794354
1794520
1794690
1794858
1795026
1795194
1795362
1795532
1795696
1795862
1796030
1796198
1796364
1796528
1796696
1796862
1797026
1797190
1797356
1797516
1797680
1797846
1798008
1798170
1798330
1798494
1798652
1798814
1798976
1799140
1799304
1799470
1799640
1799804
1799966
