peaks
9
157
301
448
596
744
890
1036
1184
1334
1480
1626
1770
1914
2058
2202
2344
2490
2634
2778
2920
3064
3210
3358
3506
3650
3792
3940
4100
4262
4422
4582
4740
4894
5046
5198
5348
5498
5646
5794
5942
6088
6234
6380
6524
6666
6804
6944
7086
7232
7380
7528
7680
7832
7986
8140
8296
8454
8616
8780
8944
9108
9272
9434
9594
9750
9910
10070
10230
10388
10546
10706
10866
11024
11186
11348
11508
11670
11832
11994
12154
12316
12480
12646
12810
12978
13148
13318
13486
13654
13822
13986
14150
14318
14484
14650
14814
14980
15142
15306
15466
15624
15784
15946
16106
16270
16434
16598
16764
16928
17094
17264
17430
17596
17764
17934
18102
18270
18444
18614
18782
18954
19124
19290
19454
19618
19780
19942
20106
20270
20434
20598
20762
20928
21092
21256
21418
21580
21744
21906
22068
22228
22392
22552
22712
22874
23032
23192
23346
23506
23660
23816
23972
24126
24278
24432
24586
24740
24896
25060
25224
25390
25556
25720
25884
26048
26208
26370
26528
26686
26844
26998
27152
27306
27458
27608
27756
27906
28054
28198
28342
28488
28632
28776
28920
29066
29216
29364
29514
29666
29822
29980
30134
30290
30446
30600
30752
30902
31056
31210
31360
31512
31666
31824
31986
32150
32310
32472
32638
32800
32960
33124
33286
33448
33602
33756
33910
34062
34210
34362
34516
34668
34818
34972
35128
35286
35442
35598
35758
35920
36082
36246
36414
36580
36742
36906
37070
37234
37396
37556
37716
37876
38036
38194
38354
38514
38672
38828
38982
39140
39300
39460
39620
39782
39946
40108
40270
40434
40596
40752
40908
41068
41222
41374
41522
41674
41824
41972
42122
42276
42430
42586
42742
42902
43060
43218
43372
43528
43684
43840
44000
44162
44324
44486
44648
44812
44976
45138
45302
45466
45630
45792
45952
46110
46268
46428
46584
46738
46896
47054
47210
47364
47516
47666
47816
47966
48112
48264
48416
48570
48726
48882
49042
49202
49364
49522
49680
49840
49998
50154
50306
50460
50616
50770
50924
51082
51240
51392
51544
51698
51852
52006
52160
52318
52478
52636
52792
52948
53100
53250
53394
53542
53688
53834
53980
54126
54272
54418
54560
54702
54842
54980
55116
55250
55390
55532
55672
55814
55960
56108
56256
56402
56548
56694
56836
56974
57114
57252
57392
57532
57668
57804
57942
58080
58218
58358
58496
58634
58772
58912
59050
59188
59328
59468
59608
59748
59890
60032
60176
60316
60456
60594
60736
60876
61014
61152
61290
61428
61566
61702
61840
61980
62118
62254
62390
62532
62674
62814
62952
63092
63234
63376
63518
63660
63800
63940
64082
64226
64364
64500
64636
64772
64910
65046
65180
65316
65450
65586
65724
65864
66004
66142
66280
66424
66568
66712
66852
66996
67142
67290
67434
67578
67722
67866
68010
68150
68294
68440
68584
68726
68866
69008
69152
69292
69432
69572
69710
69852
69994
70134
70272
70410
70564
70714
70866
71014
71164
71310
71452
71592
71732
71868
72004
72138
72272
72406
72536
72666
72792
72920
73050
73184
73326
73468
73618
73772
73926
74082
74242
74398
74546
74692
74836
74982
75120
75260
75402
75546
75686
75828
75972
76122
76268
76416
76566
76718
76868
77014
77164
77316
77466
77612
77760
77912
78064
78214
78364
78514
78666
78812
78958
79106
79254
79404
79552
79704
79856
80008
80158
80312
80466
80618
80766
80914
81062
81210
81358
81506
81654
81806
81956
82108
82258
82408
82558
82708
82856
83004
83150
83300
83450
83598
83750
83908
84062
84216
84368
84524
84680
84834
84984
85140
85296
85452
85606
85758
85908
86060
86206
86352
86496
86642
86788
86936
87082
87232
87384
87540
87694
87852
88014
88172
88328
88486
88646
88802
88958
89114
89274
89430
89586
89742
89900
90058
90212
90364
90518
90670
90820
90966
91116
91264
91412
91560
91710
91860
92008
92156
92304
92456
92606
92760
92912
93064
93216
93370
93522
93672
93824
93974
94126
94272
94418
94564
94712
94856
95000
95142
95286
95430
95574
95714
95856
96000
96144
96288
96432
96578
96724
96870
97018
97168
97318
97472
97624
97774
97928
98084
98238
98388
98544
98702
98858
99008
99160
99314
99466
99612
99760
99906
100054
100198
100342
100488
100632
100776
100918
101060
101206
101352
101498
101644
101792
101944
102098
102254
102408
102564
102720
102878
103032
103184
103338
103494
103644
103794
103944
104096
104244
104394
104544
104696
104848
104998
105144
105294
105446
105596
105746
105898
106052
106208
106362
106518
106672
106828
106990
107146
107302
107456
107608
107758
107904
108050
108200
108352
108506
108658
108818
108982
109144
109304
109462
109612
109756
109904
110056
110206
110360
110516
110672
110824
110972
111120
111268
111412
111554
111696
111842
111990
112136
112282
112430
112584
112744
112900
113058
113216
113372
113528
113684
113834
113986
114134
114284
114434
114586
114740
114888
115036
115182
115328
115472
115614
115756
115896
116040
116180
116320
116458
116602
116742
116880
117020
117162
117304
117442
117580
117720
117858
118000
118140
118278
118420
118562
118706
118846
118988
119130
119270
119410
119552
119692
119834
119974
120116
120258
120400
120542
120682
120822
120964
121108
121254
121398
121544
121694
121842
121988
122134
122280
122424
122566
122710
122850
122990
123132
123268
123408
123548
123688
123830
123974
124116
124264
124410
124554
124698
124842
124986
125128
125272
125416
125562
125702
125846
125990
126136
126282
126426
126574
126724
126876
127024
127172
127322
127470
127616
127756
127898
128040
128180
128320
128458
128600
128744
128886
129028
129174
129322
129472
129622
129774
129924
130074
130222
130370
130518
130666
130818
130964
131110
131254
131400
131544
131684
131828
131970
132112
132252
132390
132534
132678
132824
132966
133112
133260
133408
133556
133704
133854
134004
134150
134298
134450
134602
134752
134898
135046
135194
135338
135482
135628
135774
135920
136066
136214
136362
136510
136658
136806
136954
137102
137250
137398
137546
137692
137836
137982
138126
138264
138398
138532
138666
138800
138940
139082
139228
139374
139520
139666
139814
139962
140106
140252
140400
140548
140694
140838
140984
141130
141276
141418
141560
141702
141846
141992
142138
142282
142432
142582
142734
142882
143032
143182
143338
143488
143638
143790
143942
144092
144236
144382
144530
144676
144822
144964
145110
145256
145402
145550
145700
145850
146000
146150
146304
146458
146610
146762
146914
147064
147210
147354
147498
147636
147770
147902
148038
148174
148312
148452
148594
148736
148878
149024
149170
149318
149462
149608
149754
149902
150050
150194
150342
150490
150640
150786
150936
151088
151240
151386
151536
151686
151832
151976
152116
152262
152410
152554
152696
152842
152984
153128
153272
153414
153558
153702
153850
153998
154146
154296
154446
154600
154750
154900
155052
155204
155354
155504
155654
155806
155954
156098
156242
156390
156538
156682
156826
156974
157124
157268
157414
157562
157710
157854
157996
158140
158288
158436
158580
158724
158874
159024
159172
159318
159466
159614
159762
159906
160052
160198
160346
160492
160640
160790
160942
161094
161246
161398
161550
161704
161860
162014
162170
162328
162484
162638
162792
162948
163104
163258
163412
163570
163728
163886
164042
164202
164358
164514
164668
164822
164974
165128
165282
165432
165582
165738
165896
166052
166208
166366
166526
166684
166838
166992
167148
167304
167456
167608
167760
167916
168068
168216
168364
168512
168660
168808
168954
169100
169250
169402
169552
169698
169848
169998
170148
170296
170448
170600
170754
170902
171048
171194
171342
171488
171632
171774
171918
172064
172208
172350
172496
172644
172794
172944
173098
173252
173408
173564
173722
173874
174028
174182
174338
174488
174638
174788
174940
175088
175236
175386
175538
175686
175832
175978
176126
176276
176426
176576
176732
176888
177046
177198
177346
177490
177648
177806
177962
178112
178258
178396
178534
178670
178806
178942
179082
179222
179364
179504
179646
179788
179932
180076
180218
180362
180502
180648
180790
180932
181076
181220
181370
181518
181662
181810
181962
182112
182256
182402
182550
182700
182846
182990
183138
183286
183432
183574
183720
183866
184010
184156
184298
184444
184588
184732
184872
185016
185160
185304
185450
185596
185742
185888
186034
186176
186318
186460
186600
186742
186880
187020
187162
187304
187444
187584
187728
187872
188016
188158
188300
188442
188586
188728
188868
189010
189154
189300
189444
189586
189734
189882
190028
190174
190320
190468
190614
190758
190902
191048
191192
191334
191472
191612
191750
191890
192026
192166
192304
192442
192578
192716
192852
192986
193118
193250
193378
193506
193636
193764
193898
194032
194170
194306
194442
194580
194722
194864
195006
195150
195296
195442
195586
195728
195872
196018
196160
196302
196446
196590
196738
196884
197028
197174
197320
197464
197608
197754
197904
198058
198206
198352
198502
198654
198802
198946
199094
199242
199388
199530
199674
199818
199960
200100
200240
200382
200524
200664
200804
200948
201092
201236
201380
201526
201672
201816
201960
202104
202250
202396
202538
202684
202832
202978
203120
203264
203408
203552
203694
203834
203978
204122
204266
204408
204550
204692
204838
204984
205130
205274
205416
205560
205702
205844
205984
206126
206268
206410
206550
206692
206834
206978
207118
207260
207406
207550
207694
207838
207982
208128
208272
208416
208560
208708
208850
208994
209140
209288
209436
209580
209722
209872
210024
210172
210324
210470
210616
210758
210896
211034
211170
211304
211440
211576
211714
211850
211988
212128
212270
212412
212554
212700
212848
212996
213140
213288
213438
213586
213734
213878
214022
214166
214308
214446
214586
214726
214866
215004
215144
215284
215426
215568
215708
215852
215994
216136
216276
216414
216554
216692
216832
216968
217106
217244
217384
217528
217670
217816
217960
218110
218262
218412
218562
218714
218870
219024
219180
219338
219498
219654
219810
219966
220122
220276
220426
220582
220738
220892
221042
221198
221354
221514
221668
221824
221982
222138
222290
222444
222594
222746
222894
223042
223186
223326
223462
223598
223736
223876
224018
224166
224318
224472
224624
224780
224934
225088
225238
225388
225538
225688
225834
225986
226140
226296
226458
226618
226776
226936
227096
227252
227408
227564
227720
227872
228022
228176
228328
228478
228624
228772
228922
229070
229214
229358
229508
229660
229808
229958
230112
230268
230422
230574
230730
230884
231036
231188
231342
231498
231652
231806
231964
232120
232274
232426
232578
232728
232878
233026
233174
233320
233468
233614
233758
233904
234050
234200
234348
234496
234646
234792
234938
235080
235224
235368
235514
235658
235802
235950
236100
236248
236398
236550
236706
236864
237018
237176
237336
237494
237648
237798
237950
238102
238254
238402
238548
238690
238836
238980
239122
239264
239404
239546
239694
239844
239990
240138
240290
240444
240598
240750
240900
241050
241198
241348
241498
241644
241790
241936
242088
242238
242388
242540
242694
242848
243002
243150
243300
243448
243604
243766
243926
244080
244234
244390
244542
244692
244840
244986
245132
245280
245424
245568
245714
245864
246016
246168
246316
246464
246616
246772
246926
247082
247240
247404
247570
247734
247898
248064
248232
248398
248562
248726
248888
249052
249216
249372
249524
249676
249840
250006
250174
250342
250510
250670
250830
250990
251152
251310
251468
251628
251788
251946
252104
252264
252424
252584
252744
252904
253062
253216
253370
253520
253670
253814
253960
254106
254250
254394
254540
254688
254832
254972
255116
255258
255402
255544
255688
255826
255962
256096
256228
256360
256494
256628
256764
256904
257044
257182
257320
257462
257604
257746
257886
258028
258170
258308
258446
258584
258720
258856
258988
259120
259256
259394
259532
259668
259804
259944
260080
260214
260350
260486
260620
260752
260884
261018
261150
261282
261414
261544
261678
261810
261944
262078
262210
262344
262476
262610
262742
262876
263008
263144
263280
263418
263552
263688
263820
263952
264084
264214
264344
264472
264600
264726
264854
264984
265114
265244
265372
265500
265632
265764
265894
266024
266156
266288
266420
266550
266682
266814
266946
267076
267204
267332
267462
267592
267722
267852
267986
268120
268250
268380
268514
268648
268784
268920
269054
269190
269326
269462
269594
269726
269858
269992
270124
270256
270388
270520
270652
270784
270914
271044
271174
271304
271434
271560
271688
271818
271946
272074
272202
272332
272462
272592
272722
272850
272978
273106
273234
273362
273488
273614
273740
273866
273992
274122
274250
274376
274504
274636
274772
274908
275042
275176
275308
275442
275574
275708
275838
275970
276100
276230
276360
276490
276620
276748
276878
277006
277136
277266
277396
277530
277664
277796
277930
278064
278198
278332
278462
278592
278724
278856
278988
279118
279238
279376
279510
279644
279778
279910
280042
280174
280306
280436
280568
280698
280828
280956
281086
281216
281346
281476
281608
281738
281868
281998
282124
282250
282374
282500
282624
282748
282870
282996
283124
283250
283376
283500
283626
283758
283886
284012
284140
284270
284398
284526
284652
284782
284910
285038
285164
285288
285414
285540
285664
285786
285910
286036
286160
286284
286408
286534
286660
286784
286908
287032
287156
287280
287404
287528
287650
287774
287898
288022
288144
288266
288390
288512
288636
288760
288884
289008
289130
289252
289374
289494
289616
289738
289860
289980
290102
290226
290348
290472
290592
290716
290838
290960
291084
291206
291328
291450
291576
291700
291824
291952
292078
292200
292324
292448
292574
292698
292822
292946
293070
293196
293320
293444
293568
293696
293822
293948
294070
294194
294322
294452
294582
294714
294844
294974
295102
295232
295360
295488
295616
295742
295870
295996
296126
296252
296380
296506
296636
296764
296890
297018
297144
297274
297400
297526
297652
297780
297910
298040
298168
298296
298426
298556
298684
298810
298936
299062
299190
299314
299436
299558
299684
299810
299934
300050
300182
300308
300436
300562
300688
300796
300940
301070
301198
301328
301456
301582
301712
301838
301966
302092
302220
302348
302474
302600
302724
302850
302974
303098
303220
303342
303466
303590
303712
303836
303948
304050
304200
304322
304444
304564
304686
304806
304924
305044
305160
305270
305376
305516
305634
305762
305886
306010
306134
306262
306390
306516
306640
306766
306894
307022
307150
307276
307402
307530
307658
307784
307910
308038
308168
308296
308422
308546
308672
308798
308922
309046
309168
309292
309414
309538
309662
309770
309880
310024
310146
310276
310412
310546
310678
310808
310920
311026
311188
311312
311432
311552
311674
311796
311916
312030
312130
312238
312396
312516
312634
312742
312848
312994
313114
313232
313338
313444
313590
313708
313826
313944
314062
314182
314302
314406
314508
314610
314786
314884
315026
315146
315266
315386
315506
315624
315736
315842
315944
316106
316226
316348
316468
316592
316714
316836
316946
317052
317154
317328
317436
317572
317694
317816
317938
318058
318168
318278
318424
318546
318668
318790
318912
319026
319132
319276
319398
319520
319642
319762
319884
319992
320100
320248
320372
320494
320618
320740
320862
320986
321100
321214
321354
321478
321600
321722
321844
321966
322088
322212
322336
322444
322554
322704
322830
322952
323076
323200
323326
323452
323564
323678
323830
323956
324082
324206
324332
324458
324584
324696
324836
324962
325088
325214
325340
325466
325590
325706
325844
325968
326092
326216
326340
326462
326586
326698
326806
326950
327074
327196
327316
327436
327556
327678
327792
327904
328012
328154
328274
328392
328510
328628
328750
328870
328990
329100
329204
329350
329474
329596
329718
329840
329962
330086
330208
330328
330450
330572
330696
330818
330926
331034
331180
331302
331422
331542
331662
331784
331908
332020
332128
332270
332394
332516
332638
332760
332880
333004
333126
333242
333348
333490
333614
333736
333858
333978
334098
334220
334336
334448
334556
334708
334832
334956
335076
335198
335320
335444
335568
335680
335790
335898
336058
336180
336300
336420
336544
336666
336788
336904
337010
337162
337288
337410
337536
337664
337796
337926
338052
338178
338306
338436
338562
338688
338812
338936
339060
339182
339292
339406
339546
339668
339788
339910
340030
340154
340278
340398
340514
340622
340766
340904
341040
341176
341314
341446
341576
341706
341834
341960
342084
342208
342330
342454
342580
342702
342822
342942
343046
343154
343298
343418
343540
343662
343786
343908
344032
344156
344282
344408
344532
344648
344758
344902
345028
345150
345272
345396
345522
345646
345758
345874
345984
346144
346268
346392
346516
346642
346766
346890
347014
347138
347264
347388
347514
347640
347766
347892
348016
348140
348264
348392
348516
348640
348754
348886
349008
349132
349254
349378
349500
349622
349734
349848
349984
350104
350226
350344
350464
350582
350704
350820
350934
351040
351182
351302
351422
351542
351662
351782
351902
352022
352140
352252
352362
352468
352616
352736
352852
352970
353086
353204
353322
353432
353536
353644
353782
353898
354012
354130
354236
354340
354478
354594
354710
354828
354944
355062
355174
355282
355384
355526
355644
355760
355874
355988
356096
356204
356348
356468
356588
356708
356828
356944
357056
357166
357306
357426
357544
357662
357780
357890
358004
358108
358248
358364
358482
358594
358710
358816
358954
359074
359192
359306
359420
359528
359674
359796
359914
360032
360152
360266
360380
360490
360598
360740
360858
360976
361092
361204
361308
361442
361560
361678
361794
361910
362022
362136
362242
362350
362492
362610
362726
362836
362948
363058
363192
363310
363426
363542
363658
363776
363888
364000
364106
364214
364362
364482
364600
364710
364830
364938
365080
365200
365320
365436
365560
365684
365806
365914
366026
366168
366290
366412
366532
366654
366776
366898
367012
367120
367226
367382
367504
367624
367744
367864
367982
368104
368216
368326
368428
368536
368700
368820
368938
369052
369168
369274
369416
369536
369656
369778
369898
370014
370130
370236
370380
370500
370620
370732
370854
370960
371100
371220
371338
371456
371576
371698
371820
371940
372058
372172
372278
372424
372544
372662
372778
372902
373014
373128
373236
373376
373496
373618
373736
373856
373970
374084
374190
374334
374452
374570
374688
374808
374924
375042
375150
375262
375368
375514
375634
375752
375864
375984
376092
376234
376354
376476
376594
376716
376834
376942
377050
377204
377328
377450
377572
377694
377816
377938
378062
378172
378282
378424
378544
378662
378782
378902
379022
379142
379262
379374
379478
379587
379740
379858
379974
380090
380206
380318
380432
380544
380650
380751
380904
381020
381138
381258
381378
381496
381614
381734
381852
381960
382068
382218
382338
382458
382580
382700
382816
382934
383048
383158
383270
383414
383534
383652
383772
383890
384008
384126
384242
384350
384458
384598
384716
384836
384952
385062
385172
385326
385448
385568
385688
385808
385928
386046
386164
386272
386378
386524
386644
386764
386882
387002
387124
387238
387354
387460
387604
387728
387852
387976
388098
388220
388336
388452
388560
388700
388820
388940
389058
389176
389294
389412
389528
389638
389746
389890
390010
390130
390252
390372
390492
390612
390730
390846
390954
391094
391214
391334
391454
391572
391694
391814
391934
392050
392166
392274
392416
392536
392654
392772
392892
393010
393130
393242
393356
393466
393600
393722
393842
393962
394082
394200
394320
394440
394556
394670
394782
394890
395026
395142
395260
395370
395488
395604
395712
395830
395962
396080
396198
396314
396432
396548
396668
396776
396884
397022
397140
397260
397376
397494
397614
397720
397830
397970
398088
398208
398322
398434
398550
398684
398804
398922
399040
399156
399266
399369
399478
399640
399762
399878
400000
400122
400246
400368
400480
400592
400700
400844
400964
401082
401200
401318
401436
401554
401664
401778
401882
402026
402144
402260
402374
402494
402604
402718
402852
402968
403084
403202
403320
403438
403554
403668
403778
403888
404022
404138
404254
404372
404490
404606
404718
404832
404942
405052
405186
405300
405414
405530
405650
405770
405890
406010
406126
406242
406350
406462
406598
406714
406832
406948
407062
407178
407296
407410
407518
407632
407740
407874
407990
408104
408218
408330
408444
408558
408670
408784
408890
408998
409142
409262
409382
409500
409618
409736
409854
409968
410086
410200
410316
410428
410540
410656
410766
410872
410982
411122
411238
411356
411476
411596
411718
411840
411962
412086
412210
412334
412450
412568
412682
412830
412950
413072
413192
413316
413436
413556
413678
413790
413900
414044
414166
414288
414408
414534
414654
414774
414894
415004
415114
415254
415372
415492
415610
415730
415850
415968
416086
416198
416308
416428
416564
416684
416804
416924
417044
417160
417272
417386
417524
417644
417764
417886
418006
418130
418250
418372
418492
418614
418736
418856
418976
419092
419208
419320
419460
419580
419698
419818
419938
420058
420176
420294
420412
420532
420652
420770
420888
421004
421122
421238
421354
421488
421608
421730
421850
421972
422092
422216
422338
422462
422586
422708
422832
422954
423074
423196
423318
423440
423548
423688
423810
423930
424054
424176
424298
424418
424538
424656
424776
424890
425000
425152
425280
425402
425526
425648
425770
425894
426016
426138
426258
426382
426506
426628
426748
426864
426978
427120
427240
427360
427480
427604
427726
427848
427968
428092
428218
428340
428452
428570
428710
428836
428960
429084
429206
429330
429454
429576
429698
429814
429946
430068
430192
430314
430436
430560
430684
430808
430930
431054
431180
431302
431424
431538
431656
431788
431920
432058
432192
432330
432462
432590
432716
432842
432964
433084
433200
433318
433436
433556
433676
433796
433920
434044
434170
434292
434416
434540
434664
434790
434912
435036
435158
435284
435408
435532
435654
435778
435902
436024
436146
436268
436390
436514
436634
436754
436874
436994
437114
437232
437346
437474
437592
437712
437830
437950
438068
438186
438302
438424
438540
438658
438776
438894
439010
439130
439246
439364
439480
439596
439714
439830
439946
440064
440180
440298
440414
440530
440648
440764
440880
440994
441110
441224
441340
441450
441560
441686
441802
441918
442032
442148
442264
442382
442498
442614
442726
442842
442954
443084
443200
443316
443434
443550
443666
443782
443896
444014
444130
444248
444362
444478
444596
444712
444828
444940
445056
445166
445290
445406
445522
445638
445754
445870
445984
446098
446216
446326
446440
446550
446680
446794
446912
447032
447152
447272
447388
447506
447620
447736
447852
447960
448074
448180
448308
448422
448536
448648
448762
448874
448988
449100
449212
449326
449438
449548
449670
449782
449894
450008
450120
450234
450348
450460
450574
450684
450798
450912
451024
451134
451250
451364
451478
451590
451702
451814
451922
452036
452140
452248
452374
452486
452598
452710
452820
452930
453040
453148
453260
453366
453476
453602
453712
453824
453936
454046
454156
454266
454372
454482
454588
454694
454802
454910
455026
455138
455246
455356
455466
455576
455686
455794
455900
456012
456122
456232
456342
456448
456558
456666
456776
456886
456994
457104
457208
457314
457420
457546
457656
457766
457876
457988
458098
458204
458312
458424
458530
458636
458740
458868
458980
459090
459202
459314
459424
459534
459646
459758
459870
459980
460086
460196
460304
460412
460538
460648
460760
460872
460984
461094
461204
461316
461426
461538
461646
461756
461860
461964
462072
462202
462312
462422
462534
462644
462756
462866
462976
463088
463198
463312
463420
463532
463638
463742
463874
463988
464098
464212
464326
464438
464550
464664
464776
464888
465000
465110
465226
465323
465438
465540
465672
465782
465892
466002
466112
466222
466332
466442
466552
466660
466766
466878
466982
467084
467188
467320
467430
467540
467652
467762
467870
467980
468088
468202
468310
468426
468566
468688
468808
468924
469040
469156
469272
469386
469498
469610
469724
469836
469948
470054
470158
470258
470398
470512
470624
470734
470846
470960
471074
471186
471298
471412
471526
471638
471750
471856
471960
472100
472214
472328
472442
472554
472668
472780
472890
473004
473118
473226
473338
473444
473550
473656
473786
473896
474008
474120
474230
474340
474452
474564
474676
474786
474894
475006
475112
475220
475352
475464
475578
475692
475806
475920
476032
476146
476260
476372
476484
476590
476694
476806
476932
477040
477150
477260
477372
477484
477598
477710
477820
477932
478038
478142
478280
478394
478510
478626
478742
478858
478974
479088
479204
479320
479436
479546
479660
479766
479874
480010
480124
480238
480350
480464
480578
480688
480804
480912
481020
481128
481232
481364
481476
481588
481702
481814
481928
482040
482152
482266
482378
482490
482598
482710
482814
482924
483034
483158
483268
483380
483494
483606
483716
483830
483942
484054
484166
484276
484388
484496
484604
484708
484820
484946
485056
485170
485284
485398
485508
485618
485736
485842
485956
486070
486184
486294
486408
486522
486632
486744
486856
486968
487078
487188
487298
487406
487516
487640
487752
487864
487976
488086
488200
488312
488422
488536
488646
488756
488868
488976
489090
489198
489302
489432
489542
489654
489766
489878
489990
490104
490214
490328
490438
490550
490658
490760
490870
490996
491104
491216
491326
491436
491544
491656
491768
491880
491990
492102
492208
492314
492420
492520
492658
492768
492878
492988
493100
493210
493318
493430
493538
493644
493748
493880
493992
494106
494220
494332
494446
494558
494672
494784
494898
495006
495116
495222
495328
495462
495574
495686
495798
495910
496024
496136
496248
496362
496472
496586
496694
496808
496914
497020
497124
497258
497368
497480
497592
497704
497818
497928
498040
498150
498266
498376
498488
498622
498736
498852
498966
499078
499192
499304
499414
499524
499640
499750
499856
499960
500070
500184
500304
500416
500530
500644
500760
500874
500988
501100
501210
501324
501434
501546
501654
501764
501872
501980
502092
502196
502302
502428
502540
502652
502764
502876
502990
503102
503212
503328
503434
503544
503648
503780
503894
504006
504120
504232
504346
504458
504568
504678
504790
504896
505032
505144
505258
505372
505488
505602
505712
505830
505936
506042
506174
506290
506402
506518
506632
506748
506860
506972
507078
507188
507326
507440
507554
507668
507784
507900
508016
508130
508244
508360
508470
508576
508706
508820
508934
509048
509164
509278
509392
509506
509610
509726
509838
509962
510074
510186
510300
510412
510524
510634
510746
510862
510974
511086
511194
511306
511416
511528
511640
511752
511864
511982
512110
512226
512344
512458
512572
512686
512800
512912
513024
513134
513244
513354
513464
513574
513682
513792
513900
514008
514120
514224
514334
514442
514550
514658
514768
514878
514988
515096
515206
515314
515424
515532
515642
515750
515858
515964
516072
516180
516288
516394
516502
516608
516716
516824
516930
517036
517146
517252
517360
517466
517574
517684
517786
517894
518002
518108
518216
518322
518426
518532
518638
518744
518846
518948
519054
519154
519264
519366
519480
519584
519688
519794
519900
520006
520110
520214
520318
520422
520530
520634
520740
520844
520948
521058
521160
521264
521368
521472
521576
521682
521784
521888
521990
522094
522198
522302
522404
522506
522610
522714
522818
522922
523024
523126
523232
523334
523436
523534
523634
523742
523848
523954
524058
524160
524264
524366
524468
524570
524672
524774
524876
524976
525078
525180
525280
525380
525482
525584
525686
525788
525888
525990
526092
526177
526298
526400
526502
526602
526706
526808
526910
527014
527118
527218
527320
527422
527524
527626
527728
527830
527934
528034
528136
528238
528342
528436
528542
528636
528742
528848
528952
529066
529168
529270
529374
529478
529578
529678
529784
529884
529980
530080
530180
530280
530384
530480
530584
530692
530804
530906
531010
531114
531216
531320
531420
531524
531622
531722
531818
531918
532046
532150
532256
532360
532462
532564
532668
532770
532872
532974
533076
533178
533280
533380
533478
533582
533680
533774
533872
533972
534100
534202
534304
534408
534508
534610
534716
534820
534920
535022
535122
535224
535324
535424
535522
535620
535722
535818
535914
536038
536140
536244
536346
536450
536554
536658
536760
536858
536960
537060
537154
537256
537386
537490
537596
537702
537808
537910
538012
538112
538216
538312
538410
538510
538646
538752
538858
538964
539068
539172
539272
539376
539474
539606
539714
539822
539930
540036
540142
540244
540352
540450
540552
540684
540792
540898
541004
541110
541220
541324
541426
541532
541632
541732
541834
541970
542078
542186
542294
542406
542512
542614
542722
542822
542918
543066
543176
543286
543396
543504
543614
543720
543824
543930
544028
544128
544230
544376
544484
544594
544702
544810
544916
545022
545124
545228
545334
545432
545570
545678
545788
545898
546008
546118
546222
546326
546430
546528
546632
546776
546886
546996
547104
547214
547322
547426
547528
547636
547736
547838
547980
548090
548200
548312
548424
548536
548640
548750
548848
548956
549096
549208
549320
549430
549542
549654
549764
549870
549974
550082
550182
550324
550436
550546
550660
550772
550884
550994
551100
551210
551314
551414
551552
551664
551776
551888
552002
552114
552222
552332
552436
552546
552644
552784
552896
553010
553122
553232
553344
553454
553562
553670
553776
553884
554046
554166
554284
554402
554516
554632
554746
554852
554962
555068
555166
555306
555416
555528
555638
555748
555856
555962
556068
556178
556282
556412
556522
556634
556744
556858
556970
557074
557184
557288
557388
557532
557644
557758
557870
557982
558092
558200
558310
558416
558522
558636
558756
558866
558976
559088
559200
559316
559422
559522
559658
559772
559888
560002
560116
560230
560346
560462
560578
560692
560794
560936
561054
561172
561288
561404
561516
561632
561746
561860
561976
562096
562216
562340
562464
562588
562712
562834
562954
563074
563194
563314
563434
563556
563674
563796
563916
564036
564160
564288
564414
564542
564668
564796
564920
565046
565166
565286
565402
565518
565634
565752
565870
565998
566126
566254
566382
566512
566648
566782
566912
567044
567180
567314
567448
567578
567708
567838
567968
568094
568220
568350
568476
568606
568734
568866
568996
569128
569256
569388
569518
569646
569772
569900
570028
570154
570282
570412
570540
570668
570796
570926
571052
571180
571306
571432
571552
571706
571842
571980
572114
572248
572378
572508
572636
572764
572890
573020
573150
573280
573412
573542
573672
573802
573930
574058
574192
574324
574458
574590
574718
574846
574976
575106
575234
575362
575490
575618
575746
575876
576004
576134
576262
576390
576518
576646
576772
576898
577024
577148
577270
577394
577516
577640
577766
577892
578020
578150
578280
578412
578548
578684
578820
578958
579096
579232
579374
579514
579650
579784
579918
580048
580178
580304
580432
580560
580688
580816
580942
581068
581192
581318
581458
581604
581746
581886
582020
582150
582278
582406
582532
582658
582784
582912
583040
583166
583294
583422
583554
583684
583814
583940
584068
584194
584318
584440
584560
584682
584804
584928
585056
585190
585324
585460
585598
585738
585876
586012
586150
586286
586422
586556
586692
586830
586968
587106
587246
587398
587554
587706
587856
588002
588150
588298
588448
588594
588738
588884
589034
589186
589334
589480
589628
589774
589914
590054
590190
590328
590466
590608
590746
590884
591024
591164
591302
591444
591588
591730
591874
592022
592170
592316
592462
592602
592740
592876
593014
593150
593288
593426
593568
593710
593860
594008
594150
594290
594428
594570
594716
594862
595004
595152
595304
595464
595626
595786
595940
596082
596226
596372
596520
596666
596810
596952
597094
597238
597380
597520
597660
597800
597940
598076
598214
598354
598494
598636
598778
598922
599066
599212
599352
599492
599634
599774
599918
600064
600212
600356
600500
600644
600784
600924
601058
601190
601324
601458
601594
601734
601874
602014
602156
602296
602436
602572
602708
602842
602974
603110
603246
603386
603524
603678
603844
604020
604208
604390
604574
604752
604924
605094
605260
605428
605592
605752
605906
606058
606202
606336
606472
606612
606756
606908
607064
607226
607384
607544
607706
607868
608030
608190
608350
608504
608656
608812
608970
609136
609302
609468
609634
609796
609954
610114
610278
610446
610612
610776
610938
611098
611256
611414
611570
611724
611876
612028
612176
612324
612480
612636
612796
612954
613106
613254
613398
613542
613684
613830
613976
614120
614264
614404
614548
614688
614830
614972
615114
615258
615402
615550
615696
615838
615980
616124
616268
616406
616544
616684
616822
616960
617098
617236
617376
617518
617658
617798
617940
618080
618220
618360
618498
618636
618772
618908
619044
619180
619314
619448
619582
619714
619846
619976
620110
620240
620374
620508
620644
620784
620924
621068
621210
621358
621506
621658
621812
621966
622116
622268
622416
622560
622704
622852
622994
623134
623274
623416
623554
623694
623834
623972
624110
624248
624384
624522
624654
624788
624922
625058
625192
625326
625460
625596
625734
625872
626012
626150
626288
626426
626566
626706
626846
626984
627120
627254
627386
627518
627648
627780
627912
628046
628180
628308
628440
628574
628710
628844
628978
629112
629246
629384
629518
629652
629786
629920
630058
630192
630328
630462
630594
630730
630878
631028
631172
631316
631454
631592
631730
631868
632004
632138
632274
632406
632538
632670
632800
632930
633058
633190
633322
633456
633588
633720
633850
633984
634118
634250
634382
634510
634640
634768
634896
635024
635152
635278
635402
635526
635650
635778
635908
636038
636170
636302
636438
636574
636708
636842
636976
637110
637244
637376
637512
637646
637776
637906
638034
638166
638294
638424
638552
638680
638808
638938
639066
639192
639318
639448
639574
639702
639828
639954
640082
640208
640332
640458
640582
640708
640834
640958
641082
641210
641340
641468
641598
641732
641866
642002
642134
642266
642398
642530
642662
642792
642924
643056
643188
643318
643448
643580
643710
643838
643970
644104
644236
644370
644502
644636
644768
644898
645026
645156
645288
645416
645544
645672
645800
645930
646058
646186
646314
646446
646576
646706
646836
646968
647100
647230
647364
647496
647628
647758
647890
648024
648156
648288
648420
648554
648686
648820
648952
649084
649218
649352
649482
649616
649748
649878
650008
650138
650268
650396
650524
650650
650776
650904
651028
651152
651278
651404
651534
651664
651796
651926
652052
652180
652308
652436
652564
652690
652816
652921
653068
653192
653316
653440
653562
653688
653812
653934
654056
654178
654302
654403
654548
654670
654794
654920
655046
655170
655294
655420
655546
655672
655796
655922
656046
656170
656292
656414
656536
656662
656782
656904
657024
657150
657274
657398
657520
657642
657770
657900
658030
658160
658290
658418
658546
658672
658798
658922
659046
659168
659290
659412
659536
659660
659784
659908
660030
660154
660276
660400
660524
660648
660772
660896
661020
661144
661268
661392
661516
661642
661766
661890
662016
662142
662268
662392
662518
662642
662768
662892
663016
663142
663270
663396
663522
663648
663776
663902
664028
664154
664280
664410
664538
664664
664792
664922
665054
665184
665314
665444
665578
665710
665842
665970
666100
666232
666364
666494
666626
666760
666894
667030
667164
667302
667442
667580
667718
667856
667998
668136
668274
668412
668550
668686
668820
668950
669082
669216
669350
669484
669620
669760
669902
670040
670174
670312
670446
670580
670712
670844
670976
671108
671238
671366
671500
671630
671758
671888
672016
672148
672284
672418
672556
672698
672838
672978
673114
673248
673380
673512
673642
673772
673906
674038
674170
674298
674428
674558
674688
674816
674946
675078
675208
675336
675466
675594
675722
675850
675978
676106
676236
676368
676498
676628
676756
676888
677020
677150
677280
677412
677546
677682
677804
677960
678098
678240
678380
678522
678664
678808
678956
679106
679254
679402
679550
679702
679850
679996
680142
680290
680442
680592
680738
680890
681044
681194
681344
681494
681646
681792
681942
682096
682256
682412
682562
682710
682860
683008
683154
683300
683444
683586
683730
683872
684014
684154
684292
684434
684578
684722
684866
685012
685160
685308
685458
685612
685768
685922
686074
686226
686378
686532
686684
686836
686988
687140
687292
687448
687604
687734
687914
688064
688218
688366
688516
688668
688824
688976
689128
689282
689440
689600
689754
689906
690056
690208
690360
690512
690664
690812
690962
691108
691252
691394
691534
691674
691816
691956
692096
692232
692368
692502
692636
692772
692912
693056
693200
693344
693490
693640
693794
693952
694114
694272
694428
694588
694746
694902
695054
695210
695370
695528
695686
695848
696008
696162
696314
696462
696608
696750
696894
697038
697180
697318
697458
697600
697742
697886
698030
698176
698320
698472
698626
698782
698936
699088
699244
699402
699560
699716
699866
700020
700172
700324
700472
700626
700780
700936
701088
701240
701388
701556
701718
701880
702040
702198
702352
702506
702658
702806
702956
703110
703262
703414
703566
703716
703866
704016
704162
704310
704460
704610
704758
704906
705050
705192
705334
705476
705614
705756
705898
706042
706186
706336
706488
706646
706806
706962
707118
707270
707424
707574
707724
707870
708010
708148
708284
708420
708556
708694
708834
708978
709120
709268
709412
709556
709696
709836
709972
710110
710244
710380
710514
710650
710788
710926
711066
711206
711350
711492
711636
711784
711930
712078
712224
712374
712528
712684
712836
712980
713124
713266
713408
713550
713690
713828
713966
714104
714244
714382
714520
714656
714796
714938
715080
715226
715366
715510
715650
715790
715926
716066
716204
716342
716480
716618
716756
716894
717030
717166
717306
717450
717594
717738
717884
718026
718168
718308
718450
718590
718726
718862
719000
719136
719274
719416
719564
719716
719868
720020
720174
720324
720470
720612
720754
720894
721032
721168
721304
721442
721580
721718
721858
722000
722142
722282
722424
722564
722706
722846
722986
723124
723262
723400
723534
723666
723800
723932
724066
724202
724338
724480
724630
724788
724954
725124
725294
725462
725632
725796
725956
726102
726246
726388
726526
726666
726806
726948
727084
727222
727362
727504
727644
727788
727936
728082
728226
728370
728514
728656
728794
728930
729066
729202
729342
729484
729630
729780
729928
730078
730228
730382
730534
730682
730830
730980
731128
731280
731430
731584
731734
731886
732038
732188
732334
732484
732634
732788
732940
733090
733240
733390
733538
733682
733828
733978
734126
734272
734418
734566
734718
734874
735030
735190
735348
735489
735670
735826
735980
736132
736286
736444
736602
736762
736926
737090
737252
737412
737576
737744
737910
738078
738246
738410
738566
738722
738878
739028
739190
739340
739490
739640
739794
739948
740098
740246
740400
740556
740712
740866
741022
741180
741332
741484
741634
741788
741940
742092
742244
742394
742546
742698
742852
743006
743164
743326
743488
743648
743806
743968
744132
744294
744452
744616
744778
744942
745108
745272
745440
745610
745782
745954
746122
746288
746458
746624
746788
746950
747114
747280
747446
747604
747762
747924
748082
748238
748390
748544
748704
748860
749012
749162
749312
749468
749622
749780
749934
750114
750272
750434
750592
750754
750920
751084
751250
751414
751580
751721
751910
752064
752220
752376
752534
752690
752852
753020
753188
753354
753518
753690
753858
754020
754182
754344
754510
754674
754836
754994
755150
755302
755454
755606
755758
755914
756052
756230
756380
756536
756692
756848
757002
757156
757310
757466
757632
757802
757968
758134
758300
758470
758636
758800
758968
759134
759300
759460
759620
759786
759956
760132
760302
760468
760636
760806
760972
761136
761304
761472
761638
761798
761962
762130
762302
762470
762634
762802
762972
763142
763304
763470
763636
763800
763960
764118
764280
764446
764610
764766
764924
765082
765244
765410
765572
765730
765890
766054
766216
766378
766538
766702
766862
767018
767176
767336
767494
767648
767802
767960
768118
768278
768436
768575
768750
768902
769056
769204
769352
769504
769658
769816
769972
770134
770273
770468
770632
770798
770962
771120
771278
771434
771590
771746
771906
772064
772224
772384
772546
772706
772866
773024
773186
773350
773514
773678
773824
774006
774162
774318
774482
774644
774808
774974
775140
775310
775482
775656
775826
775998
776170
776340
776504
776630
776826
776978
777134
777288
777438
777586
777742
777904
778070
778228
778370
778558
778720
778878
779032
779192
779348
779502
779652
779800
779950
780100
780248
780396
780544
780702
780862
781024
781171
781334
781484
781638
781794
781954
782118
782280
782442
782606
782770
782936
783096
783258
783428
783600
783770
783938
784104
784274
784444
784606
784768
784926
785090
785248
785400
785544
785688
785830
785978
786134
786288
786450
786608
786768
786928
787086
787252
787418
787578
787734
787894
788060
788224
788380
788536
788696
788858
789014
789166
789324
789476
789632
789786
789940
790094
790252
790414
790576
790734
790892
791050
791212
791368
791524
791682
791838
791996
792158
792318
792480
792644
792796
792970
793126
793286
793448
793614
793774
793934
794098
794262
794426
794590
794752
794916
795082
795254
795424
795570
795764
795932
796100
796266
796430
796596
796762
796928
797098
797268
797440
797616
797794
797970
798146
798320
798490
798658
798824
798988
799152
799316
799484
799652
799824
799998
800172
800342
800514
800686
800856
801022
801192
801362
801534
801706
801874
802042
802214
802386
802554
802720
802886
803054
803224
803396
803568
803736
803902
804070
804242
804412
804578
804746
804916
805086
805252
805418
805584
805746
805912
806072
806230
806388
806554
806718
806880
807046
807212
807382
807552
807724
807896
808066
808236
808404
808572
808740
808912
809084
809252
809420
809586
809752
809912
810076
810236
810402
810568
810732
810902
811072
811244
811412
811576
811744
811914
812080
812244
812410
812580
812748
812912
813078
813244
813412
813572
813730
813892
814056
814222
814386
814546
814708
814852
815024
815174
815328
815488
815644
815800
815958
816120
816272
816444
816602
816766
816932
817094
817252
817412
817570
817726
817888
818028
818216
818376
818536
818696
818860
819028
819196
819362
819532
819704
819878
820046
820218
820394
820572
820750
820926
821100
821274
821448
821620
821788
821954
822122
822292
822464
822634
822796
822960
823122
823288
823452
823593
823788
823954
824124
824294
824464
824632
824804
824976
825146
825310
825474
825636
825774
825950
826104
826241
826410
826556
826704
826872
827040
827210
827382
827550
827714
827874
828017
828194
828348
828502
828654
828804
828954
829102
829250
829398
829544
829688
829832
829972
830112
830252
830390
830526
830662
830796
830932
831064
831198
831330
831466
831602
831738
831878
832018
832162
832310
832464
832616
832776
832936
833094
833250
833408
833564
833722
833876
834026
834176
834328
834484
834638
834798
834960
835128
835292
835456
835600
835786
835946
836104
836260
836414
836562
836708
836858
837008
837164
837328
837494
837656
837822
837990
838156
838322
838490
838658
838824
838990
839154
839320
839488
839654
839822
839988
840156
840324
840494
840658
840804
840990
841156
841320
841484
841652
841820
841960
842160
842332
842506
842680
842858
843034
843210
843384
843558
843732
843906
844078
844250
844422
844592
844760
844926
845088
845250
845410
845570
845730
845888
846044
846200
846358
846514
846672
846832
846998
847162
847330
847502
847676
847852
848004
848194
848362
848530
848700
848870
849038
849206
849376
849550
849722
849894
850064
850232
850400
850564
850724
850884
851044
851204
851366
851528
851692
851860
852030
852202
852374
852548
852722
852900
853076
853254
853430
853610
853788
853964
854142
854322
854498
854672
854848
855026
855206
855386
855564
855740
855916
856092
856266
856442
856612
856784
856954
857126
857296
857464
857632
857794
857952
858108
858266
858426
858594
858764
858940
859120
859302
859484
859640
859842
860022
860204
860386
860566
860742
860916
861086
861256
861424
861588
861754
861922
862092
862262
862434
862606
862788
862939
863154
863336
863520
863704
863882
864062
864242
864418
864594
864770
864946
865122
865304
865488
865676
865868
866064
866260
866454
866648
866836
867020
867206
867390
867572
867758
867940
868120
868300
868480
868658
868834
869012
869166
869362
869536
869714
869867
870064
870242
870424
870608
870794
870984
871172
871356
871536
871704
871872
872042
872210
872386
872568
872719
872934
873114
873296
873476
873652
873828
874004
874182
874360
874516
874718
874894
875070
875246
875422
875596
875770
875948
876128
876310
876492
876682
876872
877062
877256
877454
877652
877850
878048
878244
878440
878636
878830
879020
879214
879408
879600
879790
879980
880172
880368
880564
880758
880954
881150
881346
881540
881730
881918
882106
882288
882468
882650
882832
883016
883202
883390
883576
883762
883948
884132
884316
884494
884672
884850
885024
885196
885370
885544
885716
885886
886054
886218
886382
886544
886708
886874
887038
887202
887368
887536
887704
887874
888042
888212
888380
888548
888720
888892
889064
889238
889412
889584
889756
889932
890104
890272
890440
890616
890796
890984
891176
891374
891576
891774
891970
892166
892360
892550
892738
892924
893106
893292
893476
893658
893842
894030
894216
894406
894598
894788
894978
895174
895368
895564
895756
895944
896128
896310
896492
896674
896858
897042
897224
897408
897594
897778
897962
898150
898334
898512
898690
898864
899038
899212
899388
899564
899744
899928
900116
900300
900486
900670
900848
901022
901194
901362
901530
901700
901870
902040
902212
902388
902570
902732
902938
903122
903314
903508
903702
903898
904096
904290
904482
904672
904866
905056
905246
905436
905620
905800
905974
906142
906308
906472
906632
906792
906954
907118
907286
907458
907632
907810
907982
908152
908320
908492
908668
908852
909036
909222
909408
909592
909772
909950
910124
910300
910474
910652
910836
911030
911228
911420
911614
911808
912000
912192
912382
912574
912764
912954
913136
913318
913494
913672
913848
914020
914192
914366
914540
914718
914898
915082
915266
915446
915616
915786
915960
916140
916332
916522
916712
916898
917086
917274
917458
917640
917822
918000
918176
918350
918524
918692
918856
919022
919182
919338
919502
919672
919848
920030
920214
920402
920590
920780
920972
921164
921356
921550
921740
921928
922114
922300
922446
922668
922846
923026
923208
923388
923568
923750
923932
924114
924296
924480
924662
924846
925032
925220
925400
925596
925782
925966
926148
926320
926488
926654
926818
926986
927164
927354
927548
927748
927950
928150
928354
928558
928756
928950
929144
929340
929532
929726
929912
930100
930288
930470
930648
930826
931002
931178
931352
931524
931694
931864
932034
932200
932364
932528
932698
932872
933046
933224
933404
933582
933766
933954
934144
934336
934530
934722
934912
935104
935294
935486
935676
935866
936056
936246
936434
936622
936814
937008
937198
937388
937578
937764
937950
938095
938322
938504
938684
938862
939040
939220
939402
939582
939764
939944
940122
940300
940478
940654
940832
941012
941188
941360
941532
941706
941878
942050
942226
942402
942578
942752
942928
943106
943282
943458
943636
943818
944006
944186
944368
944552
944715
944916
945092
945270
945448
945622
945798
945970
946146
946324
946496
946668
946842
947014
947182
947346
947506
947662
947812
947962
948118
948276
948438
948610
948790
948968
949144
949324
949504
949684
949864
950046
950226
950404
950580
950758
950936
951116
951294
951472
951656
951838
952016
952194
952374
952556
952734
952914
953086
953258
953432
953602
953770
953940
954112
954282
954452
954624
954800
954976
955152
955332
955512
955688
955862
956032
956202
956370
956540
956706
956870
957036
957214
957390
957568
957750
957932
958118
958310
958506
958702
958898
959092
959282
959472
959656
959838
960022
960206
960386
960566
960748
960928
961110
961292
961476
961658
961842
962020
962196
962376
962554
962730
962908
963090
963272
963452
963636
963818
963996
964176
964354
964532
964712
964896
965080
965264
965452
965622
965822
966002
966184
966362
966540
966718
966896
967076
967260
967444
967628
967812
967998
968182
968364
968550
968730
968912
969092
969266
969436
969606
969774
969938
970102
970266
970430
970594
970760
970922
971080
971232
971386
971540
971698
971866
972036
972214
972394
972574
972754
972932
973110
973288
973468
973648
973832
974014
974200
974386
974572
974758
974946
975136
975326
975518
975706
975874
976092
976282
976470
976623
976848
977028
977216
977379
977586
977768
977952
978134
978314
978496
978682
978870
979056
979244
979434
979624
979806
980004
980192
980378
980564
980748
980934
981116
981300
981490
981670
981870
982060
982250
982442
982634
982826
983018
983212
983402
983547
983784
983970
984156
984344
984536
984728
984888
985114
985304
985496
985688
985880
986076
986280
986484
986684
986888
987092
987294
987496
987694
987890
988078
988264
988450
988638
988826
989010
989198
989366
989570
989750
989930
990110
990288
990470
990646
990826
991030
991222
991414
991606
991796
991984
992172
992332
992546
992732
992916
993075
993284
993464
993644
993828
994012
994196
994366
994572
994758
994946
995138
995328
995520
995710
995902
996098
996292
996486
996678
996868
997058
997250
997438
997626
997814
997974
998194
998378
998564
998738
998934
999116
999306
999468
999698
999888
1000082
1000278
1000406
1000654
1000834
1001006
1001172
1001346
1001524
1001710
1001906
1002106
1002304
1002506
1002714
1002914
1003110
1003310
1003510
1003700
1003892
1004062
1004272
1004452
1004634
1004818
1005002
1005186
1005370
1005562
1005758
1005952
1006154
1006360
1006562
1006760
1006962
1007162
1007356
1007550
1007748
1007946
1008136
1008326
1008516
1008706
1008866
1009086
1009274
1009466
1009652
1009838
1010028
1010210
1010408
1010598
1010790
1010986
1011182
1011376
1011570
1011768
1011960
1012152
1012348
1012540
1012728
1012914
1013102
1013290
1013476
1013664
1013852
1014042
1014230
1014420
1014616
1014814
1015010
1015204
1015400
1015594
1015782
1015970
1016158
1016350
1016538
1016728
1016892
1017114
1017302
1017488
1017634
1017870
1018054
1018238
1018426
1018614
1018802
1018992
1019184
1019380
1019576
1019768
1019954
1020128
1020314
1020484
1020654
1020824
1020996
1021170
1021350
1021526
1021706
1021890
1022076
1022262
1022450
1022640
1022828
1022991
1023206
1023394
1023584
1023774
1023962
1024150
1024344
1024534
1024722
1024916
1025106
1025302
1025494
1025684
1025874
1026068
1026264
1026454
1026648
1026840
1027028
1027174
1027404
1027590
1027776
1027964
1028150
1028338
1028532
1028732
1028926
1029124
1029322
1029524
1029726
1029854
1030128
1030326
1030516
1030704
1030896
1031088
1031280
1031470
1031664
1031858
1032050
1032240
1032434
1032634
1032826
1033020
1033216
1033412
1033604
1033796
1033984
1034172
1034362
1034508
1034748
1034936
1035126
1035318
1035508
1035698
1035888
1036082
1036280
1036476
1036678
1036880
1037076
1037268
1037458
1037644
1037826
1038008
1038190
1038372
1038556
1038738
1038914
1039098
1039298
1039494
1039682
1039868
1040054
1040238
1040424
1040604
1040784
1040962
1041138
1041310
1041484
1041664
1041842
1042028
1042216
1042404
1042577
1042790
1042982
1043174
1043360
1043540
1043714
1043888
1044058
1044226
1044394
1044560
1044728
1044896
1045070
1045250
1045432
1045618
1045806
1046000
1046198
1046400
1046600
1046802
1047006
1047204
1047408
1047610
1047808
1048002
1048200
1048394
1048590
1048786
1048980
1049176
1049376
1049570
1049760
1049956
1050154
1050354
1050552
1050748
1050946
1051142
1051338
1051538
1051738
1051936
1052130
1052326
1052518
1052710
1052902
1053094
1053256
1053480
1053664
1053848
1054036
1054228
1054422
1054622
1054820
1055014
1055206
1055404
1055596
1055776
1055954
1056132
1056314
1056500
1056690
1056884
1057082
1057284
1057486
1057692
1057896
1058098
1058296
1058494
1058684
1058874
1059058
1059242
1059432
1059624
1059818
1059934
1060212
1060408
1060602
1060800
1060998
1061198
1061396
1061592
1061788
1061982
1062180
1062390
1062600
1062804
1063008
1063210
1063408
1063608
1063808
1064012
1064218
1064420
1064624
1064830
1065034
1065236
1065434
1065632
1065832
1066034
1066228
1066420
1066608
1066792
1066976
1067138
1067350
1067528
1067712
1067892
1068072
1068256
1068442
1068630
1068822
1069020
1069220
1069420
1069626
1069836
1070044
1070254
1070458
1070664
1070870
1071068
1071270
1071470
1071602
1071866
1072064
1072262
1072468
1072678
1072886
1073094
1073296
1073498
1073702
1073902
1074034
1074296
1074488
1074672
1074858
1075042
1075224
1075410
1075596
1075788
1075982
1076184
1076388
1076594
1076796
1076998
1077200
1077394
1077584
1077768
1077950
1078128
1078308
1078488
1078674
1078864
1079054
1079228
1079428
1079616
1079802
1079986
1080168
1080348
1080528
1080710
1080888
1081066
1081244
1081430
1081610
1081796
1081988
1082184
1082382
1082580
1082772
1082962
1083148
1083328
1083508
1083686
1083866
1084042
1084216
1084390
1084554
1084716
1084874
1085038
1085204
1085372
1085546
1085722
1085896
1086076
1086260
1086444
1086626
1086808
1086990
1087168
1087348
1087528
1087706
1087892
1088080
1088266
1088454
1088646
1088838
1089024
1089196
1089402
1089592
1089782
1089942
1090158
1090342
1090526
1090708
1090888
1091074
1091278
1091494
1091716
1091942
1092164
1092382
1092588
1092792
1092986
1093176
1093348
1093544
1093724
1093906
1094086
1094272
1094462
1094628
1094868
1095066
1095272
1095480
1095690
1095898
1096110
1096320
1096520
1096720
1096916
1097110
1097302
1097494
1097680
1097870
1098060
1098252
1098442
1098638
1098836
1099030
1099228
1099428
1099628
1099826
1100024
1100220
1100420
1100616
1100810
1101004
1101168
1101378
1101566
1101756
1101940
1102126
1102306
1102484
1102662
1102838
1103010
1103180
1103346
1103510
1103670
1103830
1103988
1104144
1104306
1104480
1104666
1104854
1105040
1105226
1105418
1105608
1105802
1105990
1106180
1106368
1106554
1106742
1106940
1107142
1107352
1107564
1107780
1108004
1108224
1108442
1108646
1108856
1109062
1109270
1109466
1109662
1109856
1110024
1110240
1110426
1110616
1110800
1110982
1111170
1111362
1111556
1111754
1111950
1112146
1112344
1112508
1112724
1112910
1113094
1113278
1113458
1113638
1113822
1114008
1114204
1114402
1114604
1114804
1114994
1115178
1115356
1115536
1115722
1115918
1116114
1116316
1116522
1116732
1116938
1117150
1117356
1117556
1117754
1117948
1118134
1118320
1118508
1118696
1118888
1119078
1119272
1119434
1119668
1119860
1120052
1120214
1120428
1120614
1120804
1120994
1121186
1121380
1121570
1121760
1121954
1122118
1122350
1122538
1122722
1122914
1123114
1123314
1123512
1123714
1123916
1124114
1124310
1124508
1124698
1124894
1125086
1125244
1125484
1125674
1125858
1126046
1126232
1126422
1126612
1126806
1126998
1127158
1127388
1127576
1127768
1127958
1128150
1128342
1128536
1128726
1128920
1129084
1129316
1129508
1129694
1129880
1130068
1130256
1130442
1130632
1130828
1130992
1131226
1131418
1131610
1131798
1131988
1132176
1132364
1132552
1132746
1132944
1133146
1133350
1133548
1133746
1133948
1134144
1134338
1134520
1134694
1134866
1135042
1135220
1135396
1135580
1135770
1135966
1136166
1136364
1136562
1136756
1136950
1137144
1137340
1137534
1137722
1137916
1138074
1138312
1138508
1138702
1138890
1139082
1139274
1139464
1139654
1139846
1140038
1140224
1140412
1140590
1140788
1140976
1141166
1141313
1141548
1141734
1141918
1142100
1142274
1142448
1142624
1142796
1142970
1143144
1143322
1143498
1143676
1143856
1144038
1144220
1144400
1144578
1144756
1144934
1145114
1145292
1145464
1145636
1145806
1145972
1146136
1146302
1146464
1146628
1146792
1146958
1147128
1147302
1147480
1147660
1147844
1148028
1148212
1148394
1148574
1148752
1148932
1149110
1149286
1149460
1149634
1149814
1149996
1150180
1150364
1150550
1150736
1150928
1151122
1151312
1151504
1151692
1151874
1152052
1152236
1152416
1152598
1152782
1152962
1153136
1153306
1153496
1153694
1153898
1154106
1154308
1154500
1154692
1154884
1155046
1155268
1155454
1155636
1155812
1155980
1156142
1156306
1156478
1156654
1156836
1157022
1157216
1157414
1157616
1157816
1158014
1158210
1158400
1158586
1158770
1158956
1159140
1159328
1159516
1159704
1159890
1160072
1160256
1160438
1160618
1160802
1160996
1161190
1161392
1161522
1161800
1161996
1162188
1162386
1162582
1162780
1162978
1163174
1163368
1163560
1163750
1163884
1164126
1164312
1164498
1164686
1164876
1165066
1165262
1165462
1165666
1165876
1166086
1166298
1166522
1166744
1166966
1167186
1167400
1167606
1167804
1168002
1168198
1168394
1168586
1168776
1168968
1169160
1169354
1169548
1169738
1169924
1170110
1170294
1170476
1170666
1170856
1171048
1171240
1171438
1171638
1171842
1172044
1172242
1172440
1172640
1172836
1173032
1173224
1173382
1173600
1173778
1173954
1174128
1174308
1174494
1174684
1174882
1175084
1175290
1175500
1175712
1175922
1176132
1176248
1176530
1176726
1176924
1177124
1177326
1177520
1177714
1177914
1178112
1178314
1178516
1178708
1178894
1179080
1179266
1179452
1179644
1179838
1180034
1180234
1180436
1180642
1180842
1181040
1181242
1181448
1181646
1181836
1182020
1182198
1182370
1182538
1182710
1182890
1183070
1183256
1183452
1183656
1183866
1184076
1184286
1184492
1184690
1184880
1185072
1185260
1185452
1185642
1185832
1186022
1186186
1186396
1186586
1186784
1186980
1187111
1187374
1187564
1187748
1187928
1188102
1188278
1188460
1188648
1188840
1189036
1189228
1189412
1189590
1189772
1189954
1190136
1190322
1190504
1190684
1190862
1191036
1191208
1191376
1191544
1191710
1191876
1192044
1192216
1192388
1192568
1192750
1192932
1193116
1193298
1193478
1193656
1193832
1194006
1194178
1194348
1194522
1194694
1194870
1195050
1195230
1195412
1195592
1195774
1195956
1196144
1196332
1196520
1196708
1196896
1197082
1197262
1197442
1197622
1197804
1197986
1198170
1198352
1198536
1198716
1198892
1199068
1199248
1199426
1199604
1199784
1199970
1200158
1200346
1200538
1200724
1200906
1201084
1201258
1201432
1201608
1201782
1201954
1202126
1202294
1202464
1202644
1202836
1203032
1203228
1203432
1203638
1203848
1204052
1204250
1204442
1204622
1204796
1204962
1205128
1205294
1205466
1205642
1205822
1206000
1206182
1206364
1206546
1206720
1206904
1207086
1207268
1207452
1207632
1207814
1208000
1208190
1208384
1208576
1208770
1208962
1209154
1209342
1209534
1209696
1209932
1210124
1210316
1210463
1210696
1210878
1211062
1211244
1211426
1211612
1211800
1211992
1212192
1212388
1212578
1212770
1212962
1213154
1213338
1213518
1213692
1213860
1214028
1214202
1214384
1214584
1214794
1215002
1215208
1215416
1215620
1215822
1216018
1216212
1216378
1216594
1216778
1216960
1217148
1217342
1217536
1217736
1217944
1218154
1218368
1218572
1218770
1218978
1219182
1219384
1219588
1219786
1219982
1220182
1220380
1220576
1220768
1220956
1221136
1221312
1221486
1221664
1221848
1222042
1222240
1222442
1222646
1222848
1223054
1223256
1223458
1223662
1223856
1224048
1224244
1224440
1224598
1224836
1225022
1225208
1225394
1225582
1225764
1225948
1226138
1226330
1226494
1226736
1226928
1227120
1227310
1227498
1227690
1227882
1228078
1228278
1228476
1228676
1228876
1229072
1229262
1229452
1229642
1229830
1230014
1230202
1230386
1230572
1230756
1230940
1231126
1231310
1231494
1231676
1231862
1232048
1232232
1232420
1232610
1232798
1232984
1233174
1233364
1233550
1233738
1233926
1234114
1234304
1234488
1234670
1234850
1235028
1235204
1235380
1235556
1235730
1235902
1236072
1236240
1236406
1236572
1236742
1236912
1237082
1237254
1237426
1237600
1237772
1237942
1238108
1238278
1238446
1238614
1238776
1238936
1239098
1239260
1239428
1239602
1239780
1239964
1240146
1240328
1240510
1240696
1240886
1241072
1241262
1241460
1241654
1241850
1242024
1242238
1242426
1242608
1242788
1242966
1243146
1243332
1243520
1243710
1243902
1244094
1244284
1244474
1244662
1244852
1245042
1245226
1245414
1245602
1245790
1245976
1246158
1246332
1246498
1246662
1246826
1246996
1247168
1247348
1247536
1247726
1247918
1248112
1248302
1248492
1248680
1248868
1249054
1249242
1249432
1249624
1249816
1250008
1250200
1250400
1250566
1250804
1251000
1251190
1251380
1251570
1251760
1251948
1252136
1252316
1252490
1252662
1252830
1252999
1253170
1253340
1253514
1253688
1253860
1254050
1254236
1254424
1254616
1254812
1255004
1255204
1255400
1255592
1255788
1255982
1256170
1256360
1256544
1256730
1256912
1257094
1257276
1257460
1257644
1257828
1258010
1258190
1258368
1258546
1258724
1258900
1259076
1259254
1259430
1259608
1259786
1259964
1260140
1260320
1260504
1260686
1260866
1261054
1261244
1261430
1261618
1261810
1262002
1262198
1262384
1262584
1262776
1262970
1263146
1263350
1263542
1263734
1263896
1264120
1264310
1264502
1264694
1264888
1265084
1265288
1265484
1265686
1265896
1266100
1266302
1266512
1266722
1266926
1267130
1267334
1267536
1267734
1267932
1268122
1268304
1268478
1268648
1268824
1269006
1269190
1269376
1269578
1269692
1269980
1270172
1270364
1270554
1270734
1270906
1271070
1271236
1271406
1271588
1271776
1271966
1272160
1272364
1272568
1272762
1272964
1273164
1273362
1273550
1273730
1273912
1274102
1274296
1274494
1274692
1274892
1275092
1275298
1275508
1275720
1275936
1276150
1276358
1276556
1276748
1276984
1277192
1277392
1277584
1277770
1277952
1278130
1278304
1278474
1278644
1278824
1279016
1279220
1279426
1279644
1279862
1280082
1280302
1280518
1280734
1280948
1281160
1281372
1281580
1281786
1281998
1282206
1282410
1282618
1282820
1283024
1283228
1283436
1283648
1283856
1284066
1284278
1284482
1284684
1284884
1285088
1285290
1285490
1285688
1285892
1286094
1286292
1286492
1286698
1286900
1287100
1287296
1287488
1287672
1287858
1288044
1288220
1288390
1288566
1288744
1288924
1289118
1289312
1289504
1289704
1289900
1290096
1290274
1290486
1290678
1290870
1291060
1291248
1291442
1291640
1291838
1292034
1292234
1292434
1292634
1292830
1293026
1293228
1293424
1293618
1293812
1294006
1294198
1294388
1294578
1294768
1294964
1295160
1295354
1295554
1295754
1295954
1296152
1296350
1296548
1296750
1296946
1297142
1297342
1297508
1297744
1297942
1298138
1298336
1298530
1298732
1298932
1299059
1299338
1299536
1299738
1299940
1300138
1300340
1300546
1300758
1300966
1301176
1301390
1301602
1301808
1302012
1302220
1302424
1302624
1302830
1303034
1303232
1303430
1303630
1303832
1304030
1304224
1304414
1304602
1304792
1304976
1305162
1305350
1305532
1305708
1305878
1306044
1306216
1306394
1306578
1306766
1306954
1307150
1307350
1307534
1307740
1307932
1308124
1308308
1308492
1308676
1308860
1309044
1309226
1309410
1309594
1309784
1309974
1310164
1310354
1310550
1310744
1310936
1311136
1311322
1311546
1311746
1311948
1312146
1312344
1312540
1312738
1312938
1313136
1313336
1313534
1313736
1313942
1314148
1314356
1314554
1314756
1314956
1315154
1315352
1315552
1315754
1315952
1316148
1316350
1316552
1316752
1316960
1317168
1317372
1317574
1317774
1317970
1318162
1318350
1318540
1318736
1318926
1319116
1319312
1319510
1319706
1319884
1320110
1320314
1320518
1320722
1320928
1321142
1321358
1321570
1321794
1322024
1322258
1322498
1322730
1322968
1323200
1323424
1323648
1323870
1324090
1324312
1324530
1324742
1324952
1325162
1325372
1325578
1325788
1326000
1326210
1326416
1326626
1326824
1327018
1327210
1327376
1327590
1327778
1327968
1328162
1328360
1328556
1328758
1328964
1329172
1329378
1329594
1329810
1330026
1330240
1330452
1330662
1330872
1331078
1331284
1331496
1331706
1331916
1332122
1332332
1332542
1332744
1332944
1333150
1333356
1333556
1333758
1333964
1334166
1334370
1334564
1334766
1334968
1335170
1335370
1335568
1335766
1335964
1336160
1336354
1336548
1336742
1336938
1337136
1337338
1337540
1337742
1337948
1338148
1338346
1338548
1338748
1338948
1339148
1339348
1339550
1339750
1339946
1340146
1340344
1340538
1340728
1340922
1341098
1341308
1341496
1341678
1341860
1342038
1342212
1342382
1342556
1342730
1342906
1343084
1343272
1343468
1343656
1343840
1344022
1344196
1344366
1344536
1344704
1344882
1345062
1345246
1345428
1345618
1345808
1345994
1346184
1346372
1346558
1346744
1346930
1347118
1347312
1347504
1347696
1347894
1348094
1348290
1348488
1348690
1348892
1349088
1349292
1349500
1349702
1349908
1350114
1350326
1350534
1350740
1350952
1351160
1351364
1351572
1351776
1351980
1352180
1352384
1352590
1352794
1352998
1353208
1353420
1353624
1353826
1354036
1354242
1354446
1354652
1354862
1355070
1355274
1355480
1355686
1355890
1356092
1356296
1356504
1356708
1356914
1357120
1357326
1357534
1357742
1357950
1358164
1358370
1358576
1358790
1359002
1359210
1359426
1359640
1359854
1360066
1360187
1360502
1360708
1360918
1361128
1361330
1361530
1361740
1361950
1362162
1362372
1362586
1362798
1363008
1363222
1363438
1363648
1363862
1364078
1364292
1364504
1364722
1364938
1365148
1365364
1365584
1365802
1366014
1366228
1366442
1366652
1366866
1367080
1367286
1367492
1367700
1367912
1368116
1368326
1368532
1368740
1368948
1369154
1369366
1369582
1369792
1370006
1370224
1370438
1370656
1370876
1371094
1371306
1371518
1371736
1371950
1372152
1372342
1372550
1372754
1372952
1373154
1373354
1373552
1373742
1373928
1374114
1374298
1374486
1374680
1374878
1375072
1375262
1375454
1375638
1375824
1376012
1376202
1376390
1376580
1376766
1376954
1377142
1377332
1377520
1377710
1377896
1378082
1378266
1378452
1378638
1378828
1379022
1379216
1379406
1379598
1379782
1379956
1380128
1380296
1380466
1380642
1380822
1381004
1381186
1381376
1381564
1381758
1381954
1382150
1382346
1382536
1382726
1382918
1383108
1383296
1383482
1383674
1383866
1384060
1384256
1384448
1384636
1384826
1385016
1385202
1385384
1385564
1385742
1385916
1386086
1386254
1386422
1386588
1386750
1386910
1387070
1387236
1387394
1387600
1387784
1387974
1388166
1388360
1388556
1388758
1388968
1389176
1389392
1389608
1389818
1390022
1390226
1390428
1390632
1390836
1391036
1391238
1391442
1391644
1391850
1392062
1392274
1392486
1392704
1392922
1393138
1393350
1393560
1393770
1393978
1394182
1394390
1394592
1394794
1394992
1395184
1395372
1395562
1395748
1395930
1396118
1396310
1396502
1396694
1396884
1397074
1397268
1397458
1397646
1397836
1398024
1398210
1398396
1398586
1398778
1398970
1399164
1399356
1399552
1399756
1399958
1400160
1400358
1400552
1400744
1400940
1401132
1401320
1401506
1401690
1401872
1402054
1402236
1402414
1402594
1402774
1402954
1403142
1403340
1403542
1403744
1403944
1404142
1404340
1404538
1404700
1404920
1405106
1405282
1405456
1405628
1405800
1405968
1406132
1406302
1406474
1406642
1406808
1406974
1407138
1407283
1407486
1407664
1407846
1408032
1408224
1408416
1408610
1408812
1409012
1409216
1409412
1409612
1409814
1410016
1410146
1410414
1410606
1410792
1410980
1411166
1411334
1411542
1411726
1411904
1412080
1412264
1412456
1412656
1412860
1413064
1413276
1413490
1413700
1413910
1414116
1414322
1414522
1414722
1414918
1415116
1415318
1415462
1415716
1415918
1416120
1416322
1416526
1416734
1416944
1417160
1417378
1417600
1417818
1418042
1418266
1418488
1418706
1418924
1419140
1419358
1419572
1419786
1420002
1420212
1420416
1420617
1420808
1421001
1421186
1421374
1421560
1421711
1421930
1422110
1422288
1422464
1422638
1422808
1422978
1423144
1423308
1423472
1423632
1423796
1423956
1424118
1424280
1424440
1424602
1424764
1424924
1425084
1425244
1425404
1425566
1425726
1425886
1426050
1426212
1426382
1426556
1426728
1426900
1427074
1427244
1427416
1427586
1427746
1427910
1428066
1428220
1428376
1428526
1428678
1428826
1428976
1429126
1429280
1429430
1429576
1429722
1429866
1430018
1430170
1430324
1430480
1430636
1430798
1430968
1431140
1431320
1431502
1431688
1431874
1432066
1432256
1432448
1432640
1432828
1433012
1433202
1433392
1433578
1433762
1433942
1434114
1434282
1434452
1434630
1434818
1435004
1435192
1435388
1435580
1435768
1435966
1436164
1436360
1436556
1436742
1436930
1437102
1437304
1437488
1437672
1437852
1438032
1438216
1438402
1438590
1438774
1438964
1439152
1439336
1439524
1439712
1439898
1440090
1440252
1440480
1440674
1440870
1441062
1441220
1441446
1441634
1441824
1442014
1442200
1442384
1442572
1442762
1442950
1443146
1443310
1443548
1443744
1443932
1444092
1444316
1444506
1444702
1444896
1445076
1445286
1445478
1445678
1445878
1446080
1446280
1446480
1446678
1446876
1447072
1447268
1447462
1447650
1447832
1448016
1448200
1448378
1448552
1448724
1448890
1449029
1449212
1449372
1449538
1449712
1449890
1450068
1450252
1450442
1450630
1450812
1451006
1451196
1451388
1451584
1451756
1451978
1452168
1452352
1452536
1452714
1452882
1453046
1453214
1453384
1453556
1453732
1453910
1454096
1454280
1454470
1454658
1454848
1455044
1455236
1455432
1455630
1455828
1456022
1456216
1456414
1456616
1456822
1457028
1457236
1457446
1457658
1457868
1458086
1458298
1458504
1458712
1458916
1459120
1459318
1459518
1459720
1459918
1460110
1460304
1460498
1460686
1460874
1461062
1461244
1461424
1461606
1461784
1461958
1462132
1462310
1462490
1462674
1462866
1463064
1463262
1463464
1463664
1463780
1464072
1464274
1464474
1464676
1464880
1465086
1465292
1465500
1465714
1465930
1466150
1466366
1466588
1466808
1467024
1467240
1467458
1467664
1467868
1468076
1468278
1468476
1468676
1468880
1469076
1469276
1469474
1469668
1469856
1470030
1470242
1470434
1470632
1470834
1471038
1471244
1471456
1471664
1471862
1472062
1472262
1472456
1472646
1472834
1473026
1473212
1473400
1473592
1473778
1473968
1474162
1474356
1474554
1474758
1474962
1475166
1475376
1475592
1475810
1476034
1476254
1476474
1476690
1476908
1477122
1477336
1477550
1477762
1477974
1478190
1478398
1478608
1478824
1479030
1479224
1479408
1479588
1479776
1479972
1480172
1480370
1480576
1480788
1480992
1481204
1481420
1481628
1481836
1482044
1482254
1482458
1482666
1482880
1483094
1483302
1483510
1483726
1483934
1484144
1484356
1484560
1484768
1484980
1485188
1485402
1485618
1485830
1486042
1486256
1486472
1486680
1486892
1487106
1487316
1487524
1487734
1487944
1488148
1488358
1488572
1488780
1488990
1489206
1489422
1489632
1489846
1490058
1490260
1490464
1490672
1490882
1491088
1491300
1491518
1491736
1491952
1492172
1492394
1492614
1492832
1493052
1493272
1493488
1493706
1493922
1494128
1494336
1494542
1494750
1494958
1495162
1495372
1495588
1495800
1496014
1496228
1496438
1496654
1496870
1497084
1497294
1497502
1497706
1497912
1498110
1498308
1498510
1498714
1498914
1499118
1499324
1499526
1499728
1499928
1500130
1500336
1500538
1500746
1500950
1501150
1501352
1501552
1501746
1501940
1502138
1502334
1502532
1502730
1502934
1503146
1503358
1503564
1503776
1503992
1504206
1504418
1504628
1504836
1505050
1505262
1505482
1505698
1505910
1506126
1506348
1506570
1506788
1507006
1507222
1507442
1507658
1507868
1508080
1508290
1508496
1508706
1508920
1509140
1509352
1509566
1509782
1509996
1510210
1510430
1510650
1510864
1511082
1511302
1511526
1511750
1511962
1512178
1512392
1512524
1512812
1513018
1513220
1513426
1513628
1513834
1514042
1514254
1514474
1514700
1514912
1515126
1515342
1515556
1515764
1515974
1516184
1516396
1516602
1516812
1517024
1517234
1517440
1517646
1517852
1518058
1518264
1518466
1518670
1518878
1519090
1519298
1519506
1519714
1519924
1520130
1520336
1520540
1520732
1520922
1521134
1521342
1521550
1521750
1521938
1522118
1522302
1522492
1522684
1522890
1523098
1523308
1523520
1523730
1523944
1524152
1524358
1524566
1524776
1524984
1525192
1525402
1525610
1525822
1526034
1526242
1526444
1526644
1526842
1527036
1527232
1527430
1527634
1527834
1528028
1528228
1528428
1528624
1528816
1529010
1529206
1529400
1529592
1529786
1529984
1530182
1530380
1530580
1530782
1530982
1531182
1531384
1531588
1531790
1531988
1532190
1532396
1532600
1532804
1533014
1533218
1533418
1533622
1533828
1534026
1534226
1534428
1534632
1534832
1535032
1535230
1535426
1535618
1535812
1535970
1536216
1536410
1536610
1536810
1537008
1537206
1537402
1537596
1537756
1537982
1538172
1538366
1538554
1538742
1538930
1539110
1539284
1539456
1539634
1539816
1540002
1540198
1540388
1540584
1540784
1540950
1541174
1541366
1541556
1541742
1541928
1542114
1542308
1542506
1542657
1542894
1543086
1543278
1543466
1543658
1543854
1544048
1544240
1544440
1544642
1544840
1545034
1545212
1545438
1545634
1545826
1546022
1546222
1546412
1546594
1546776
1546956
1547130
1547300
1547468
1547636
1547802
1547968
1548134
1548298
1548464
1548611
1548788
1548946
1549106
1549262
1549418
1549578
1549740
1549902
1550060
1550220
1550380
1550540
1550702
1550868
1551036
1551204
1551376
1551550
1551730
1551918
1552104
1552290
1552476
1552656
1552832
1553004
1553176
1553346
1553510
1553666
1553844
1554008
1554174
1554344
1554520
1554696
1554866
1555038
1555208
1555378
1555548
1555720
1555892
1556070
1556250
1556424
1556602
1556784
1556964
1557144
1557330
1557518
1557702
1557884
1558070
1558256
1558434
1558610
1558788
1558966
1559144
1559318
1559494
1559670
1559846
1560018
1560190
1560368
1560542
1560714
1560886
1561060
1561234
1561408
1561586
1561764
1561936
1562110
1562282
1562452
1562622
1562790
1562964
1563142
1563320
1563498
1563678
1563862
1564044
1564220
1564400
1564584
1564766
1564946
1565130
1565314
1565504
1565688
1565872
1566060
1566244
1566428
1566606
1566786
1566966
1567144
1567318
1567496
1567676
1567854
1568030
1568204
1568378
1568548
1568716
1568882
1569034
1569222
1569388
1569554
1569716
1569872
1570024
1570178
1570338
1570504
1570680
1570862
1571046
1571234
1571428
1571630
1571824
1572016
1572214
1572406
1572594
1572780
1572966
1573150
1573336
1573520
1573708
1573896
1574080
1574264
1574452
1574646
1574832
1575016
1575204
1575390
1575568
1575746
1575926
1576100
1576272
1576442
1576614
1576790
1576968
1577146
1577326
1577508
1577690
1577868
1578052
1578219
1578432
1578616
1578806
1578996
1579182
1579368
1579558
1579752
1579938
1580122
1580306
1580486
1580638
1580836
1581010
1581190
1581370
1581546
1581724
1581908
1582090
1582268
1582448
1582626
1582804
1582980
1583154
1583326
1583504
1583680
1583852
1584026
1584206
1584382
1584558
1584734
1584914
1585090
1585266
1585444
1585622
1585800
1585976
1586150
1586324
1586496
1586668
1586834
1587002
1587172
1587334
1587472
1587662
1587822
1587980
1588134
1588290
1588442
1588670
1588852
1589030
1589204
1589370
1589538
1589677
1589866
1590028
1590194
1590356
1590522
1590688
1590854
1591022
1591194
1591368
1591538
1591710
1591880
1592050
1592220
1592390
1592562
1592732
1592908
1593086
1593266
1593446
1593628
1593810
1593988
1594170
1594356
1594548
1594734
1594920
1595106
1595290
1595474
1595656
1595838
1596020
1596204
1596386
1596570
1596754
1596932
1597108
1597286
1597466
1597644
1597820
1597992
1598160
1598330
1598500
1598668
1598840
1599020
1599200
1599378
1599554
1599724
1599882
1600042
1600208
1600349
1600554
1600730
1600912
1601090
1601268
1601454
1601640
1601824
1601977
1602186
1602366
1602542
1602718
1602892
1603064
1603238
1603412
1603586
1603766
1603948
1604128
1604310
1604494
1604678
1604864
1605054
1605246
1605444
1605638
1605830
1606024
1606220
1606410
1606602
1606798
1606994
1607186
1607382
1607580
1607776
1607968
1608160
1608352
1608548
1608740
1608934
1609132
1609330
1609522
1609718
1609914
1610114
1610308
1610502
1610696
1610884
1611068
1611250
1611436
1611628
1611816
1612010
1612208
1612406
1612600
1612796
1612992
1613188
1613382
1613576
1613772
1613974
1614170
1614364
1614564
1614756
1614942
1615130
1615320
1615514
1615708
1615902
1616096
1616288
1616478
1616674
1616872
1617066
1617262
1617456
1617648
1617836
1618026
1618222
1618414
1618602
1618796
1618992
1619188
1619382
1619576
1619774
1619978
1620174
1620370
1620566
1620758
1620944
1621132
1621320
1621510
1621698
1621886
1622076
1622270
1622460
1622652
1622846
1623040
1623232
1623418
1623606
1623790
1623972
1624154
1624334
1624518
1624700
1624894
1625084
1625276
1625462
1625644
1625826
1626008
1626188
1626370
1626554
1626740
1626926
1627110
1627298
1627488
1627680
1627870
1628060
1628254
1628446
1628630
1628810
1628988
1629160
1629324
1629484
1629646
1629814
1629986
1630168
1630358
1630552
1630746
1630948
1631152
1631352
1631550
1631748
1631942
1632128
1632314
1632500
1632688
1632876
1633064
1633250
1633440
1633630
1633816
1634006
1634200
1634390
1634576
1634762
1634952
1635142
1635330
1635518
1635704
1635896
1636082
1636268
1636456
1636644
1636826
1637006
1637188
1637370
1637554
1637736
1637916
1638094
1638278
1638462
1638642
1638826
1639010
1639196
1639376
1639556
1639730
1639896
1640076
1640262
1640452
1640640
1640826
1641012
1641196
1641378
1641558
1641734
1641912
1642094
1642276
1642468
1642656
1642840
1643024
1643212
1643400
1643588
1643760
1643956
1644142
1644330
1644520
1644708
1644898
1645090
1645284
1645480
1645676
1645874
1646076
1646278
1646478
1646684
1646894
1647106
1647318
1647526
1647732
1647946
1648152
1648350
1648546
1648734
1648916
1649096
1649270
1649442
1649614
1649780
1649938
1650094
1650248
1650402
1650554
1650706
1650860
1651012
1651164
1651312
1651462
1651610
1651760
1651910
1652064
1652214
1652368
1652522
1652678
1652830
1652984
1653138
1653290
1653438
1653586
1653732
1653882
1654032
1654178
1654330
1654482
1654638
1654796
1654952
1655116
1655280
1655448
1655620
1655788
1655958
1656128
1656298
1656464
1656626
1656790
1656954
1657116
1657278
1657442
1657604
1657764
1657920
1658074
1658224
1658376
1658526
1658678
1658830
1658984
1659142
1659300
1659460
1659600
1659790
1659954
1660120
1660290
1660458
1660626
1660790
1660968
1661140
1661312
1661484
1661654
1661824
1661992
1662162
1662330
1662496
1662662
1662826
1662990
1663154
1663320
1663486
1663648
1663810
1663976
1664138
1664306
1664474
1664642
1664812
1664982
1665152
1665320
1665486
1665652
1665816
1665978
1666138
1666300
1666462
1666622
1666782
1666942
1667100
1667254
1667406
1667562
1667716
1667874
1668036
1668200
1668368
1668536
1668708
1668880
1669054
1669232
1669410
1669586
1669766
1669948
1670096
1670308
1670482
1670654
1670828
1671002
1671174
1671344
1671510
1671680
1671846
1672012
1672180
1672354
1672528
1672706
1672884
1673062
1673244
1673426
1673608
1673768
1673968
1674144
1674320
1674494
1674668
1674836
1675002
1675168
1675338
1675506
1675680
1675858
1676034
1676206
1676382
1676556
1676726
1676892
1677058
1677224
1677392
1677558
1677722
1677886
1678048
1678208
1678368
1678511
1678688
1678850
1679012
1679176
1679340
1679508
1679670
1679832
1679998
1680162
1680326
1680484
1680644
1680783
1680968
1681128
1681290
1681452
1681620
1681790
1681960
1682130
1682304
1682482
1682660
1682834
1683012
1683186
1683362
1683536
1683704
1683870
1684030
1684182
1684332
1684484
1684634
1684784
1684934
1685082
1685232
1685382
1685528
1685684
1685844
1685998
1686148
1686294
1686444
1686596
1686746
1686898
1687052
1687208
1687368
1687528
1687692
1687832
1688026
1688192
1688360
1688530
1688700
1688874
1689046
1689216
1689386
1689556
1689722
1689886
1690052
1690212
1690368
1690522
1690657
1690840
1690994
1691152
1691316
1691476
1691636
1691796
1691958
1692120
1692280
1692438
1692600
1692758
1692916
1693070
1693224
1693376
1693530
1693682
1693834
1693992
1694152
1694314
1694476
1694642
1694812
1694980
1695150
1695322
1695498
1695670
1695838
1696004
1696172
1696334
1696494
1696654
1696814
1696974
1697132
1697292
1697452
1697612
1697774
1697936
1698096
1698258
1698426
1698596
1698760
1698922
1699090
1699258
1699424
1699584
1699744
1699904
1700062
1700224
1700390
1700556
1700722
1700886
1701052
1701218
1701382
1701546
1701706
1701864
1702026
1702186
1702344
1702497
1702656
1702812
1702966
1703122
1703284
1703444
1703588
1703774
1703942
1704110
1704282
1704458
1704632
1704806
1704982
1705158
1705334
1705510
1705684
1705856
1706022
1706192
1706360
1706530
1706696
1706864
1707034
1707206
1707378
1707544
1707714
1707888
1708062
1708238
1708412
1708584
1708754
1708926
1709074
1709256
1709418
1709578
1709738
1709898
1710060
1710228
1710398
1710568
1710744
1710920
1711098
1711276
1711456
1711636
1711810
1711982
1712156
1712328
1712496
1712656
1712810
1712942
1713120
1713284
1713452
1713624
1713804
1713992
1714182
1714370
1714560
1714750
1714936
1715124
1715308
1715480
1715652
1715824
1715992
1716162
1716332
1716500
1716662
1716828
1717000
1717168
1717340
1717520
1717698
1717878
1718060
1718240
1718420
1718604
1718786
1718964
1719140
1719314
1719484
1719652
1719816
1719980
1720144
1720316
1720488
1720645
1720844
1721024
1721212
1721398
1721580
1721766
1721950
1722136
1722318
1722496
1722674
1722854
1723028
1723196
1723366
1723530
1723696
1723856
1724026
1724192
1724356
1724518
1724680
1724844
1725008
1725176
1725346
1725518
1725692
1725868
1726040
1726204
1726376
1726538
1726696
1726852
1726997
1727157
1727310
1727454
1727628
1727788
1727952
1728122
1728292
1728460
1728630
1728806
1728984
1729162
1729334
1729510
1729680
1729852
1730020
1730184
1730348
1730510
1730672
1730836
1731004
1731172
1731342
1731512
1731686
1731860
1732038
1732218
1732402
1732586
1732780
1732976
1733170
1733352
1733534
1733714
1733922
1734124
1734324
1734516
1734702
1734882
1735056
1735230
1735404
1735574
1735742
1735906
1736066
1736222
1736355
1736542
1736700
1736864
1737032
1737204
1737374
1737546
1737720
1737894
1738070
1738240
1738414
1738586
1738756
1738928
1739096
1739262
1739434
1739606
1739776
1739946
1740122
1740304
1740486
1740668
1740854
1741040
1741222
1741394
1741566
1741740
1741910
1742078
1742242
1742408
1742580
1742752
1742922
1743094
1743266
1743440
1743610
1743782
1743954
1744128
1744304
1744478
1744654
1744832
1745002
1745170
1745342
1745514
1745686
1745854
1746026
1746196
1746366
1746534
1746704
1746860
1747050
1747218
1747388
1747560
1747728
1747876
1748066
1748232
1748408
1748584
1748756
1748928
1749106
1749286
1749466
1749642
1749818
1749990
1750162
1750330
1750496
1750662
1750830
1751000
1751170
1751340
1751510
1751674
1751844
1752018
1752188
1752360
1752534
1752708
1752880
1753048
1753220
1753396
1753568
1753744
1753920
1754096
1754272
1754448
1754624
1754800
1754978
1755150
1755324
1755498
1755674
1755844
1756016
1756192
1756366
1756538
1756712
1756890
1757068
1757246
1757424
1757596
1757766
1757936
1758106
1758274
1758444
1758618
1758786
1758960
1759130
1759296
1759466
1759632
1759800
1759970
1760140
1760312
1760482
1760652
1760822
1760990
1761154
1761318
1761484
1761648
1761810
1761964
1762116
1762264
1762410
1762558
1762706
1762858
1763014
1763170
1763302
1763500
1763666
1763838
1764008
1764186
1764366
1764550
1764730
1764912
1765096
1765276
1765450
1765624
1765798
1765972
1766142
1766316
1766484
1766654
1766824
1766992
1767152
1767310
1767468
1767624
1767782
1767924
1768098
1768256
1768418
1768580
1768740
1768904
1769070
1769234
1769398
1769560
1769724
1769892
1770064
1770232
1770400
1770570
1770734
1770894
1771056
1771216
1771374
1771522
1771678
1771807
1771976
1772124
1772278
1772432
1772588
1772722
1772906
1773066
1773228
1773392
1773554
1773720
1773890
1774064
1774238
1774412
1774590
1774772
1774954
1775134
1775314
1775496
1775682
1775866
1776046
1776230
1776418
1776602
1776784
1776970
1777154
1777340
1777522
1777708
1777896
1778082
1778268
1778456
1778646
1778840
1779032
1779218
1779408
1779596
1779782
1779964
1780148
1780332
1780514
1780698
1780882
1781070
1781258
1781446
1781638
1781834
1782028
1782220
1782414
1782604
1782790
1782974
1783160
1783348
1783536
1783720
1783904
1784092
1784282
1784466
1784652
1784844
1785034
1785224
1785418
1785612
1785806
1785998
1786184
1786366
1786550
1786736
1786920
1787106
1787292
1787480
1787664
1787838
1788012
1788184
1788356
1788526
1788698
1788870
1789038
1789202
1789370
1789542
1789710
1789880
1790054
1790232
1790408
1790584
1790766
1790952
1791136
1791322
1791510
1791702
1791898
1792092
1792280
1792478
1792676
1792868
1793060
1793256
1793454
1793648
1793844
1794046
1794246
1794440
1794640
1794842
1795038
1795232
1795432
1795632
1795826
1796020
1796220
1796422
1796618
1796816
1797012
1797210
1797400
1797586
1797776
1797972
1798166
1798368
1798576
1798784
1798986
1799192
1799396
1799600
1799800
