peaks
183
400
616
828
1034
1234
1432
1626
1818
2008
2200
2396
2596
2806
3020
3238
3454
3666
3878
4088
4300
4516
4740
4952
5164
5378
5592
5812
6032
6250
6480
6708
6940
7174
7412
7642
7866
8084
8294
8500
8706
8908
9108
9312
9518
9728
9944
10158
10376
10586
10800
11014
11232
11448
11660
11874
12078
12286
12500
12716
12930
13140
13348
13550
13752
13970
14196
14418
14638
14856
15072
15296
15518
15746
15974
16206
16446
16686
16918
17144
17358
17572
17792
18012
18230
18440
18648
18874
19108
19340
19572
19808
20038
20262
20476
20688
20902
21118
21336
21564
21796
22026
22260
22488
22716
22940
23160
23376
23600
23834
24066
24292
24520
24748
24980
25216
25448
25662
25874
26088
26308
26540
26776
27008
27234
27466
27702
27938
28168
28386
28598
28804
29008
29216
29432
29642
29866
30096
30328
30562
30800
31042
31284
31526
31762
31994
32218
32442
32656
32866
33074
33290
33510
33738
33968
34206
34440
34682
34916
35156
35386
35610
35824
36044
36262
36480
36690
36890
37088
37284
37480
37680
37896
38116
38344
38578
38816
39058
39298
39530
39754
39974
40198
40420
40642
40872
41098
41328
41562
41796
42028
42264
42500
42736
42972
43208
43434
43644
43846
44042
44236
44430
44616
44804
44992
45180
45382
45580
45778
45998
46226
46458
46696
46936
47166
47396
47632
47876
48114
48348
48590
48844
49094
49326
49554
49766
49972
50186
50408
50636
50868
51096
51320
51548
51772
52000
52228
52456
52688
52928
53170
53406
53642
53880
54114
54346
54572
54792
55018
55234
55444
55654
55860
56064
56272
56478
56682
56894
57104
57318
57534
57758
57984
58210
58428
58648
58868
59094
59322
59552
59778
60006
60236
60470
60708
60946
61180
61414
61628
61834
62032
62226
62418
62624
62848
63086
63310
63518
63722
63930
64138
64350
64562
64784
65010
65236
65476
65712
65940
66166
66386
66604
66820
67048
67276
67496
67718
67950
68180
68390
68596
68802
69008
69222
69434
69648
69862
70074
70286
70494
70694
70892
71088
71284
71478
71674
71872
72078
72294
72512
72740
72968
73200
73436
73662
73880
74104
74316
74528
74744
74962
75182
75402
75622
75838
76050
76262
76486
76704
76926
77154
77386
77618
77854
78094
78334
78572
78802
79036
79272
79514
79754
79998
80242
80490
80738
80980
81214
81442
81672
81886
82096
82302
82504
82706
82908
83108
83310
83524
83740
83966
84200
84440
84682
84916
85158
85388
85612
85826
86032
86238
86444
86646
86846
87048
87246
87446
87650
87864
88086
88308
88536
88764
88998
89232
89468
89702
89936
90158
90378
90602
90836
91072
91308
91546
91782
92014
92246
92472
92700
92930
93160
93390
93632
93876
94116
94358
94604
94848
95086
95324
95562
95802
96040
96278
96514
96750
96986
97222
97456
97688
97922
98146
98362
98578
98786
98998
99226
99454
99682
99912
100148
100378
100606
100838
101072
101304
101536
101770
102006
102236
102474
102710
102948
103182
103412
103636
103848
104056
104262
104459
104668
104884
105086
105281
105496
105700
105898
106094
106290
106480
106668
106858
107050
107246
107446
107646
107856
108066
108280
108482
108676
108870
109056
109240
109424
109606
109790
109978
110166
110352
110540
110738
110930
111128
111324
111514
111704
111902
112110
112310
112504
112694
112878
113064
113252
113454
113658
113856
114052
114242
114420
114596
114770
114944
115116
115292
115466
115640
115816
115992
116164
116336
116506
116678
116846
117010
117174
117338
117504
117670
117830
117992
118118
118314
118478
118638
118802
118966
119134
119300
119466
119636
119802
119976
120144
120312
120480
120646
120814
120982
121152
121322
121488
121656
121824
121992
122156
122328
122498
122664
122834
123000
123168
123334
123500
123666
123830
123994
124158
124322
124484
124646
124810
124968
125130
125288
125446
125606
125764
125924
126084
126244
126404
126564
126724
126884
127046
127208
127370
127532
127692
127854
128014
128174
128334
128494
128654
128816
128978
129142
129306
129470
129636
129802
129966
130130
130292
130452
130612
130770
130926
131080
131200
131346
131550
131682
131818
131920
132266
132358
132462
132570
132642
132999
133346
133448
133544
133670
134022
134106
134236
134634
134780
134930
135080
135230
135382
135538
135698
135858
136030
136208
136392
136636
136878
137102
137316
137516
137698
137876
138048
138230
138456
138676
138880
139064
139242
139414
139586
139762
139954
140190
140422
140644
140860
141076
141294
141512
141740
141970
142206
142432
142656
142870
143084
143298
143518
143762
144004
144236
144462
144668
144858
145048
145264
145512
145772
146028
146278
146524
146774
147016
147260
147506
147750
147990
148226
148468
148708
148954
149202
149440
149672
149898
150118
150338
150556
150778
151018
151282
151542
151790
152048
152298
152538
152774
153006
153244
153492
153722
153938
154156
154402
154678
154958
155230
155490
155746
155992
156242
156494
156752
157008
157268
157534
157810
158082
158346
158600
158854
159078
159290
159506
159744
160034
160324
160614
160902
161184
161458
161724
161984
162242
162504
162756
162994
163228
163452
163676
163936
164216
164494
164762
165026
165296
165554
165816
166080
166334
166570
166804
167032
167250
167462
167666
167874
168106
168346
168598
168864
169138
169414
169676
169942
170220
170506
170788
171070
171352
171640
171938
172238
172534
172832
173134
173450
173754
174050
174342
174632
174902
175146
175392
175660
175940
176218
176486
176750
177004
177262
177522
177778
178034
178296
178568
178846
179136
179428
179722
180020
180308
180562
180816
181098
181390
181668
181944
182218
182496
182778
183064
183340
183602
183874
184150
184418
184688
184964
185244
185524
185806
186080
186352
186638
186932
187224
187514
187794
188050
188320
188582
188818
189044
189264
189494
189752
190024
190294
190566
190834
191092
191348
191622
191892
192150
192398
192642
192894
193152
193392
193630
193878
194132
194380
194620
194852
195088
195326
195568
195804
196042
196280
196532
196790
197044
197300
197556
197820
198072
198314
198586
198878
199182
199488
199792
200084
200380
200668
200950
201228
201504
201776
202056
202336
202620
202906
203194
203482
203766
204040
204310
204586
204852
205116
205376
205628
205864
206100
206338
206586
206838
207122
207402
207670
207938
208212
208484
208752
209014
209270
209532
209814
210102
210390
210666
210920
211166
211420
211694
211972
212246
212516
212778
213044
213308
213578
213856
214144
214430
214718
215000
215284
215572
215870
216168
216450
216730
217008
217274
217540
217808
218072
218334
218584
218824
219062
219300
219540
219790
220058
220328
220594
220858
221120
221374
221622
221880
222154
222418
222666
222916
223172
223422
223670
223926
224180
224436
224694
224944
225192
225444
225696
225950
226210
226466
226728
226986
227244
227510
227776
228048
228324
228600
228876
229160
229418
229672
229920
230156
230396
230644
230906
231174
231452
231732
232014
232288
232560
232830
233098
233366
233626
233890
234136
234382
234632
234874
235124
235364
235606
235840
236072
236302
236534
236772
237014
237258
237492
237726
237962
238184
238414
238644
238880
239118
239354
239596
239836
240072
240296
240516
240738
240966
241202
241428
241656
241908
242162
242424
242678
242930
243174
243414
243640
243866
244088
244310
244522
244726
244922
245116
245306
245494
245684
245880
246082
246294
246514
246722
246930
247128
247324
247524
247728
247938
248158
248388
248610
248820
249038
249274
249520
249776
250016
250232
250440
250650
250886
251138
251414
251684
251946
252200
252456
252714
252968
253214
253466
253728
253988
254260
254532
254796
255062
255326
255586
255848
256104
256352
256592
256834
257090
257360
257632
257894
258156
258410
258668
258936
259196
259456
259714
259958
260182
260400
260630
260862
261102
261356
261620
261880
262134
262398
262658
262916
263176
263440
263698
263950
264206
264462
264702
264934
265168
265394
265608
265820
266034
266238
266440
266640
266840
267052
267278
267508
267748
267986
268230
268474
268724
268976
269224
269464
269704
269952
270212
270486
270756
271016
271272
271526
271776
272018
272260
272492
272720
272940
273164
273390
273622
273836
274056
274294
274550
274816
275092
275366
275636
275900
276160
276426
276696
276968
277242
277506
277758
278008
278256
278498
278736
278980
279226
279484
279742
279998
280246
280490
280746
281032
281310
281590
281860
282126
282402
282676
282950
283230
283516
283794
284060
284334
284606
284882
285150
285420
285688
285956
286224
286478
286726
286982
287244
287506
287750
287976
288206
288452
288712
288982
289256
289536
289812
290088
290348
290606
290858
291112
291368
291622
291874
292120
292358
292592
292818
293050
293288
293528
293764
293996
294232
294476
294728
294990
295276
295558
295840
296122
296384
296644
296900
297152
297400
297658
297940
298220
298494
298758
299030
299304
299584
299856
300128
300396
300666
300942
301210
301474
301734
301992
302250
302508
302766
303026
303296
303568
303846
304118
304384
304644
304902
305156
305414
305674
305936
306210
306486
306748
307002
307242
307474
307704
307938
308170
308406
308638
308868
309104
309340
309580
309822
310076
310340
310592
310834
311062
311278
311492
311704
311928
312178
312468
312762
313052
313338
313612
313888
314156
314420
314676
314924
315166
315416
315660
315882
316100
316326
316560
316810
317070
317332
317604
317878
318154
318424
318686
318948
319204
319432
319646
319860
320074
320288
320508
320736
320972
321206
321444
321692
321942
322184
322420
322658
322900
323148
323420
323688
323956
324218
324476
324734
324996
325252
325512
325774
326040
326310
326580
326834
327086
327336
327584
327830
328082
328332
328582
328824
329070
329316
329568
329822
330076
330340
330616
330876
331124
331354
331574
331788
332002
332218
332450
332700
332972
333242
333506
333766
334028
334294
334560
334824
335080
335336
335592
335838
336060
336282
336532
336810
337080
337348
337606
337854
338108
338362
338616
338874
339130
339384
339636
339894
340160
340426
340686
340940
341200
341464
341724
341986
342248
342508
342770
343044
343324
343598
343872
344152
344412
344654
344906
345144
345372
345588
345816
346056
346318
346610
346892
347166
347430
347698
347968
348242
348504
348766
349014
349246
349484
349720
349968
350230
350508
350782
351056
351324
351592
351856
352122
352386
352652
352918
353190
353476
353762
354042
354320
354594
354858
355118
355376
355638
355898
356158
356420
356682
356948
357212
357476
357738
357994
358256
358524
358792
359066
359332
359606
359884
360172
360456
360716
360970
361212
361454
361690
361924
362150
362390
362632
362882
363140
363404
363670
363936
364190
364438
364662
364878
365106
365354
365612
365878
366146
366416
366684
366950
367212
367478
367746
368014
368274
368546
368812
369080
369344
369604
369866
370138
370406
370672
370940
371200
371466
371730
372000
372264
372540
372814
373100
373384
373656
373924
374184
374438
374690
374950
375216
375494
375766
376032
376292
376558
376826
377096
377368
377630
377886
378142
378410
378684
378956
379228
379512
379792
380068
380344
380614
380876
381144
381410
381672
381936
382196
382462
382730
382996
383260
383530
383800
384070
384348
384622
384894
385162
385434
385688
385938
386162
386388
386626
386872
387140
387414
387682
387954
388208
388462
388712
388968
389228
389498
389774
390052
390324
390590
390860
391126
391392
391662
391938
392218
392498
392770
393050
393328
393606
393884
394146
394400
394654
394912
395172
395440
395706
395978
396248
396518
396786
397058
397334
397616
397904
398180
398446
398708
398968
399230
399504
399778
400046
400322
400594
400868
401154
401438
401720
401998
402268
402538
402812
403084
403364
403642
403924
404200
404474
404750
405034
405318
405600
405882
406156
406424
406690
406954
407224
407496
407774
408048
408322
408594
408874
409150
409418
409690
409954
410220
410496
410778
411064
411346
411626
411896
412166
412432
412700
412980
413256
413534
413810
414082
414354
414620
414888
415146
415406
415666
415930
416200
416468
416734
417000
417264
417528
417784
418050
418320
418598
418872
419150
419432
419712
419992
420264
420526
420784
421038
421282
421528
421784
422046
422306
422578
422852
423126
423402
423676
423948
424222
424502
424778
425052
425324
425604
425884
426172
426460
426730
427002
427268
427532
427798
428060
428328
428596
428862
429130
429410
429686
429958
430230
430502
430776
431060
431340
431618
431894
432168
432436
432708
432978
433240
433504
433766
434034
434306
434586
434862
435132
435396
435654
435918
436186
436458
436740
437018
437296
437572
437844
438114
438392
438674
438950
439232
439508
439772
440040
440306
440570
440840
441108
441378
441666
441946
442218
442502
442784
443058
443322
443590
443854
444100
444330
444550
444772
444990
445206
445430
445644
445854
446062
446266
446476
446680
446886
447088
447288
447488
447688
447886
448096
448312
448532
448766
448998
449228
449454
449700
449938
450174
450404
450650
450880
451106
451340
451576
451806
452030
452250
452462
452660
452860
453078
453310
453570
453848
454124
454392
454658
454920
455172
455424
455678
455928
456176
456422
456664
456908
457164
457416
457668
457924
458174
458424
458676
458930
459178
459420
459672
459934
460194
460442
460686
460910
461118
461324
461554
461800
462074
462350
462618
462880
463146
463410
463672
463938
464196
464450
464714
464974
465232
465492
465750
466008
466276
466546
466818
467094
467366
467628
467884
468148
468414
468682
468952
469224
469492
469764
470034
470304
470580
470852
471112
471386
471654
471922
472188
472452
472718
472984
473254
473522
473788
474058
474338
474618
474900
475186
475470
475756
476046
476326
476614
476898
477180
477466
477756
478046
478336
478616
478900
479180
479450
479722
479994
480272
480548
480820
481094
481370
481640
481912
482180
482446
482712
482980
483250
483520
483792
484066
484336
484608
484884
485152
485424
485696
485964
486244
486520
486790
487064
487332
487602
487878
488144
488402
488638
488868
489090
489312
489538
489778
490020
490274
490530
490782
491028
491264
491498
491734
491980
492230
492476
492724
492974
493232
493482
493734
494000
494262
494530
494790
495034
495252
495468
495704
495932
496164
496404
496636
496860
497094
497318
497546
497780
498010
498246
498486
498728
498960
499192
499434
499680
499940
500182
500424
500670
500920
501174
501428
501670
501898
502124
502354
502608
502884
503150
503412
503662
503888
504100
504304
504504
504706
504924
505158
505378
505618
505866
506114
506366
506602
506820
507026
507230
507454
507692
507940
508186
508434
508674
508930
509232
509518
509790
510050
510312
510584
510852
511120
511378
511648
511916
512184
512448
512708
512966
513222
513486
513752
514016
514286
514560
514826
515096
515368
515628
515892
516156
516420
516684
516948
517208
517458
517706
517954
518212
518482
518756
519026
519290
519554
519818
520082
520342
520614
520876
521132
521388
521632
521880
522138
522382
522614
522830
523040
523254
523484
523718
523958
524220
524496
524772
525026
525276
525514
525734
525948
526158
526380
526606
526842
527088
527338
527586
527840
528108
528370
528628
528888
529144
529400
529658
529916
530176
530460
530740
531022
531304
531572
531842
532106
532362
532628
532896
533158
533426
533698
533972
534238
534504
534766
535026
535292
535560
535822
536082
536334
536582
536828
537076
537328
537584
537846
538118
538392
538662
538924
539166
539408
539650
539894
540140
540390
540662
540944
541226
541506
541784
542054
542314
542568
542820
543064
543308
543556
543806
544060
544316
544568
544826
545078
545320
545550
545782
545994
546200
546404
546614
546832
547042
547276
547514
547754
547998
548240
548476
548708
548942
549180
549422
549664
549906
550142
550382
550616
550832
551048
551264
551486
551722
551968
552222
552474
552730
552988
553250
553506
553760
554012
554258
554508
554754
554984
555194
555402
555614
555842
556070
556310
556546
556782
557018
557254
557488
557724
557968
558212
558466
558726
558984
559248
559512
559772
560026
560284
560542
560802
561062
561318
561584
561852
562112
562372
562626
562884
563144
563398
563654
563908
564160
564420
564674
564924
565176
565426
565674
565922
566168
566414
566656
566906
567158
567408
567642
567876
568102
568314
568516
568716
568918
569130
569364
569614
569866
570118
570366
570610
570846
571080
571312
571542
571778
572020
572264
572512
572766
573020
573270
573524
573786
574048
574302
574556
574806
575064
575316
575578
575856
576128
576388
576650
576914
577176
577434
577690
577954
578218
578470
578726
578982
579242
579496
579752
580000
580226
580452
580676
580900
581116
581328
581544
581758
581982
582206
582430
582660
582896
583124
583368
583622
583874
584128
584380
584622
584862
585088
585316
585538
585768
585998
586236
586478
586716
586960
587200
587438
587670
587904
588138
588376
588618
588868
589132
589390
589654
589912
590166
590414
590658
590898
591134
591352
591566
591782
591988
592190
592406
592634
592870
593116
593368
593618
593876
594134
594394
594646
594900
595152
595396
595640
595884
596130
596386
596642
596896
597152
597404
597658
597910
598164
598426
598684
598920
599158
599396
599638
599880
600126
600370
600614
600860
601110
601356
601602
601844
602072
602286
602506
602744
602982
603210
603436
603670
603906
604152
604404
604656
604910
605170
605428
605686
605942
606212
606484
606742
606996
607242
607482
607716
607950
608176
608412
608654
608898
609144
609388
609618
609828
610036
610254
610490
610740
611024
611300
611562
611820
612076
612324
612568
612810
613056
613306
613572
613844
614112
614374
614632
614896
615160
615428
615688
615952
616218
616480
616744
617014
617272
617528
617784
618036
618294
618548
618794
619042
619286
619534
619782
620032
620280
620526
620774
621022
621268
621520
621780
622038
622302
622560
622806
623034
623252
623476
623698
623932
624174
624426
624682
624932
625170
625410
625648
625882
626116
626350
626584
626810
627028
627260
627502
627760
628024
628300
628558
628808
629052
629270
629478
629682
629890
630094
630296
630496
630696
630894
631094
631292
631484
631674
631864
632052
632242
632432
632620
632802
632986
633166
633344
633522
633698
633872
634048
634224
634406
634586
634766
634946
635124
635304
635488
635672
635862
636054
636246
636438
636626
636816
637008
637202
637396
637596
637798
638000
638202
638404
638608
638814
639018
639220
639422
639626
639828
640032
640232
640430
640636
640840
641040
641244
641462
641684
641910
642138
642362
642582
642800
643012
643216
643424
643634
643848
644072
644294
644520
644748
644976
645190
645404
645612
645816
646020
646224
646422
646622
646822
647022
647222
647424
647622
647822
648020
648224
648426
648632
648844
649064
649286
649500
649720
649938
650156
650372
650578
650778
650974
651178
651386
651596
651808
652014
652220
652422
652626
652840
653052
653256
653462
653666
653862
654056
654248
654444
654638
654834
655030
655224
655418
655616
655820
656034
656244
656454
656674
656898
657120
657336
657558
657780
657996
658220
658440
658650
658860
659072
659282
659490
659704
659904
660100
660296
660490
660682
660874
661060
661252
661446
661656
661864
662068
662274
662476
662676
662876
663078
663274
663472
663668
663864
664058
664258
664460
664670
664874
665088
665300
665510
665726
665932
666142
666352
666568
666774
666980
667184
667392
667600
667806
668020
668228
668438
668650
668872
669092
669312
669526
669746
669970
670202
670432
670660
670884
671094
671298
671496
671692
671894
672096
672308
672532
672770
673000
673228
673450
673670
673892
674112
674334
674554
674780
675014
675250
675486
675722
675958
676186
676416
676628
676852
677078
677304
677528
677752
677984
678214
678438
678668
678898
679128
679356
679566
679778
679990
680208
680426
680634
680858
681084
681292
681498
681710
681916
682122
682334
682546
682764
682990
683224
683456
683684
683916
684146
684376
684612
684850
685094
685338
685572
685806
686046
686282
686530
686770
686998
687222
687440
687650
687866
688090
688318
688548
688778
689006
689232
689454
689676
689908
690138
690360
690578
690796
691004
691210
691416
691618
691818
692016
692214
692420
692638
692858
693072
693284
693492
693696
693896
694094
694288
694484
694684
694890
695096
695306
695516
695720
695924
696132
696358
696582
696804
697026
697240
697448
697658
697864
698072
698284
698494
698718
698952
699188
699434
699680
699922
700166
700402
700628
700860
701086
701302
701528
701746
701974
702202
702424
702644
702862
703072
703274
703476
703678
703882
704094
704312
704520
704730
704942
705150
705366
705578
705786
705990
706188
706384
706580
706782
706980
707182
707400
707616
707826
708036
708254
708466
708668
708870
709074
709288
709516
709748
709980
710212
710442
710666
710884
711114
711334
711550
711768
711982
712192
712402
712618
712834
713054
713268
713476
713680
713882
714082
714284
714490
714694
714894
715098
715306
715524
715734
715946
716148
716348
716550
716758
716986
717214
717440
717670
717904
718126
718352
718578
718806
719028
719250
719466
719684
719906
720124
720350
720578
720820
721062
721314
721554
721786
722014
722234
722456
722684
722904
723132
723368
723600
723842
724090
724338
724584
724834
725078
725326
725576
725820
726064
726308
726546
726786
727020
727244
727466
727688
727904
728114
728320
728528
728736
728948
729164
729390
729622
729848
730074
730296
730514
730728
730938
731146
731358
731568
731780
731998
732222
732436
732648
732862
733080
733282
733480
733686
733914
734148
734382
734614
734850
735074
735292
735504
735716
735922
736130
736340
736552
736770
736988
737206
737428
737652
737878
738104
738322
738542
738762
738990
739210
739436
739660
739874
740086
740298
740512
740730
740950
741166
741378
741588
741790
742010
742244
742492
742736
742976
743212
743436
743656
743888
744120
744346
744576
744804
745026
745240
745452
745656
745856
746056
746262
746464
746670
746872
747072
747274
747484
747706
747928
748140
748358
748582
748804
749032
749258
749482
749710
749934
750164
750400
750640
750880
751126
751374
751624
751862
752098
752326
752542
752766
752986
753204
753418
753632
753850
754076
754298
754526
754752
754980
755212
755440
755676
755918
756160
756400
756632
756856
757084
757320
757548
757766
757982
758200
758432
758668
758910
759158
759408
759652
759906
760156
760400
760648
760896
761142
761378
761614
761842
762058
762278
762496
762716
762930
763154
763372
763602
763836
764066
764292
764518
764736
764950
765164
765378
765600
765832
766066
766292
766516
766742
766966
767188
767400
767626
767852
768082
768310
768526
768738
768946
769156
769372
769598
769822
770054
770286
770512
770740
770968
771198
771424
771652
771884
772108
772336
772564
772778
772988
773192
773396
773598
773796
773994
774196
774408
774622
774842
775050
775260
775462
775668
775872
776074
776282
776484
776682
776878
777078
777274
777474
777684
777898
778112
778328
778534
778746
778966
779186
779406
779620
779836
780058
780272
780486
780708
780926
781144
781362
781588
781802
782018
782246
782474
782700
782924
783142
783356
783566
783774
783976
784176
784370
784574
784780
784990
785202
785422
785632
785838
786038
786234
786424
786614
786806
787000
787200
787406
787606
787802
787992
788188
788384
788584
788776
788980
789186
789398
789600
789802
790000
790200
790402
790606
790826
791058
791280
791506
791734
791974
792214
792452
792692
792922
793152
793376
793610
793840
794076
794318
794554
794790
795018
795232
795448
795666
795878
796106
796336
796562
796780
797002
797220
797438
797654
797882
798102
798316
798524
798728
798936
799144
799354
799566
799774
799974
800174
800388
800622
800864
801106
801338
801562
801770
801974
802172
802370
802564
802758
802962
803188
803422
803656
803892
804122
804352
804588
804822
805056
805290
805518
805744
805972
806194
806426
806660
806898
807142
807396
807648
807902
808148
808390
808624
808842
809066
809290
809530
809778
810026
810278
810530
810778
811026
811272
811512
811752
812000
812246
812484
812728
812966
813202
813424
813642
813854
814078
814308
814536
814774
815010
815252
815486
815706
815914
816128
816342
816564
816798
817032
817270
817506
817738
817968
818184
818406
818624
818834
819038
819244
819450
819664
819882
820094
820306
820528
820742
820968
821204
821442
821680
821920
822152
822384
822612
822838
823068
823308
823536
823770
824006
824232
824452
824676
824894
825110
825322
825538
825758
825990
826228
826466
826702
826930
827160
827388
827610
827826
828060
828304
828548
828780
829010
829230
829446
829660
829872
830092
830308
830524
830746
830974
831200
831430
831662
831896
832138
832376
832616
832856
833084
833306
833532
833756
833978
834198
834416
834636
834862
835088
835304
835520
835740
835948
836156
836362
836562
836762
836966
837172
837382
837602
837824
838042
838254
838466
838670
838868
839074
839294
839516
839736
839952
840170
840394
840620
840850
841082
841316
841550
841788
842032
842270
842504
842746
842988
843220
843460
843704
843940
844172
844400
844612
844820
845028
845240
845458
845678
845892
846106
846320
846528
846742
846964
847188
847414
847636
847854
848070
848284
848498
848714
848926
849138
849338
849540
849734
849934
850132
850322
850512
850696
850882
851072
851264
851458
851654
851850
852048
852246
852440
852628
852816
853002
853186
853366
853546
853730
853918
854108
854300
854502
854714
854932
855162
855384
855606
855834
856046
856260
856470
856676
856886
857096
857308
857528
857752
857970
858190
858396
858604
858818
859034
859266
859494
859718
859942
860168
860400
860638
860872
861102
861324
861550
861782
862004
862222
862444
862658
862878
863096
863306
863512
863714
863914
864116
864316
864514
864720
864924
865128
865322
865522
865716
865916
866122
866328
866540
866750
866962
867172
867382
867590
867808
868040
868274
868504
868730
868960
869188
869418
869638
869846
870060
870288
870518
870734
870942
871144
871344
871544
871740
871934
872126
872318
872508
872700
872892
873086
873282
873480
873682
873878
874070
874256
874442
874626
874814
875006
875202
875400
875604
875802
875998
876192
876382
876572
876760
876952
877142
877340
877534
877726
877914
878102
878296
878496
878698
878904
879098
879288
879480
879672
879868
880060
880254
880452
880646
880844
881050
881254
881454
881656
881870
882078
882292
882512
882720
882926
883122
883314
883504
883690
883876
884066
884256
884448
884640
884832
885024
885216
885406
885600
885802
886008
886204
886398
886592
886788
886984
887182
887394
887608
887824
888040
888264
888482
888702
888918
889126
889326
889530
889738
889950
890174
890396
890620
890848
891076
891300
891522
891746
891966
892186
892418
892654
892892
893126
893350
893574
893810
894046
894284
894520
894748
894962
895178
895402
895626
895852
896082
896308
896536
896764
896986
897206
897424
897648
897870
898090
898316
898544
898764
898982
899198
899406
899618
899826
900028
900236
900444
900650
900864
901088
901314
901538
901768
901996
902202
902398
902584
902766
902946
903124
903304
903492
903690
903890
904086
904280
904472
904654
904832
905010
905184
905354
905532
905716
905898
906084
906270
906454
906636
906826
907014
907204
907390
907574
907760
907948
908134
908322
908504
908688
908876
909064
909250
909434
909620
909806
909994
910176
910358
910530
910706
910882
911064
911256
911456
911650
911840
912028
912222
912414
912614
912814
913012
913206
913398
913590
913788
913990
914194
914400
914614
914834
915050
915268
915482
915692
915908
916114
916326
916536
916742
916948
917154
917360
917566
917764
917960
918152
918340
918530
918724
918922
919124
919318
919512
919706
919900
920092
920284
920476
920660
920844
921034
921248
921468
921688
921904
922114
922324
922534
922742
922948
923150
923358
923560
923754
923952
924144
924336
924538
924740
924932
925128
925318
925512
925706
925906
926112
926314
926518
926726
926932
927136
927342
927550
927762
927978
928190
928402
928612
928820
929032
929234
929426
929616
929806
929996
930186
930372
930562
930756
930948
931144
931344
931550
931754
931952
932148
932346
932538
932732
932930
933128
933320
933508
933694
933878
934064
934246
934430
934622
934818
935016
935216
935420
935618
935814
936008
936198
936390
936580
936768
936956
937140
937328
937510
937696
937884
938072
938258
938448
938636
938820
939008
939196
939382
939574
939762
939946
940128
940310
940500
940694
940892
941096
941298
941496
941698
941890
942082
942276
942472
942664
942854
943044
943234
943422
943612
943800
943986
944178
944374
944572
944772
944974
945176
945376
945578
945796
946002
946206
946416
946622
946828
947032
947234
947430
947624
947822
948008
948200
948398
948596
948796
948986
949178
949374
949574
949778
949984
950184
950380
950588
950802
951028
951254
951482
951702
951920
952142
952370
952598
952836
953064
953288
953510
953718
953924
954132
954342
954554
954776
954998
955220
955442
955664
955892
956124
956354
956572
956786
956996
957204
957412
957624
957834
958044
958254
958464
958674
958888
959094
959296
959500
959698
959896
960094
960292
960494
960696
960892
961090
961284
961474
961662
961848
962030
962210
962390
962570
962746
962922
963098
963276
963452
963626
963800
963976
964154
964332
964510
964688
964868
965054
965250
965460
965672
965896
966124
966356
966592
966818
967044
967274
967506
967736
967970
968204
968440
968674
968904
969134
969366
969594
969824
970054
970282
970510
970726
970938
971150
971370
971592
971814
972050
972290
972534
972782
973030
973276
973518
973760
974004
974248
974486
974718
974956
975196
975438
975684
975922
976156
976390
976620
976852
977076
977300
977526
977748
977964
978184
978418
978652
978894
979136
979376
979610
979836
980058
980276
980498
980720
980948
981184
981424
981662
981894
982136
982370
982612
982850
983084
983318
983548
983778
984002
984232
984468
984704
984942
985180
985418
985652
985878
986102
986326
986552
986776
986996
987214
987440
987662
987884
988102
988330
988556
988786
989012
989238
989466
989688
989914
990134
990348
990558
990766
990970
991170
991366
991560
991752
991948
992154
992364
992582
992806
993050
993288
993528
993766
994002
994238
994472
994708
994936
995156
995372
995586
995802
996010
996216
996426
996636
996842
997050
997258
997474
997686
997896
998098
998294
998492
998700
998916
999128
999336
999532
999730
999918
1000106
1000292
1000478
1000658
1000842
1001030
1001228
1001442
1001664
1001888
1002114
1002342
1002576
1002816
1003064
1003314
1003570
1003834
1004090
1004348
1004590
1004834
1005072
1005304
1005520
1005720
1005914
1006104
1006298
1006504
1006716
1006936
1007160
1007366
1007564
1007756
1007940
1008120
1008298
1008474
1008650
1008822
1008994
1009164
1009334
1009504
1009672
1009842
1010010
1010176
1010340
1010508
1010674
1010846
1011024
1011212
1011410
1011642
1011878
1012130
1012384
1012626
1012838
1013034
1013232
1013438
1013634
1013836
1014046
1014250
1014460
1014670
1014874
1015078
1015280
1015480
1015680
1015874
1016062
1016264
1016496
1016722
1016942
1017164
1017372
1017578
1017786
1017992
1018200
1018408
1018614
1018822
1019034
1019244
1019456
1019670
1019882
1020098
1020314
1020530
1020744
1020956
1021160
1021358
1021558
1021750
1021938
1022128
1022318
1022508
1022700
1022890
1023084
1023272
1023462
1023648
1023840
1024036
1024236
1024444
1024662
1024890
1025108
1025322
1025540
1025752
1025968
1026192
1026416
1026630
1026836
1027036
1027234
1027430
1027624
1027818
1028024
1028240
1028454
1028672
1028892
1029106
1029318
1029518
1029716
1029926
1030136
1030342
1030546
1030752
1030966
1031178
1031388
1031594
1031804
1031998
1032188
1032378
1032560
1032752
1032942
1033134
1033332
1033528
1033722
1033910
1034102
1034286
1034470
1034652
1034830
1035006
1035180
1035352
1035522
1035690
1035858
1036024
1036188
1036354
1036524
1036698
1036876
1037056
1037238
1037430
1037636
1037834
1038038
1038236
1038432
1038628
1038820
1039012
1039204
1039392
1039584
1039774
1039972
1040176
1040378
1040574
1040772
1040972
1041170
1041372
1041582
1041788
1041992
1042200
1042422
1042644
1042870
1043094
1043310
1043526
1043738
1043944
1044150
1044352
1044546
1044742
1044946
1045146
1045354
1045556
1045752
1045942
1046128
1046316
1046518
1046728
1046946
1047170
1047398
1047632
1047872
1048108
1048348
1048590
1048822
1049058
1049292
1049510
1049730
1049950
1050160
1050374
1050586
1050806
1051028
1051258
1051498
1051738
1051970
1052204
1052440
1052676
1052914
1053162
1053410
1053662
1053916
1054166
1054414
1054666
1054906
1055132
1055350
1055564
1055774
1055982
1056202
1056422
1056646
1056868
1057082
1057306
1057536
1057770
1057994
1058210
1058414
1058644
1058876
1059116
1059360
1059602
1059844
1060088
1060336
1060576
1060814
1061050
1061292
1061530
1061768
1062006
1062234
1062452
1062664
1062868
1063074
1063280
1063480
1063680
1063892
1064118
1064330
1064538
1064740
1064952
1065164
1065366
1065570
1065780
1065988
1066188
1066390
1066610
1066820
1067026
1067236
1067466
1067696
1067918
1068132
1068340
1068542
1068748
1068948
1069140
1069338
1069546
1069764
1069974
1070192
1070410
1070620
1070830
1071036
1071238
1071440
1071652
1071866
1072096
1072326
1072566
1072806
1073042
1073272
1073500
1073726
1073954
1074178
1074396
1074620
1074842
1075062
1075286
1075518
1075752
1075984
1076212
1076440
1076660
1076878
1077094
1077302
1077512
1077722
1077932
1078140
1078346
1078550
1078760
1078964
1079166
1079368
1079574
1079782
1080000
1080218
1080432
1080652
1080874
1081096
1081316
1081534
1081748
1081962
1082174
1082388
1082604
1082820
1083030
1083242
1083446
1083646
1083850
1084046
1084244
1084444
1084648
1084854
1085062
1085276
1085496
1085720
1085950
1086192
1086438
1086682
1086926
1087166
1087404
1087636
1087874
1088112
1088346
1088570
1088780
1088990
1089204
1089418
1089648
1089882
1090122
1090360
1090590
1090812
1091028
1091228
1091422
1091614
1091798
1091982
1092164
1092350
1092528
1092714
1092900
1093088
1093280
1093482
1093686
1093892
1094102
1094316
1094532
1094758
1094976
1095188
1095394
1095594
1095786
1095970
1096154
1096336
1096526
1096724
1096936
1097150
1097356
1097558
1097766
1097980
1098198
1098408
1098618
1098822
1099028
1099244
1099454
1099678
1099910
1100140
1100370
1100600
1100828
1101048
1101268
1101476
1101686
1101892
1102098
1102296
1102492
1102686
1102876
1103076
1103294
1103508
1103716
1103920
1104122
1104324
1104530
1104740
1104952
1105170
1105376
1105574
1105770
1105960
1106150
1106340
1106530
1106728
1106952
1107180
1107398
1107616
1107828
1108042
1108260
1108482
1108716
1108952
1109176
1109400
1109612
1109828
1110038
1110244
1110456
1110664
1110876
1111086
1111300
1111514
1111730
1111942
1112156
1112368
1112580
1112794
1113008
1113224
1113442
1113654
1113866
1114078
1114284
1114494
1114704
1114906
1115108
1115318
1115530
1115756
1115980
1116200
1116422
1116646
1116864
1117084
1117298
1117508
1117720
1117924
1118124
1118322
1118520
1118718
1118912
1119116
1119332
1119542
1119760
1119982
1120206
1120422
1120640
1120856
1121070
1121286
1121506
1121726
1121940
1122156
1122368
1122590
1122826
1123070
1123318
1123570
1123826
1124074
1124322
1124564
1124810
1125060
1125306
1125546
1125776
1125994
1126210
1126424
1126632
1126840
1127056
1127272
1127488
1127702
1127918
1128134
1128344
1128558
1128768
1128982
1129200
1129414
1129626
1129840
1130042
1130238
1130428
1130612
1130800
1130992
1131190
1131394
1131602
1131814
1132016
1132216
1132414
1132614
1132832
1133058
1133280
1133494
1133704
1133928
1134154
1134364
1134578
1134790
1135006
1135208
1135418
1135632
1135854
1136072
1136300
1136528
1136772
1137032
1137292
1137548
1137804
1138052
1138294
1138526
1138752
1138982
1139206
1139434
1139660
1139882
1140104
1140314
1140534
1140760
1140982
1141214
1141454
1141692
1141932
1142166
1142402
1142630
1142846
1143054
1143260
1143472
1143696
1143928
1144156
1144390
1144622
1144848
1145072
1145296
1145518
1145734
1145956
1146178
1146402
1146622
1146858
1147090
1147322
1147548
1147764
1147986
1148206
1148424
1148636
1148854
1149068
1149286
1149512
1149742
1149978
1150226
1150480
1150728
1150966
1151202
1151436
1151668
1151896
1152122
1152342
1152562
1152780
1152998
1153214
1153432
1153646
1153856
1154062
1154268
1154470
1154676
1154880
1155082
1155276
1155470
1155666
1155870
1156076
1156276
1156478
1156682
1156884
1157086
1157282
1157480
1157680
1157890
1158106
1158330
1158562
1158800
1159038
1159274
1159504
1159734
1159966
1160198
1160426
1160662
1160912
1161158
1161396
1161622
1161848
1162060
1162262
1162464
1162672
1162884
1163094
1163294
1163488
1163678
1163866
1164056
1164246
1164434
1164626
1164820
1165020
1165212
1165406
1165600
1165786
1165972
1166160
1166348
1166548
1166744
1166940
1167132
1167336
1167540
1167744
1167964
1168176
1168380
1168582
1168786
1168996
1169214
1169430
1169666
1169914
1170170
1170426
1170684
1170946
1171210
1171472
1171728
1171988
1172254
1172520
1172790
1173058
1173318
1173588
1173864
1174138
1174414
1174698
1174980
1175266
1175552
1175834
1176108
1176372
1176640
1176906
1177174
1177432
1177696
1177958
1178220
1178482
1178744
1179012
1179278
1179548
1179822
1180096
1180374
1180652
1180928
1181206
1181468
1181730
1181986
1182240
1182480
1182706
1182926
1183164
1183402
1183644
1183890
1184138
1184376
1184618
1184846
1185070
1185288
1185504
1185722
1185940
1186146
1186354
1186562
1186766
1186972
1187178
1187384
1187600
1187814
1188028
1188248
1188464
1188680
1188892
1189096
1189300
1189510
1189716
1189916
1190114
1190304
1190490
1190678
1190870
1191062
1191260
1191458
1191654
1191848
1192038
1192222
1192402
1192582
1192760
1192934
1193114
1193296
1193482
1193672
1193868
1194060
1194246
1194432
1194614
1194792
1194970
1195144
1195318
1195490
1195664
1195838
1196010
1196182
1196360
1196532
1196708
1196882
1197062
1197240
1197416
1197598
1197778
1197962
1198146
1198332
1198518
1198708
1198896
1199080
1199262
1199444
1199626
1199812
1199998
1200180
1200366
1200550
1200730
1200910
1201092
1201276
1201456
1201636
1201818
1202018
1202216
1202420
1202626
1202846
1203070
1203288
1203502
1203712
1203920
1204128
1204336
1204554
1204782
1205010
1205256
1205500
1205740
1205966
1206182
1206390
1206598
1206802
1207006
1207216
1207422
1207634
1207842
1208052
1208266
1208480
1208690
1208902
1209116
1209340
1209566
1209786
1209998
1210200
1210400
1210598
1210792
1210982
1211164
1211342
1211516
1211688
1211860
1212030
1212202
1212378
1212558
1212740
1212924
1213112
1213296
1213482
1213670
1213856
1214040
1214224
1214404
1214584
1214766
1214948
1215142
1215352
1215558
1215776
1216002
1216214
1216430
1216638
1216838
1217048
1217250
1217446
1217642
1217834
1218026
1218218
1218414
1218610
1218808
1219008
1219204
1219400
1219598
1219798
1220004
1220216
1220434
1220648
1220864
1221082
1221296
1221508
1221714
1221912
1222112
1222314
1222516
1222726
1222942
1223148
1223348
1223550
1223750
1223946
1224140
1224340
1224534
1224738
1224946
1225144
1225336
1225522
1225712
1225914
1226132
1226352
1226572
1226798
1227014
1227226
1227444
1227658
1227870
1228078
1228278
1228476
1228672
1228868
1229066
1229260
1229454
1229650
1229860
1230082
1230306
1230536
1230768
1231000
1231224
1231450
1231676
1231900
1232124
1232354
1232586
1232822
1233062
1233302
1233548
1233788
1234022
1234258
1234492
1234724
1234958
1235194
1235430
1235662
1235890
1236116
1236340
1236562
1236790
1237018
1237250
1237482
1237716
1237948
1238176
1238406
1238634
1238862
1239094
1239322
1239552
1239782
1240014
1240248
1240482
1240718
1240960
1241198
1241434
1241670
1241906
1242130
1242344
1242558
1242774
1242986
1243200
1243422
1243648
1243884
1244114
1244340
1244572
1244792
1245004
1245216
1245426
1245634
1245838
1246044
1246262
1246486
1246720
1246946
1247172
1247388
1247602
1247812
1248018
1248224
1248428
1248632
1248838
1249048
1249260
1249476
1249690
1249908
1250116
1250332
1250542
1250752
1250964
1251176
1251390
1251602
1251816
1252024
1252232
1252438
1252644
1252846
1253042
1253236
1253426
1253622
1253818
1254016
1254214
1254420
1254624
1254834
1255034
1255232
1255426
1255620
1255812
1256006
1256202
1256392
1256588
1256800
1257020
1257238
1257460
1257682
1257912
1258148
1258376
1258600
1258822
1259044
1259258
1259472
1259688
1259902
1260114
1260322
1260534
1260746
1260962
1261176
1261394
1261616
1261832
1262048
1262264
1262474
1262686
1262894
1263102
1263314
1263526
1263740
1263956
1264170
1264380
1264594
1264798
1265022
1265264
1265500
1265734
1265962
1266184
1266400
1266618
1266832
1267050
1267270
1267494
1267716
1267938
1268164
1268396
1268622
1268858
1269092
1269334
1269566
1269800
1270026
1270244
1270464
1270672
1270882
1271090
1271304
1271514
1271724
1271932
1272136
1272340
1272542
1272746
1272952
1273166
1273378
1273598
1273822
1274054
1274282
1274504
1274726
1274946
1275164
1275384
1275608
1275822
1276042
1276262
1276478
1276702
1276918
1277136
1277350
1277572
1277784
1278000
1278214
1278422
1278634
1278850
1279066
1279280
1279502
1279726
1279948
1280170
1280398
1280624
1280842
1281062
1281280
1281496
1281716
1281936
1282148
1282360
1282578
1282792
1283010
1283222
1283430
1283640
1283856
1284066
1284270
1284496
1284730
1284964
1285198
1285428
1285650
1285874
1286102
1286318
1286538
1286752
1286956
1287160
1287368
1287592
1287816
1288048
1288292
1288532
1288770
1289010
1289250
1289486
1289716
1289940
1290158
1290378
1290594
1290808
1291026
1291252
1291478
1291708
1291916
1292126
1292340
1292566
1292796
1293020
1293246
1293476
1293698
1293926
1294166
1294402
1294644
1294888
1295126
1295366
1295602
1295840
1296078
1296312
1296548
1296790
1297030
1297272
1297510
1297748
1297986
1298224
1298464
1298700
1298938
1299178
1299422
1299664
1299906
1300148
1300386
1300626
1300868
1301116
1301360
1301606
1301858
1302110
1302366
1302622
1302872
1303122
1303368
1303610
1303858
1304100
1304344
1304590
1304836
1305084
1305326
1305566
1305804
1306038
1306268
1306498
1306726
1306954
1307184
1307416
1307648
1307878
1308108
1308340
1308568
1308798
1309030
1309264
1309502
1309738
1309972
1310206
1310438
1310672
1310902
1311130
1311352
1311568
1311790
1312010
1312220
1312432
1312644
1312860
1313094
1313330
1313572
1313814
1314048
1314276
1314502
1314726
1314944
1315160
1315382
1315604
1315822
1316044
1316270
1316498
1316732
1316966
1317198
1317430
1317656
1317884
1318116
1318346
1318582
1318820
1319050
1319268
1319490
1319710
1319920
1320134
1320338
1320548
1320764
1320994
1321204
1321414
1321622
1321826
1322026
1322220
1322414
1322612
1322802
1322992
1323184
1323380
1323588
1323810
1324030
1324248
1324468
1324690
1324904
1325120
1325336
1325548
1325754
1325968
1326184
1326406
1326620
1326838
1327056
1327276
1327494
1327700
1327908
1328120
1328332
1328542
1328748
1328974
1329208
1329448
1329690
1329924
1330156
1330384
1330598
1330802
1331016
1331234
1331454
1331672
1331892
1332110
1332328
1332546
1332768
1332984
1333198
1333408
1333620
1333846
1334082
1334330
1334572
1334808
1335044
1335268
1335494
1335714
1335934
1336150
1336374
1336596
1336822
1337052
1337278
1337498
1337708
1337914
1338124
1338324
1338522
1338724
1338926
1339138
1339362
1339576
1339796
1340008
1340212
1340410
1340606
1340796
1340988
1341182
1341382
1341582
1341780
1341976
1342176
1342376
1342584
1342804
1343026
1343250
1343468
1343678
1343886
1344092
1344292
1344494
1344702
1344918
1345142
1345356
1345572
1345782
1345988
1346188
1346386
1346594
1346802
1347010
1347222
1347438
1347646
1347852
1348068
1348282
1348500
1348710
1348916
1349122
1349324
1349526
1349728
1349938
1350148
1350356
1350568
1350772
1350982
1351198
1351412
1351624
1351838
1352050
1352260
1352472
1352688
1352908
1353118
1353328
1353532
1353740
1353948
1354152
1354356
1354562
1354766
1354970
1355170
1355366
1355558
1355752
1355952
1356156
1356356
1356556
1356760
1356974
1357192
1357402
1357606
1357814
1358028
1358234
1358444
1358660
1358880
1359104
1359328
1359538
1359752
1359956
1360154
1360350
1360544
1360740
1360932
1361120
1361306
1361490
1361676
1361858
1362042
1362232
1362420
1362612
1362818
1363018
1363224
1363422
1363620
1363830
1364048
1364262
1364462
1364664
1364864
1365062
1365260
1365458
1365656
1365850
1366046
1366238
1366440
1366644
1366854
1367062
1367272
1367476
1367678
1367882
1368090
1368286
1368488
1368692
1368902
1369120
1369336
1369550
1369762
1369978
1370194
1370414
1370640
1370856
1371072
1371284
1371494
1371696
1371892
1372084
1372272
1372458
1372642
1372828
1373018
1373204
1373392
1373576
1373758
1373942
1374128
1374322
1374518
1374710
1374898
1375082
1375266
1375448
1375638
1375838
1376044
1376246
1376444
1376644
1376840
1377040
1377246
1377472
1377700
1377932
1378162
1378394
1378628
1378854
1379082
1379312
1379532
1379750
1379982
1380220
1380456
1380692
1380928
1381164
1381396
1381630
1381868
1382100
1382334
1382566
1382796
1383032
1383264
1383496
1383726
1383954
1384176
1384398
1384622
1384836
1385050
1385276
1385498
1385724
1385948
1386166
1386388
1386608
1386834
1387066
1387306
1387548
1387792
1388040
1388290
1388536
1388778
1389018
1389258
1389500
1389738
1389984
1390230
1390468
1390712
1390954
1391198
1391446
1391690
1391934
1392180
1392420
1392660
1392906
1393150
1393386
1393620
1393850
1394074
1394292
1394512
1394742
1394970
1395200
1395436
1395670
1395908
1396144
1396376
1396608
1396842
1397070
1397288
1397498
1397698
1397898
1398094
1398302
1398516
1398734
1398966
1399198
1399418
1399638
1399844
1400044
1400244
1400436
1400628
1400818
1401010
1401202
1401406
1401612
1401826
1402038
1402252
1402462
1402660
1402858
1403054
1403256
1403458
1403666
1403870
1404074
1404272
1404468
1404660
1404852
1405050
1405250
1405450
1405656
1405862
1406058
1406252
1406456
1406662
1406882
1407114
1407346
1407578
1407808
1408040
1408276
1408516
1408760
1409010
1409250
1409490
1409732
1409972
1410208
1410450
1410696
1410936
1411182
1411418
1411652
1411892
1412128
1412368
1412608
1412850
1413098
1413342
1413580
1413822
1414066
1414306
1414550
1414796
1415044
1415284
1415530
1415780
1416026
1416278
1416522
1416766
1417014
1417262
1417502
1417744
1417988
1418234
1418482
1418730
1418978
1419228
1419466
1419696
1419924
1420150
1420372
1420588
1420792
1420992
1421186
1421374
1421558
1421742
1421924
1422112
1422304
1422498
1422712
1422932
1423156
1423386
1423608
1423828
1424050
1424266
1424484
1424698
1424914
1425124
1425328
1425530
1425732
1425932
1426140
1426354
1426570
1426794
1427014
1427234
1427460
1427678
1427902
1428126
1428344
1428546
1428742
1428930
1429118
1429302
1429490
1429680
1429876
1430078
1430286
1430490
1430714
1430960
1431206
1431452
1431702
1431950
1432196
1432440
1432680
1432924
1433168
1433410
1433658
1433912
1434166
1434424
1434680
1434934
1435192
1435442
1435686
1435928
1436174
1436418
1436666
1436912
1437160
1437414
1437676
1437934
1438192
1438444
1438694
1438938
1439186
1439430
1439666
1439908
1440148
1440392
1440636
1440880
1441120
1441366
1441612
1441860
1442114
1442364
1442622
1442882
1443142
1443406
1443670
1443934
1444198
1444452
1444706
1444962
1445218
1445468
1445720
1445966
1446210
1446458
1446708
1446962
1447218
1447460
1447694
1447924
1448144
1448362
1448576
1448800
1449050
1449302
1449554
1449808
1450064
1450326
1450588
1450846
1451114
1451376
1451636
1451896
1452152
1452404
1452662
1452920
1453174
1453434
1453694
1453952
1454216
1454480
1454734
1454990
1455246
1455496
1455748
1456000
1456246
1456496
1456744
1456990
1457238
1457492
1457746
1458012
1458280
1458538
1458798
1459058
1459312
1459572
1459834
1460094
1460356
1460614
1460862
1461110
1461358
1461612
1461872
1462132
1462396
1462662
1462918
1463176
1463440
1463698
1463956
1464222
1464486
1464746
1465008
1465272
1465530
1465794
1466056
1466310
1466566
1466820
1467074
1467330
1467586
1467836
1468092
1468348
1468600
1468856
1469108
1469358
1469600
1469840
1470080
1470324
1470570
1470818
1471072
1471332
1471588
1471848
1472106
1472364
1472620
1472878
1473132
1473388
1473644
1473896
1474148
1474398
1474644
1474890
1475138
1475382
1475632
1475884
1476134
1476388
1476644
1476894
1477144
1477390
1477638
1477886
1478134
1478384
1478634
1478886
1479136
1479392
1479648
1479902
1480160
1480420
1480672
1480924
1481182
1481442
1481704
1481970
1482232
1482490
1482746
1482996
1483250
1483500
1483748
1484000
1484250
1484500
1484750
1485000
1485244
1485492
1485736
1485980
1486228
1486474
1486724
1486976
1487234
1487490
1487748
1488012
1488268
1488528
1488784
1489044
1489306
1489568
1489818
1490072
1490324
1490570
1490818
1491062
1491306
1491552
1491796
1492040
1492286
1492528
1492770
1493012
1493254
1493494
1493736
1493976
1494222
1494466
1494712
1494964
1495216
1495468
1495720
1495968
1496212
1496456
1496700
1496944
1497194
1497444
1497694
1497942
1498194
1498442
1498688
1498930
1499166
1499402
1499638
1499878
1500116
1500362
1500612
1500862
1501114
1501368
1501618
1501870
1502120
1502364
1502612
1502858
1503100
1503354
1503602
1503850
1504104
1504356
1504604
1504844
1505090
1505332
1505578
1505824
1506068
1506320
1506572
1506830
1507088
1507348
1507602
1507858
1508112
1508368
1508626
1508886
1509148
1509402
1509654
1509904
1510150
1510400
1510646
1510888
1511134
1511382
1511632
1511882
1512136
1512382
1512634
1512880
1513124
1513370
1513614
1513854
1514096
1514338
1514582
1514836
1515086
1515338
1515594
1515850
1516100
1516350
1516600
1516852
1517104
1517358
1517614
1517872
1518128
1518382
1518636
1518892
1519142
1519396
1519648
1519898
1520148
1520400
1520650
1520896
1521148
1521396
1521642
1521890
1522142
1522390
1522642
1522896
1523148
1523404
1523660
1523910
1524162
1524410
1524656
1524904
1525154
1525406
1525666
1525934
1526198
1526462
1526722
1526976
1527230
1527488
1527740
1527994
1528246
1528496
1528750
1529004
1529256
1529506
1529754
1530004
1530254
1530504
1530750
1531002
1531244
1531486
1531728
1531974
1532216
1532458
1532702
1532942
1533178
1533408
1533638
1533868
1534104
1534340
1534570
1534810
1535052
1535300
1535542
1535784
1536026
1536270
1536514
1536758
1537004
1537254
1537506
1537752
1537992
1538236
1538480
1538724
1538974
1539226
1539480
1539728
1539982
1540234
1540486
1540734
1540980
1541228
1541478
1541728
1541980
1542230
1542482
1542734
1542990
1543240
1543492
1543744
1543992
1544242
1544500
1544752
1545006
1545256
1545506
1545760
1546018
1546270
1546524
1546772
1547024
1547274
1547526
1547780
1548040
1548304
1548566
1548828
1549086
1549346
1549600
1549850
1550102
1550360
1550616
1550876
1551134
1551390
1551646
1551900
1552150
1552396
1552646
1552892
1553136
1553378
1553626
1553876
1554120
1554360
1554592
1554816
1555030
1555242
1555476
1555710
1555954
1556204
1556454
1556704
1556954
1557202
1557448
1557688
1557924
1558160
1558400
1558640
1558884
1559128
1559376
1559632
1559886
1560142
1560400
1560658
1560904
1561136
1561356
1561584
1561818
1562054
1562294
1562524
1562760
1563000
1563252
1563502
1563748
1563988
1564222
1564458
1564706
1564950
1565196
1565446
1565704
1565958
1566206
1566456
1566704
1566948
1567188
1567422
1567660
1567904
1568150
1568392
1568636
1568882
1569132
1569386
1569642
1569902
1570148
1570392
1570638
1570894
1571148
1571404
1571650
1571900
1572150
1572398
1572652
1572906
1573160
1573412
1573666
1573920
1574172
1574422
1574672
1574924
1575170
1575420
1575670
1575920
1576170
1576420
1576666
1576910
1577152
1577388
1577616
1577842
1578074
1578302
1578534
1578770
1579006
1579242
1579478
1579712
1579946
1580184
1580420
1580664
1580894
1581128
1581370
1581612
1581850
1582092
1582338
1582580
1582824
1583070
1583318
1583564
1583812
1584058
1584300
1584546
1584790
1585034
1585278
1585512
1585744
1585974
1586202
1586432
1586672
1586906
1587142
1587376
1587612
1587848
1588088
1588326
1588568
1588808
1589046
1589286
1589528
1589776
1590022
1590272
1590522
1590768
1591018
1591268
1591518
1591768
1592020
1592266
1592506
1592746
1592976
1593198
1593410
1593624
1593838
1594056
1594282
1594502
1594730
1594960
1595188
1595416
1595636
1595850
1596060
1596284
1596514
1596746
1596982
1597222
1597468
1597716
1597960
1598206
1598446
1598674
1598904
1599136
1599366
1599598
1599846
1600094
1600344
1600596
1600852
1601108
1601364
1601618
1601872
1602122
1602370
1602624
1602874
1603128
1603380
1603624
1603866
1604106
1604336
1604544
1604748
1604948
1605162
1605378
1605604
1605838
1606068
1606298
1606516
1606728
1606940
1607150
1607364
1607576
1607790
1608004
1608222
1608450
1608680
1608908
1609138
1609372
1609608
1609856
1610118
1610384
1610644
1610900
1611158
1611414
1611676
1611932
1612186
1612438
1612686
1612922
1613140
1613340
1613538
1613736
1613934
1614134
1614330
1614528
1614722
1614920
1615120
1615318
1615520
1615720
1615918
1616112
1616306
1616498
1616688
1616882
1617074
1617270
1617462
1617656
1617852
1618050
1618248
1618444
1618642
1618842
1619042
1619238
1619434
1619630
1619828
1620024
1620218
1620406
1620590
1620772
1620960
1621148
1621332
1621518
1621710
1621908
1622108
1622320
1622528
1622736
1622940
1623138
1623336
1623532
1623730
1623932
1624136
1624338
1624548
1624762
1624980
1625198
1625420
1625644
1625870
1626092
1626308
1626514
1626716
1626916
1627116
1627324
1627536
1627756
1627984
1628220
1628450
1628684
1628902
1629120
1629332
1629546
1629754
1629962
1630168
1630376
1630578
1630780
1630982
1631180
1631376
1631568
1631758
1631948
1632136
1632320
1632504
1632690
1632880
1633076
1633268
1633460
1633648
1633830
1634008
1634184
1634360
1634538
1634728
1634940
1635154
1635356
1635552
1635750
1635948
1636146
1636352
1636552
1636750
1636950
1637144
1637328
1637510
1637694
1637876
1638064
1638262
1638464
1638666
1638872
1639078
1639280
1639478
1639672
1639862
1640050
1640228
1640408
1640586
1640766
1640944
1641128
1641342
1641568
1641788
1642002
1642218
1642440
1642662
1642886
1643104
1643316
1643536
1643764
1643980
1644200
1644426
1644654
1644880
1645118
1645346
1645568
1645774
1645976
1646178
1646386
1646604
1646834
1647068
1647300
1647520
1647736
1647944
1648164
1648390
1648614
1648840
1649078
1649326
1649574
1649818
1650054
1650294
1650544
1650790
1651044
1651298
1651546
1651792
1652040
1652284
1652532
1652768
1653008
1653242
1653472
1653700
1653934
1654176
1654428
1654670
1654908
1655144
1655386
1655628
1655872
1656124
1656368
1656614
1656862
1657108
1657354
1657602
1657848
1658090
1658328
1658556
1658792
1659030
1659260
1659476
1659700
1659924
1660144
1660354
1660568
1660792
1661016
1661242
1661480
1661724
1661968
1662210
1662454
1662686
1662912
1663140
1663364
1663582
1663800
1664024
1664244
1664470
1664698
1664922
1665142
1665360
1665580
1665790
1666004
1666220
1666430
1666638
1666850
1667058
1667274
1667502
1667734
1667974
1668222
1668470
1668718
1668966
1669212
1669454
1669690
1669926
1670166
1670408
1670648
1670888
1671120
1671344
1671556
1671768
1671982
1672196
1672428
1672674
1672918
1673170
1673424
1673676
1673926
1674174
1674412
1674646
1674880
1675106
1675328
1675534
1675748
1675968
1676188
1676416
1676646
1676876
1677114
1677358
1677604
1677854
1678102
1678346
1678590
1678832
1679076
1679318
1679556
1679792
1680028
1680268
1680508
1680752
1680994
1681232
1681464
1681694
1681930
1682166
1682410
1682660
1682900
1683144
1683384
1683620
1683850
1684060
1684262
1684458
1684650
1684842
1685038
1685238
1685442
1685648
1685850
1686052
1686254
1686460
1686672
1686900
1687126
1687330
1687542
1687748
1687956
1688168
1688378
1688588
1688794
1689004
1689208
1689420
1689630
1689838
1690040
1690242
1690444
1690644
1690858
1691076
1691290
1691510
1691734
1691952
1692172
1692390
1692616
1692848
1693082
1693314
1693550
1693784
1694016
1694238
1694458
1694682
1694904
1695126
1695344
1695562
1695772
1695982
1696198
1696416
1696646
1696874
1697102
1697324
1697546
1697762
1697984
1698202
1698420
1698646
1698868
1699092
1699312
1699530
1699752
1699976
1700200
1700420
1700634
1700866
1701100
1701330
1701552
1701772
1701992
1702210
1702430
1702652
1702868
1703086
1703292
1703504
1703714
1703924
1704142
1704366
1704590
1704812
1705040
1705270
1705486
1705702
1705920
1706146
1706364
1706584
1706802
1707026
1707250
1707478
1707704
1707926
1708148
1708366
1708584
1708798
1709010
1709218
1709438
1709676
1709916
1710160
1710404
1710648
1710890
1711134
1711380
1711622
1711848
1712086
1712320
1712546
1712768
1712978
1713188
1713398
1713606
1713814
1714026
1714244
1714464
1714688
1714908
1715118
1715322
1715518
1715712
1715900
1716088
1716288
1716500
1716714
1716926
1717148
1717380
1717622
1717864
1718104
1718342
1718578
1718812
1719044
1719280
1719518
1719762
1720012
1720252
1720484
1720724
1720962
1721198
1721442
1721686
1721932
1722174
1722422
1722670
1722916
1723162
1723406
1723644
1723874
1724102
1724318
1724532
1724748
1724972
1725202
1725434
1725672
1725902
1726140
1726380
1726626
1726870
1727116
1727366
1727614
1727862
1728108
1728358
1728604
1728848
1729094
1729342
1729588
1729840
1730088
1730336
1730574
1730812
1731044
1731278
1731510
1731742
1731974
1732198
1732432
1732676
1732916
1733156
1733396
1733632
1733868
1734104
1734348
1734588
1734830
1735074
1735316
1735550
1735782
1736012
1736232
1736448
1736666
1736882
1737098
1737322
1737544
1737770
1737992
1738200
1738408
1738610
1738808
1739004
1739220
1739438
1739652
1739866
1740080
1740294
1740504
1740710
1740920
1741132
1741352
1741570
1741784
1742004
1742220
1742436
1742654
1742876
1743090
1743294
1743498
1743710
1743924
1744136
1744342
1744546
1744744
1744944
1745140
1745338
1745538
1745738
1745938
1746140
1746342
1746540
1746734
1746928
1747116
1747304
1747490
1747674
1747858
1748044
1748230
1748420
1748612
1748812
1749012
1749212
1749412
1749614
1749816
1750020
1750232
1750444
1750654
1750866
1751092
1751322
1751546
1751770
1751992
1752206
1752418
1752642
1752868
1753094
1753318
1753536
1753758
1753976
1754194
1754410
1754622
1754838
1755054
1755270
1755486
1755698
1755918
1756146
1756370
1756588
1756806
1757030
1757252
1757478
1757704
1757926
1758150
1758378
1758596
1758812
1759018
1759224
1759426
1759634
1759838
1760044
1760252
1760460
1760676
1760900
1761124
1761342
1761564
1761784
1762002
1762214
1762426
1762646
1762864
1763074
1763286
1763502
1763714
1763928
1764144
1764360
1764570
1764786
1764996
1765200
1765404
1765610
1765820
1766028
1766234
1766440
1766648
1766854
1767058
1767266
1767474
1767682
1767892
1768098
1768302
1768506
1768710
1768914
1769126
1769340
1769552
1769766
1769978
1770190
1770406
1770620
1770828
1771040
1771250
1771460
1771674
1771880
1772084
1772286
1772490
1772690
1772900
1773114
1773328
1773548
1773770
1773996
1774224
1774442
1774664
1774880
1775100
1775328
1775552
1775770
1775992
1776214
1776436
1776662
1776888
1777116
1777344
1777568
1777790
1778008
1778228
1778444
1778658
1778870
1779082
1779292
1779508
1779726
1779948
1780174
1780400
1780630
1780860
1781088
1781318
1781550
1781780
1782002
1782232
1782460
1782686
1782914
1783144
1783366
1783576
1783788
1784002
1784220
1784444
1784664
1784884
1785110
1785334
1785558
1785784
1786010
1786234
1786450
1786662
1786866
1787068
1787270
1787476
1787680
1787884
1788100
1788316
1788526
1788742
1788960
1789182
1789400
1789624
1789848
1790078
1790310
1790538
1790772
1791006
1791236
1791472
1791704
1791928
1792152
1792366
1792580
1792806
1793030
1793254
1793476
1793708
1793938
1794168
1794400
1794624
1794850
1795078
1795300
1795520
1795736
1795944
1796150
1796358
1796564
1796776
1796990
1797206
1797416
1797632
1797852
1798066
1798274
1798484
1798692
1798902
1799110
1799322
1799536
1799748
1799956
