peaks
177
403
626
842
1058
1276
1490
1706
1922
2136
2352
2568
2784
3002
3218
3436
3656
3876
4096
4316
4534
4754
4974
5194
5414
5632
5852
6072
6290
6508
6726
6942
7160
7378
7594
7812
8028
8244
8462
8678
8896
9112
9326
9546
9764
9982
10202
10418
10638
10856
11072
11288
11504
11720
11936
12152
12366
12580
12796
13012
13228
13446
13660
13878
14096
14314
14530
14746
14964
15180
15398
15616
15834
16050
16270
16486
16704
16920
17134
17352
17570
17784
18002
18218
18436
18654
18874
19094
19314
19536
19760
19982
20206
20430
20654
20878
21102
21328
21554
21774
21996
22220
22438
22656
22870
23078
23282
23488
23692
23898
24108
24320
24532
24750
24970
25190
25410
25628
25848
26068
26290
26510
26730
26950
27170
27390
27610
27826
28044
28264
28486
28708
28932
29154
29374
29598
29822
30044
30266
30490
30708
30928
31148
31366
31584
31800
32014
32234
32448
32666
32884
33098
33316
33532
33748
33964
34180
34394
34606
34822
35036
35252
35468
35684
35900
36116
36334
36550
36768
36982
37200
37416
37634
37854
38074
38294
38514
38736
38958
39180
39404
39626
39844
40068
40292
40514
40738
40960
41182
41404
41626
41850
42072
42292
42512
42732
42954
43172
43392
43608
43826
44044
44264
44482
44698
44914
45130
45346
45562
45778
45992
46206
46420
46634
46848
47060
47274
47486
47700
47914
48126
48340
48554
48770
48984
49198
49410
49626
49840
50056
50268
50484
50700
50916
51132
51346
51556
51762
51958
52152
52350
52554
52756
52966
53186
53404
53618
53832
54046
54262
54480
54698
54916
55136
55354
55574
55792
56012
56228
56446
56660
56878
57096
57316
57536
57756
57976
58196
58418
58640
58860
59078
59296
59516
59734
59950
60166
60378
60590
60802
61014
61224
61436
61644
61856
62068
62278
62488
62700
62908
63116
63326
63534
63744
63954
64160
64372
64580
64790
65000
65208
65416
65624
65830
66040
66248
66456
66664
66870
67072
67278
67484
67688
67892
68094
68298
68504
68712
68922
69130
69338
69542
69748
69952
70156
70354
70546
70736
70924
71110
71292
71476
71662
71848
72038
72224
72414
72602
72792
72980
73168
73356
73542
73728
73916
74102
74288
74474
74660
74844
75030
75218
75406
75592
75780
75968
76158
76348
76536
76718
76900
77080
77260
77440
77620
77800
77982
78164
78346
78530
78716
78900
79086
79272
79456
79644
79834
80024
80214
80406
80596
80788
80980
81174
81366
81556
81744
81932
82122
82314
82502
82692
82882
83066
83252
83438
83624
83806
83988
84166
84346
84522
84700
84874
85046
85220
85392
85566
85738
85914
86090
86264
86442
86618
86794
86970
87146
87320
87498
87674
87848
88020
88194
88366
88538
88714
88890
89070
89254
89440
89628
89820
90016
90212
90414
90618
90822
91028
91182
91420
91622
91824
92024
92230
92436
92638
92842
93048
93252
93456
93660
93864
94070
94274
94480
94686
94884
95086
95286
95490
95692
95896
96096
96298
96498
96696
96896
97100
97302
97504
97706
97914
98124
98340
98558
98768
98980
99190
99406
99620
99836
100054
100270
100488
100704
100922
101140
101360
101578
101796
102014
102230
102448
102662
102876
103088
103296
103504
103712
103918
104126
104332
104538
104744
104950
105158
105362
105564
105762
105960
106158
106356
106558
106758
106960
107166
107372
107578
107786
107998
108208
108424
108638
108854
109070
109284
109496
109712
109926
110142
110358
110574
110790
111008
111226
111444
111660
111878
112094
112312
112530
112748
112966
113186
113404
113622
113842
114062
114284
114506
114728
114948
115170
115394
115616
115838
116060
116284
116504
116726
116946
117168
117390
117610
117830
118050
118272
118494
118716
118940
119164
119386
119612
119838
120062
120288
120510
120734
120958
121182
121406
121628
121852
122076
122296
122518
122738
122956
123172
123388
123602
123816
124032
124246
124462
124678
124894
125110
125324
125538
125752
125966
126180
126394
126608
126822
127036
127250
127462
127674
127886
128098
128306
128514
128718
128918
129112
129300
129486
129672
129856
130034
130212
130390
130568
130748
130934
131122
131314
131504
131692
131874
132060
132248
132440
132642
132846
133054
133266
133486
133708
133930
134144
134356
134574
134792
135010
135228
135446
135662
135882
136102
136322
136534
136746
136954
137158
137368
137578
137790
138008
138230
138446
138666
138886
139110
139334
139558
139784
140012
140240
140468
140698
140928
141160
141388
141618
141846
142072
142300
142526
142750
142976
143198
143426
143652
143876
144102
144328
144550
144776
145002
145226
145450
145672
145896
146122
146348
146574
146802
147028
147254
147484
147712
147940
148172
148402
148632
148862
149094
149326
149556
149786
150016
150246
150474
150702
150928
151152
151376
151596
151814
152032
152248
152460
152672
152878
153080
153278
153472
153662
153850
154040
154230
154416
154602
154788
154974
155158
155340
155520
155698
155874
156048
156218
156390
156564
156734
156906
157078
157250
157424
157596
157768
157942
158114
158284
158458
158628
158796
158966
159134
159304
159472
159642
159810
159978
160148
160318
160492
160668
160846
161022
161202
161382
161562
161742
161924
162104
162284
162464
162648
162834
163024
163220
163416
163616
163820
164028
164240
164450
164660
164872
165082
165292
165504
165716
165930
166138
166344
166550
166752
166954
167150
167346
167540
167732
167926
168118
168310
168502
168692
168882
169074
169264
169452
169642
169828
170016
170204
170392
170580
170766
170950
171132
171314
171494
171668
171846
172024
172206
172388
172566
172742
172920
173094
173266
173438
173612
173786
173962
174136
174312
174490
174668
174846
175030
175212
175394
175578
175762
175946
176130
176312
176490
176668
176846
177022
177196
177366
177534
177698
177864
178026
178188
178350
178512
178670
178828
178986
179146
179306
179466
179626
179790
179954
180116
180282
180450
180618
180786
180956
181122
181284
181442
181604
181762
181920
182076
182234
182392
182550
182706
182866
183020
183176
183332
183498
183658
183816
183974
184134
184296
184456
184622
184784
184950
185116
185284
185450
185620
185788
185954
186120
186290
186458
186626
186794
186966
187136
187304
187470
187638
187806
187972
188138
188306
188472
188636
188802
188964
189124
189286
189446
189606
189762
189916
190070
190222
190374
190524
190674
190828
190986
191144
191306
191470
191636
191806
191976
192146
192316
192478
192642
192806
192970
193136
193302
193466
193632
193796
193956
194120
194284
194444
194608
194770
194928
195086
195244
195402
195558
195716
195878
196038
196200
196360
196522
196684
196844
197004
197164
197324
197482
197640
197800
197958
198116
198272
198430
198590
198744
198900
199054
199208
199364
199518
199672
199830
199988
200144
200296
200454
200606
200758
200906
201056
201206
201352
201494
201638
201782
201926
202066
202206
202348
202490
202628
202770
202912
203052
203194
203338
203484
203630
203774
203918
204064
204210
204356
204502
204648
204796
204940
205086
205230
205374
205514
205656
205796
205936
206076
206212
206352
206488
206620
206766
206904
207046
207188
207336
207486
207640
207796
207954
208114
208276
208436
208598
208758
208918
209082
209242
209398
209556
209710
209864
210022
210184
210348
210514
210678
210840
211000
211156
211312
211468
211622
211774
211936
212098
212260
212424
212584
212742
212896
213052
213206
213358
213508
213670
213824
213976
214126
214278
214430
214578
214728
214876
215022
215166
215312
215458
215602
215744
215888
216032
216176
216320
216462
216608
216754
216896
217038
217180
217324
217470
217616
217760
217906
218050
218202
218356
218512
218670
218824
218978
219134
219288
219444
219602
219760
219916
220068
220218
220368
220518
220670
220824
220984
221146
221302
221456
221604
221752
221900
222048
222200
222356
222512
222664
222816
222970
223128
223290
223452
223610
223768
223926
224086
224238
224400
224562
224720
224880
225038
225190
225342
225494
225654
225812
225974
226130
226286
226442
226598
226754
226908
227070
227230
227390
227552
227710
227870
228026
228182
228336
228492
228646
228804
228962
229118
229276
229430
229582
229730
229880
230030
230186
230340
230494
230644
230796
230948
231102
231256
231432
231602
231768
231936
232100
232260
232416
232586
232754
232920
233084
233246
233406
233564
233722
233878
234038
234194
234352
234508
234664
234828
234994
235164
235330
235488
235646
235804
235966
236126
236288
236446
236602
236754
236908
237066
237218
237364
237512
237658
237800
237944
238084
238228
238370
238520
238672
238824
238976
239128
239282
239434
239582
239734
239886
240042
240196
240350
240506
240666
240826
240986
241152
241308
241466
241626
241794
241962
242130
242296
242462
242600
242788
242954
243120
243278
243442
243606
243770
243936
244100
244264
244428
244592
244756
244918
245082
245244
245406
245570
245732
245892
246064
246238
246410
246576
246744
246914
247082
247246
247410
247574
247740
247902
248064
248226
248386
248548
248710
248872
249034
249198
249364
249530
249696
249866
250036
250204
250372
250538
250702
250862
251024
251188
251352
251512
251672
251834
251996
252156
252312
252472
252630
252786
252946
253110
253272
253430
253592
253756
253916
254076
254238
254400
254560
254716
254876
255034
255190
255346
255502
255658
255814
255972
256130
256288
256448
256612
256774
256932
257094
257258
257420
257582
257744
257900
258056
258212
258380
258548
258712
258872
259034
259192
259350
259506
259668
259826
259980
260136
260304
260472
260636
260798
260962
261110
261290
261454
261612
261772
261930
262088
262258
262426
262596
262756
262916
263080
263248
263418
263582
263740
263898
264058
264216
264388
264560
264732
264904
265072
265238
265402
265566
265724
265882
266038
266196
266362
266530
266690
266848
267004
267158
267310
267464
267620
267760
267930
268086
268242
268396
268552
268710
268876
269040
269210
269384
269558
269726
269890
270052
270216
270380
270544
270708
270872
271036
271204
271368
271530
271690
271852
272016
272176
272350
272522
272694
272864
273036
273208
273374
273542
273712
273878
274044
274212
274380
274548
274714
274884
275052
275218
275384
275552
275718
275882
276048
276212
276374
276534
276698
276860
277020
277178
277336
277494
277654
277814
277988
278160
278332
278508
278682
278854
279026
279200
279374
279546
279722
279898
280076
280252
280432
280612
280790
280968
281146
281320
281494
281668
281840
282010
282178
282346
282512
282676
282844
283010
283176
283342
283510
283682
283850
284028
284204
284376
284546
284716
284886
285052
285218
285384
285544
285706
285868
286028
286188
286348
286506
286704
286888
287068
287246
287420
287592
287756
287918
288084
288250
288414
288578
288744
288910
289078
289246
289416
289590
289764
289938
290112
290288
290464
290640
290814
290992
291170
291348
291526
291704
291884
292060
292238
292418
292594
292772
292948
293120
293292
293464
293640
293814
293986
294162
294334
294504
294672
294840
295008
295176
295340
295508
295674
295840
296006
296174
296342
296508
296676
296842
297008
297174
297342
297508
297672
297840
298006
298172
298338
298508
298678
298844
299014
299182
299350
299516
299680
299846
300010
300176
300340
300506
300674
300800
300932
301132
301276
301458
301622
301786
301932
302064
302194
302396
302562
302728
302894
303058
303212
303366
303520
303674
303836
303998
304160
304326
304492
304664
304828
305002
305168
305336
305508
305676
305846
306018
306192
306364
306536
306710
306884
307058
307232
307406
307576
307752
307926
308102
308274
308448
308624
308800
308974
309148
309320
309494
309666
309836
310006
310172
310336
310504
310670
310838
311014
311190
311364
311536
311702
311868
312034
312196
312366
312532
312700
312872
313042
313220
313398
313576
313752
313928
314110
314294
314476
314660
314846
315030
315216
315400
315586
315774
315908
316144
316282
316502
316636
316840
316964
317182
317356
317532
317708
317896
318070
318248
318426
318608
318792
318974
319160
319352
319548
319744
319940
320140
320344
320546
320748
320954
321160
321364
321570
321776
321980
322182
322386
322590
322794
322994
323200
323404
323606
323810
324016
324222
324426
324634
324840
325044
325250
325452
325652
325854
326054
326252
326452
326654
326856
327054
327258
327464
327666
327872
328078
328284
328488
328698
328906
329112
329324
329536
329746
329956
330168
330380
330588
330796
331006
331156
331396
331622
331832
332040
332250
332456
332662
332872
333080
333284
333492
333700
333906
334112
334318
334524
334730
334936
335142
335346
335552
335758
335960
336164
336368
336572
336774
336980
337186
337390
337594
337796
338002
338210
338414
338622
338832
339036
339242
339450
339656
339860
340066
340272
340476
340680
340888
341092
341294
341502
341708
341912
342116
342322
342530
342736
342946
343154
343362
343570
343780
343990
344198
344404
344610
344814
345012
345212
345412
345616
345820
346024
346228
346436
346646
346852
347062
347272
347484
347694
347906
348122
348336
348550
348766
348984
349198
349416
349634
349852
350068
350284
350502
350718
350934
351152
351370
351584
351804
352024
352240
352458
352676
352892
353100
353306
353508
353710
353906
354104
354302
354502
354704
354910
355120
355332
355546
355760
355976
356194
356412
356628
356844
357060
357280
357500
357724
357950
358176
358404
358630
358858
359084
359310
359534
359756
359978
360204
360430
360658
360890
361124
361360
361594
361830
362066
362300
362534
362766
363000
363230
363458
363688
363916
364144
364376
364608
364840
365070
365296
365520
365738
365950
366162
366372
366586
366802
367018
367238
367462
367686
367912
368136
368362
368582
368802
369024
369244
369466
369688
369914
370142
370372
370602
370832
371060
371286
371512
371736
371958
372182
372402
372624
372848
373072
373300
373528
373758
373990
374220
374446
374670
374890
375102
375310
375522
375734
375942
376160
376382
376600
376820
377040
377264
377482
377696
377918
378140
378360
378578
378792
379012
379230
379446
379666
379886
380102
380320
380540
380758
380976
381192
381406
381624
381842
382062
382284
382502
382724
382942
383158
383368
383574
383778
383986
384168
384396
384600
384806
385016
385224
385432
385644
385856
386066
386280
386492
386704
386916
387128
387340
387552
387764
387978
388188
388402
388616
388830
389040
389256
389470
389686
389900
390116
390332
390546
390760
390976
391188
391398
391606
391810
392012
392216
392414
392610
392808
393006
393204
393402
393604
393806
394008
394218
394428
394640
394852
395064
395278
395492
395708
395920
396134
396350
396568
396780
396996
397212
397428
397642
397858
398074
398292
398506
398724
398942
399160
399378
399600
399822
400044
400268
400492
400714
400938
401164
401386
401606
401830
402050
402266
402482
402696
402908
403118
403328
403538
403746
403954
404164
404374
404582
404794
405008
405218
405428
405642
405854
406066
406280
406496
406710
406924
407142
407360
407578
407796
408016
408236
408454
408674
408894
409114
409334
409558
409778
409994
410214
410434
410652
410868
411088
411306
411522
411738
411956
412172
412386
412602
412818
413032
413246
413462
413678
413892
414108
414324
414538
414752
414970
415184
415398
415616
415830
416044
416258
416472
416684
416896
417106
417310
417514
417710
417910
418110
418306
418504
418704
418906
419106
419310
419514
419718
419922
420130
420338
420544
420752
420966
421178
421394
421610
421828
422050
422268
422488
422708
422928
423148
423368
423588
423808
424026
424246
424466
424684
424902
425120
425336
425550
425764
425978
426190
426398
426610
426820
427026
427234
427444
427646
427852
428054
428254
428460
428662
428862
429064
429268
429472
429676
429882
430088
430294
430498
430704
430910
431112
431312
431506
431698
431888
432084
432280
432476
432674
432878
433084
433292
433500
433710
433924
434138
434350
434568
434784
435002
435216
435434
435654
435872
436090
436308
436530
436752
436972
437192
437414
437636
437856
438076
438296
438516
438734
438952
439170
439390
439606
439824
440044
440262
440480
440698
440920
441144
441364
441584
441808
442028
442248
442468
442690
442910
443126
443346
443564
443784
444000
444218
444436
444654
444870
445090
445312
445532
445752
445974
446196
446416
446634
446856
447074
447290
447506
447722
447936
448150
448368
448584
448798
449014
449230
449446
449660
449876
450092
450306
450518
450734
450950
451162
451374
451590
451806
452020
452236
452454
452670
452884
453100
453316
453530
453746
453960
454174
454388
454604
454820
455034
455250
455470
455690
455906
456124
456344
456562
456778
456996
457214
457430
457646
457864
458078
458290
458504
458716
458926
459138
459348
459558
459768
459980
460192
460402
460614
460826
461038
461250
461464
461678
461892
462106
462322
462536
462748
462962
463174
463384
463592
463802
464010
464214
464420
464626
464830
465034
465242
465448
465652
465856
466064
466270
466472
466678
466882
467086
467292
467498
467702
467906
468112
468318
468524
468728
468932
469132
469330
469522
469718
469912
470102
470296
470492
470686
470880
471078
471274
471472
471670
471872
472072
472272
472472
472674
472878
473082
473282
473482
473682
473880
474076
474274
474472
474674
474876
475080
475284
475490
475700
475912
476124
476338
476552
476770
476990
477208
477428
477648
477870
478092
478310
478532
478752
478970
479188
479406
479626
479844
480060
480280
480498
480718
480934
481154
481374
481594
481812
482032
482252
482472
482690
482910
483130
483348
483566
483784
484004
484222
484440
484660
484880
485096
485312
485530
485748
485964
486182
486400
486614
486832
487048
487266
487480
487694
487910
488124
488336
488550
488764
488978
489190
489404
489618
489830
490042
490254
490468
490682
490896
491114
491334
491550
491770
491988
492206
492422
492640
492856
493070
493282
493496
493708
493918
494128
494338
494548
494756
494964
495174
495380
495590
495800
496010
496220
496432
496646
496862
497078
497294
497510
497728
497944
498162
498382
498600
498820
499038
499258
499478
499696
499914
500134
500352
500570
500790
501010
501230
501448
501666
501886
502102
502320
502540
502758
502976
503194
503414
503634
503852
504072
504296
504518
504738
504960
505184
505408
505628
505850
506072
506292
506512
506732
506950
507166
507382
507596
507806
508016
508222
508424
508620
508814
509006
509200
509392
509584
509776
509972
510170
510368
510568
510770
510972
511174
511378
511586
511796
512018
512236
512458
512678
512898
513118
513338
513562
513784
514004
514224
514444
514660
514878
515094
515308
515518
515728
515932
516136
516340
516540
516738
516938
517138
517338
517538
517742
517946
518152
518360
518570
518780
518992
519208
519422
519636
519850
520066
520280
520496
520712
520924
521136
521350
521564
521778
521994
522204
522418
522630
522840
523050
523262
523474
523684
523894
524104
524314
524524
524734
524944
525152
525360
525568
525778
525986
526194
526402
526610
526818
527024
527230
527432
527632
527830
528032
528224
528410
528588
528766
528942
529118
529296
529474
529652
529828
530004
530180
530354
530528
530700
530872
531042
531214
531388
531566
531748
531934
532124
532316
532512
532714
532920
533138
533360
533578
533796
534012
534224
534438
534654
534866
535076
535232
535486
535700
535908
536112
536318
536524
536724
536924
537124
537326
537522
537718
537918
538118
538316
538514
538714
538914
539112
539310
539512
539712
539912
540114
540320
540526
540732
540938
541142
541346
541548
541754
541956
542156
542352
542548
542746
542940
543134
543332
543530
543724
543922
544124
544324
544526
544730
544930
545130
545332
545534
545734
545932
546130
546328
546526
546720
546918
547114
547302
547452
547668
547852
548034
548216
548394
548572
548752
548928
549102
549274
549448
549622
549794
549966
550138
550310
550486
550668
550854
551050
551248
551454
551656
551854
552054
552260
552468
552674
552882
553088
553298
553504
553710
553912
554114
554316
554516
554710
554908
555106
555302
555498
555690
555886
556084
556278
556474
556670
556868
557066
557262
557460
557660
557862
558064
558266
558468
558672
558874
559076
559276
559476
559674
559874
560064
560256
560446
560632
560818
560998
561176
561354
561530
561708
561888
562070
562258
562452
562654
562858
563072
563280
563490
563704
563916
564132
564344
564552
564716
564962
565164
565358
565554
565754
565952
566150
566348
566552
566760
566968
567170
567374
567576
567778
567978
568182
568386
568590
568790
568988
569188
569382
569574
569770
569960
570156
570356
570558
570756
570958
571160
571362
571566
571770
571976
572180
572382
572584
572784
572984
573184
573382
573584
573790
573992
574194
574398
574606
574814
575018
575226
575434
575642
575848
576054
576262
576470
576678
576884
577092
577304
577514
577722
577932
578144
578354
578566
578774
578988
579200
579408
579620
579832
580042
580252
580464
580674
580886
581094
581308
581520
581730
581942
582152
582360
582566
582774
582978
583182
583388
583592
583794
583994
584196
584394
584586
584778
584968
585156
585342
585524
585706
585884
586064
586248
586436
586628
586822
587016
587208
587408
587610
587810
588012
588216
588422
588628
588836
589046
589254
589462
589666
589860
590056
590258
590462
590668
590870
591080
591290
591504
591720
591928
592138
592350
592560
592770
592982
593192
593404
593612
593822
594034
594242
594452
594660
594868
595060
595286
595494
595702
595912
596122
596332
596542
596754
596966
597174
597386
597598
597810
598022
598234
598450
598664
598880
599092
599308
599524
599736
599950
600164
600372
600582
600794
601004
601212
601422
601632
601838
602044
602250
602458
602662
602868
603074
603278
603484
603692
603900
604104
604308
604510
604714
604914
605112
605304
605494
605680
605860
606038
606212
606386
606556
606722
606886
607048
607208
607368
607526
607688
607852
608022
608198
608378
608568
608764
608968
609174
609380
609584
609788
609994
610200
610402
610604
610814
611026
611236
611442
611650
611858
612066
612270
612474
612678
612878
613080
613282
613474
613670
613864
614050
614232
614414
614594
614768
614942
615122
615304
615490
615642
615874
616078
616286
616496
616708
616910
617112
617318
617526
617734
617938
618146
618356
618568
618774
618984
619194
619402
619608
619814
620022
620228
620434
620640
620848
621052
621260
621468
621674
621880
622086
622292
622498
622702
622908
623114
623318
623524
623730
623938
624144
624350
624558
624766
624970
625176
625380
625582
625782
625980
626168
626356
626544
626724
626906
627086
627260
627436
627610
627784
627958
628134
628304
628478
628654
628830
629006
629184
629362
629542
629722
629908
630096
630284
630472
630662
630854
631048
631240
631432
631628
631818
632010
632204
632390
632574
632760
632948
633132
633320
633508
633702
633892
634084
634276
634462
634646
634830
635008
635182
635356
635526
635694
635862
636030
636200
636376
636556
636738
636922
637116
637310
637506
637702
637896
638090
638284
638482
638596
638836
639036
639234
639434
639636
639834
640032
640230
640428
640624
640820
641018
641216
641412
641610
641808
642004
642200
642400
642596
642792
642988
643186
643380
643542
643692
643906
644082
644250
644412
644570
644726
644880
645032
645182
645334
645484
645632
645780
645928
646076
646226
646376
646530
646682
646836
646990
647142
647296
647450
647606
647764
647920
648080
648238
648398
648558
648722
648890
649058
649230
649402
649572
649738
649906
650068
650232
650394
650558
650716
650876
651038
651200
651360
651528
651696
651866
652032
652202
652344
652536
652706
652874
653046
653210
653378
653544
653710
653878
654044
654212
654378
654542
654702
654860
655018
655174
655330
655484
655634
655788
655938
656086
656234
656382
656526
656670
656814
656956
657100
657242
657384
657524
657664
657806
657946
658086
658224
658364
658502
658640
658778
658916
659052
659188
659324
659460
659596
659730
659864
659998
660130
660262
660394
660528
660664
660798
660932
661070
661210
661350
661488
661628
661772
661914
662058
662202
662346
662494
662642
662794
662946
663098
663250
663402
663552
663702
663850
663996
664140
664284
664428
664572
664716
664858
665002
665146
665288
665430
665572
665714
665856
665998
666142
666286
666434
666584
666734
666884
667034
667186
667338
667494
667654
667816
667978
668138
668298
668458
668622
668784
668946
669106
669264
669420
669576
669740
669900
670058
670214
670370
670522
670672
670822
670972
671122
671274
671426
671582
671736
671892
672048
672204
672360
672514
672670
672824
672976
673130
673286
673442
673600
673758
673920
674082
674244
674404
674566
674734
674894
675064
675226
675392
675556
675714
675872
676030
676186
676344
676504
676660
676828
676988
677148
677308
677464
677616
677768
677922
678078
678238
678394
678552
678712
678874
679032
679200
679366
679532
679696
679864
680026
680186
680348
680516
680686
680850
681012
681176
681338
681500
681658
681816
681968
682124
682278
682426
682576
682726
682878
683026
683176
683326
683480
683634
683792
683952
684112
684270
684430
684590
684742
684894
685046
685194
685340
685484
685630
685774
685916
686060
686204
686346
686486
686628
686770
686914
687058
687202
687352
687504
687658
687814
687972
688132
688288
688450
688612
688770
688930
689090
689250
689406
689562
689718
689878
690034
690188
690348
690506
690662
690820
690980
691140
691300
691462
691622
691776
691934
692090
692248
692402
692560
692716
692870
693020
693168
693320
693470
693620
693770
693926
694080
694234
694390
694544
694700
694854
695008
695162
695312
695464
695616
695770
695922
696074
696228
696384
696538
696694
696850
697004
697154
697304
697452
697600
697748
697892
698034
698176
698316
698454
698592
698728
698866
699002
699142
699278
699416
699556
699694
699834
699974
700116
700254
700396
700538
700678
700816
700954
701094
701232
701370
701508
701646
701784
701920
702058
702196
702338
702476
702616
702754
702896
703036
703174
703312
703450
703588
703724
703862
704000
704136
704270
704404
704540
704676
704812
704948
705088
705228
705368
705508
705650
705792
705932
706072
706210
706350
706494
706638
706778
706918
707060
707202
707340
707480
707622
707764
707902
708042
708184
708324
708464
708604
708744
708882
709022
709158
709298
709438
709576
709714
709854
709996
710136
710278
710418
710562
710708
710856
711006
711154
711306
711462
711598
711774
711932
712092
712256
712416
712570
712726
712892
713060
713230
713396
713564
713728
713890
714050
714210
714370
714540
714712
714882
715054
715222
715388
715554
715716
715876
716036
716200
716362
716530
716700
716870
717040
717202
717366
717530
717692
717854
718016
718174
718332
718492
718646
718802
718958
719116
719276
719436
719600
719768
719932
720094
720250
720404
720558
720708
720860
721012
721166
721316
721472
721628
721782
721932
722090
722246
722402
722556
722710
722866
723024
723178
723330
723484
723638
723794
723946
724096
724250
724406
724564
724716
724868
725024
725180
725334
725486
725640
725794
725950
726102
726254
726406
726560
726712
726862
727012
727164
727314
727462
727578
727750
727902
728052
728200
728348
728494
728640
728786
728930
729074
729218
729362
729504
729646
729784
729924
730064
730206
730352
730500
730648
730796
730946
731098
731248
731398
731552
731706
731860
732014
732166
732320
732476
732634
732792
732952
733108
733264
733428
733592
733730
733918
734084
734252
734414
734574
734732
734892
735054
735218
735380
735546
735714
735882
736044
736202
736350
736520
736680
736842
737002
737160
737320
737484
737646
737808
737972
738138
738304
738468
738632
738794
738956
739122
739288
739452
739620
739788
739956
740118
740280
740442
740602
740764
740922
741082
741244
741410
741572
741736
741898
742060
742220
742380
742538
742696
742856
743018
743178
743342
743508
743670
743832
743996
744162
744328
744494
744660
744822
744984
745146
745306
745462
745618
745778
745936
746094
746252
746410
746566
746722
746880
747042
747204
747364
747526
747688
747848
748006
748164
748316
748470
748622
748784
748948
749112
749276
749444
749608
749770
749930
750092
750246
750400
750552
750704
750856
751008
751164
751322
751482
751644
751808
751972
752138
752304
752472
752640
752802
752970
753140
753312
753480
753648
753814
753984
754150
754316
754478
754642
754802
754964
755124
755284
755442
755602
755764
755924
756084
756242
756400
756558
756716
756870
757024
757180
757332
757486
757638
757790
757940
758088
758238
758390
758540
758690
758838
758990
759140
759292
759440
759590
759740
759892
760048
760202
760356
760510
760664
760818
760966
761118
761272
761426
761580
761734
761886
762040
762194
762346
762502
762662
762822
762980
763140
763298
763454
763610
763764
763912
764060
764208
764356
764506
764656
764806
764956
765104
765250
765396
765540
765686
765832
765980
766130
766278
766426
766574
766722
766866
767012
767160
767310
767458
767608
767756
767902
768052
768204
768360
768516
768672
768830
768986
769144
769296
769450
769604
769756
769906
770058
770206
770356
770508
770666
770822
770982
771144
771308
771470
771636
771802
771966
772132
772300
772462
772626
772790
772950
773112
773272
773434
773596
773754
773912
774072
774230
774390
774552
774714
774874
775038
775198
775358
775518
775674
775834
775996
776160
776324
776488
776652
776814
776976
777132
777294
777456
777620
777782
777942
778098
778248
778400
778550
778700
778848
779000
779154
779306
779460
779616
779774
779928
780088
780248
780410
780572
780736
780900
781064
781234
781404
781572
781738
781902
782066
782232
782396
782560
782722
782884
783044
783204
783362
783520
783682
783840
784002
784166
784332
784498
784664
784828
784994
785164
785336
785506
785674
785836
786000
786162
786326
786488
786650
786814
786976
787138
787302
787466
787630
787794
787958
788122
788286
788448
788610
788774
788934
789096
789258
789422
789582
789742
789904
790064
790222
790384
790546
790704
790862
791020
791178
791338
791498
791656
791814
791972
792128
792286
792444
792602
792764
792930
793098
793268
793438
793604
793772
793936
794102
794266
794430
794594
794758
794920
795084
795250
795412
795578
795744
795910
796078
796248
796420
796594
796768
796942
797116
797290
797468
797644
797820
797992
798168
798342
798514
798688
798864
799038
799216
799392
799570
799748
799928
800106
800284
800460
800638
800816
800994
801172
801350
801528
801708
801890
802076
802262
802452
802644
802838
803034
803228
803426
803624
803822
804022
804220
804418
804618
804816
805012
805210
805408
805602
805794
805988
806180
806372
806560
806748
806938
807126
807314
807504
807694
807884
808070
808256
808438
808620
808800
808978
809158
809336
809512
809688
809860
810032
810206
810378
810554
810732
810910
811090
811272
811458
811646
811838
812030
812226
812426
812626
812826
813026
813226
813426
813628
813828
814030
814232
814434
814636
814840
815044
815246
815452
815658
815862
816066
816272
816478
816684
816888
817092
817298
817504
817708
817912
818118
818322
818526
818732
818934
819138
819336
819532
819726
819918
820104
820292
820474
820662
820848
821036
821224
821414
821604
821796
821990
822182
822376
822572
822766
822960
823156
823352
823546
823738
823934
824126
824318
824512
824704
824894
825086
825280
825472
825668
825862
826058
826258
826456
826656
826856
827058
827260
827462
827660
827862
828066
828268
828466
828666
828864
829064
829262
829462
829662
829864
830066
830268
830472
830676
830880
831082
831286
831490
831692
831894
832096
832300
832502
832702
832904
833106
833308
833508
833714
833918
834122
834326
834534
834740
834946
835152
835360
835566
835772
835976
836180
836384
836586
836786
836988
837188
837388
837586
837788
837992
838194
838394
838596
838798
839000
839200
839400
839602
839802
840002
840202
840406
840610
840816
841020
841226
841432
841638
841840
842044
842248
842450
842650
842852
843052
843252
843452
843654
843856
844058
844258
844462
844664
844866
845070
845276
845478
845682
845884
846090
846294
846496
846696
846900
847102
847306
847508
847714
847918
848124
848328
848534
848740
848946
849148
849354
849558
849764
849966
850170
850376
850580
850784
850988
851192
851398
851600
851804
852008
852212
852416
852618
852822
853026
853230
853432
853636
853840
854046
854250
854458
854666
854874
855082
855290
855496
855702
855904
856108
856312
856514
856716
856920
857124
857328
857530
857738
857944
858150
858356
858562
858770
858978
859182
859390
859596
859798
860000
860206
860412
860616
860818
861020
861222
861420
861618
861816
862014
862214
862410
862608
862804
863002
863198
863394
863594
863794
863990
864190
864392
864594
864794
864992
865192
865392
865588
865786
865986
866186
866384
866582
866784
866986
867188
867390
867596
867800
868000
868204
868408
868610
868810
869014
869218
869420
869622
869824
870024
870226
870424
870626
870826
871024
871222
871424
871626
871824
872024
872226
872430
872628
872830
873032
873232
873432
873634
873836
874038
874238
874444
874648
874850
875048
875244
875438
875626
875816
876002
876182
876362
876538
876716
876892
877062
877230
877404
877586
877760
877932
878102
878272
878440
878606
878770
878936
879104
879274
879446
879630
879812
880028
880234
880440
880648
880856
881066
881270
881470
881668
881866
882066
882262
882462
882662
882860
883058
883256
883456
883656
883856
884056
884256
884454
884652
884848
885046
885242
885434
885630
885826
886022
886216
886410
886604
886800
886992
887182
887372
887562
887748
887934
888120
888304
888486
888668
888846
889028
889210
889392
889572
889754
889934
890112
890292
890472
890650
890828
891006
891182
891356
891536
891714
891890
892068
892244
892424
892602
892780
892958
893134
893312
893488
893662
893834
894006
894178
894352
894524
894700
894876
895054
895236
895418
895602
895786
895972
896160
896352
896544
896738
896934
897126
897322
897510
897702
897892
898080
898268
898454
898644
898834
899020
899206
899394
899578
899768
899956
900142
900328
900512
900700
900882
901064
901250
901432
901610
901792
901972
902150
902330
902510
902688
902864
903040
903216
903392
903568
903744
903922
904100
904278
904404
904636
904818
904998
905180
905362
905544
905724
905908
906090
906274
906462
906652
906836
907022
907206
907388
907572
907760
907944
908126
908320
908506
908690
908874
909056
909238
909422
909606
909792
909982
910168
910354
910542
910738
910934
911126
911320
911516
911714
911910
912106
912302
912500
912696
912892
913088
913282
913480
913676
913872
914066
914264
914462
914660
914858
915054
915250
915446
915644
915842
916038
916234
916428
916620
916812
917004
917194
917378
917560
917742
917922
918104
918286
918468
918650
918834
919016
919202
919388
919586
919780
919968
920160
920350
920542
920736
920928
921120
921316
921512
921708
921902
922098
922294
922492
922690
922888
923086
923286
923484
923684
923884
924084
924282
924482
924682
924882
925084
925284
925484
925682
925880
926078
926276
926476
926676
926878
927078
927274
927474
927672
927870
928066
928262
928458
928652
928842
929036
929228
929418
929610
929804
929996
930190
930378
930568
930758
930948
931136
931324
931514
931704
931892
932082
932272
932462
932652
932842
933028
933218
933406
933594
933782
933972
934160
934346
934534
934718
934900
935080
935256
935432
935608
935786
935964
936144
936328
936522
936710
936904
937094
937294
937508
937712
937912
938112
938310
938504
938700
938896
939088
939282
939476
939670
939864
940054
940248
940442
940634
940826
941020
941212
941404
941594
941784
941976
942168
942362
942556
942754
942952
943150
943348
943548
943746
943944
944140
944338
944536
944734
944932
945128
945326
945524
945724
945922
946118
946318
946518
946716
946914
947112
947310
947502
947698
947892
948086
948282
948476
948672
948864
949060
949256
949454
949652
949848
950046
950240
950432
950628
950822
951016
951210
951404
951598
951788
951980
952174
952366
952558
952750
952944
953138
953330
953524
953720
953914
954110
954306
954502
954698
954892
955088
955284
955482
955678
955874
956066
956262
956458
956654
956848
957042
957236
957430
957624
957814
958000
958186
958372
958560
958748
958938
959126
959314
959504
959694
959886
960078
960270
960464
960654
960848
961042
961236
961430
961624
961818
962012
962206
962402
962598
962792
962988
963186
963384
963584
963782
963980
964174
964372
964570
964768
964970
965170
965372
965572
965772
965970
966164
966360
966556
966748
966938
967134
967326
967518
967710
967902
968090
968280
968472
968662
968854
969044
969236
969430
969624
969818
970010
970200
970392
970586
970780
970976
971170
971366
971556
971752
971946
972140
972336
972532
972724
972918
973112
973308
973504
973702
973898
974098
974296
974494
974690
974886
975082
975278
975474
975670
975864
976056
976252
976446
976642
976838
977034
977228
977424
977620
977818
978014
978210
978404
978596
978790
978984
979178
979370
979564
979762
979958
980154
980350
980542
980736
980932
981126
981322
981518
981710
981900
982090
982282
982474
982666
982860
983054
983246
983438
983634
983830
984026
984222
984420
984614
984804
984992
985182
985368
985552
985738
985924
986110
986298
986484
986672
986858
987042
987230
987420
987608
987796
987986
988174
988360
988550
988740
988930
989120
989312
989502
989694
989888
990076
990268
990458
990648
990840
991032
991226
991420
991616
991812
992010
992206
992400
992590
992784
992976
993168
993358
993550
993738
993928
994116
994304
994492
994682
994870
995060
995250
995438
995626
995816
996004
996192
996380
996566
996750
996932
997114
997290
997466
997644
997820
997994
998174
998364
998548
998736
998924
999138
999336
999528
999720
999914
1000110
1000308
1000510
1000712
1000908
1001098
1001290
1001484
1001680
1001876
1002072
1002270
1002466
1002664
1002862
1003060
1003260
1003456
1003652
1003852
1004050
1004250
1004452
1004654
1004856
1005058
1005258
1005456
1005648
1005846
1006044
1006240
1006438
1006634
1006832
1007024
1007220
1007414
1007608
1007802
1007996
1008190
1008382
1008572
1008762
1008950
1009138
1009326
1009512
1009696
1009884
1010070
1010258
1010448
1010640
1010834
1011026
1011214
1011408
1011602
1011796
1011992
1012186
1012376
1012572
1012766
1012964
1013164
1013366
1013568
1013766
1013962
1014160
1014360
1014558
1014758
1014958
1015154
1015350
1015550
1015748
1015950
1016150
1016350
1016550
1016748
1016938
1017134
1017330
1017524
1017720
1017914
1018110
1018300
1018496
1018692
1018890
1019088
1019286
1019478
1019676
1019876
1020076
1020276
1020478
1020680
1020880
1021078
1021278
1021478
1021678
1021876
1022072
1022268
1022464
1022660
1022854
1023044
1023240
1023434
1023628
1023822
1024012
1024206
1024400
1024592
1024780
1024966
1025148
1025332
1025516
1025698
1025882
1026068
1026254
1026442
1026632
1026820
1027008
1027198
1027390
1027582
1027776
1027970
1028166
1028360
1028554
1028750
1028948
1029148
1029346
1029546
1029744
1029940
1030138
1030336
1030534
1030734
1030932
1031130
1031324
1031522
1031720
1031920
1032118
1032320
1032520
1032716
1032912
1033110
1033304
1033498
1033690
1033882
1034072
1034262
1034454
1034646
1034836
1035030
1035220
1035412
1035604
1035792
1035984
1036176
1036368
1036560
1036754
1036944
1037134
1037326
1037518
1037710
1037904
1038098
1038290
1038482
1038672
1038862
1039052
1039240
1039430
1039620
1039810
1039998
1040186
1040376
1040568
1040760
1040954
1041146
1041334
1041526
1041718
1041910
1042104
1042298
1042488
1042682
1042876
1043070
1043264
1043462
1043658
1043852
1044044
1044238
1044428
1044622
1044814
1045006
1045194
1045386
1045578
1045768
1045960
1046152
1046342
1046532
1046722
1046914
1047106
1047300
1047496
1047688
1047878
1048072
1048266
1048460
1048652
1048844
1049032
1049222
1049408
1049590
1049772
1049956
1050140
1050324
1050506
1050692
1050878
1051064
1051248
1051430
1051618
1051804
1051990
1052174
1052360
1052544
1052726
1052908
1053086
1053266
1053444
1053620
1053796
1053972
1054148
1054320
1054492
1054666
1054840
1055014
1055186
1055362
1055538
1055710
1055888
1056062
1056234
1056410
1056584
1056760
1056936
1057114
1057290
1057470
1057650
1057830
1058010
1058190
1058370
1058550
1058730
1058908
1059088
1059266
1059442
1059618
1059796
1059970
1060142
1060316
1060488
1060660
1060832
1061006
1061182
1061356
1061532
1061712
1061886
1062058
1062232
1062406
1062582
1062754
1062928
1063100
1063274
1063446
1063616
1063786
1063954
1064122
1064286
1064450
1064614
1064776
1064936
1065098
1065258
1065420
1065580
1065744
1065910
1066082
1066254
1066426
1066592
1066758
1066924
1067098
1067270
1067440
1067606
1067772
1067936
1068102
1068288
1068464
1068642
1068820
1069000
1069178
1069346
1069522
1069694
1069868
1070050
1070232
1070412
1070618
1070810
1070994
1071178
1071364
1071546
1071724
1071902
1072080
1072258
1072440
1072620
1072804
1072988
1073194
1073392
1073590
1073786
1073976
1074166
1074352
1074538
1074724
1074912
1075100
1075288
1075476
1075662
1075850
1076036
1076222
1076408
1076598
1076788
1076978
1077168
1077356
1077546
1077734
1077924
1078114
1078302
1078492
1078678
1078862
1079052
1079238
1079424
1079610
1079798
1079980
1080168
1080356
1080544
1080732
1080924
1081116
1081306
1081496
1081686
1081876
1082066
1082258
1082450
1082642
1082834
1083022
1083214
1083404
1083596
1083786
1083980
1084172
1084364
1084556
1084744
1084936
1085126
1085314
1085498
1085680
1085862
1086046
1086230
1086412
1086598
1086786
1086974
1087164
1087354
1087546
1087734
1087928
1088122
1088318
1088514
1088708
1088900
1089096
1089294
1089490
1089688
1089890
1090090
1090288
1090488
1090690
1090894
1091100
1091304
1091508
1091708
1091908
1092110
1092310
1092504
1092704
1092904
1093102
1093302
1093502
1093698
1093894
1094092
1094288
1094488
1094686
1094884
1095084
1095284
1095482
1095676
1095874
1096070
1096266
1096464
1096660
1096860
1097060
1097258
1097458
1097658
1097854
1098052
1098248
1098440
1098636
1098832
1099028
1099224
1099420
1099616
1099814
1100012
1100210
1100408
1100606
1100802
1100998
1101190
1101384
1101580
1101778
1101972
1102168
1102364
1102552
1102740
1102924
1103108
1103290
1103474
1103658
1103840
1104024
1104208
1104392
1104578
1104766
1104952
1105136
1105326
1105514
1105702
1105898
1106090
1106306
1106506
1106708
1106908
1107110
1107312
1107514
1107712
1107914
1108118
1108320
1108514
1108710
1108906
1109098
1109292
1109488
1109684
1109880
1110080
1110278
1110480
1110678
1110846
1111072
1111268
1111462
1111660
1111856
1112050
1112244
1112440
1112632
1112824
1113014
1113198
1113384
1113572
1113758
1113940
1114128
1114314
1114502
1114690
1114880
1115066
1115254
1115444
1115634
1115822
1116012
1116202
1116394
1116588
1116780
1116972
1117162
1117354
1117546
1117742
1117936
1118132
1118326
1118520
1118716
1118912
1119106
1119300
1119492
1119682
1119872
1120062
1120250
1120438
1120624
1120806
1120990
1121172
1121352
1121528
1121698
1121866
1122034
1122200
1122366
1122532
1122698
1122868
1123038
1123206
1123378
1123550
1123726
1123904
1124082
1124256
1124428
1124598
1124768
1124936
1125102
1125266
1125434
1125602
1125768
1125938
1126106
1126276
1126448
1126618
1126792
1126964
1127134
1127308
1127482
1127656
1127832
1128006
1128178
1128356
1128532
1128708
1128884
1129060
1129234
1129408
1129582
1129758
1129932
1130104
1130278
1130448
1130618
1130786
1130958
1131124
1131292
1131458
1131624
1131792
1131962
1132134
1132304
1132476
1132648
1132818
1132988
1133154
1133322
1133482
1133646
1133808
1133970
1134132
1134294
1134454
1134616
1134776
1134938
1135100
1135262
1135424
1135586
1135746
1135904
1136064
1136222
1136380
1136536
1136694
1136848
1137004
1137158
1137312
1137466
1137622
1137776
1137932
1138088
1138244
1138400
1138556
1138712
1138868
1139026
1139188
1139350
1139512
1139674
1139836
1140002
1140168
1140336
1140500
1140658
1140816
1140972
1141128
1141284
1141438
1141590
1141744
1141898
1142050
1142202
1142352
1142500
1142650
1142802
1142954
1143110
1143266
1143424
1143580
1143740
1143900
1144062
1144222
1144382
1144540
1144694
1144850
1145010
1145170
1145326
1145482
1145640
1145792
1145948
1146104
1146264
1146426
1146584
1146746
1146910
1147074
1147234
1147394
1147556
1147716
1147876
1148034
1148196
1148358
1148520
1148680
1148838
1148998
1149156
1149312
1149466
1149622
1149788
1149954
1150116
1150280
1150444
1150606
1150766
1150924
1151084
1151246
1151406
1151576
1151746
1151918
1152088
1152260
1152428
1152600
1152774
1152950
1153126
1153300
1153478
1153656
1153832
1154008
1154184
1154358
1154536
1154714
1154892
1155070
1155252
1155432
1155614
1155796
1155976
1156156
1156338
1156522
1156704
1156886
1157072
1157258
1157444
1157632
1157820
1158010
1158200
1158390
1158578
1158768
1158956
1159146
1159338
1159526
1159716
1159910
1160102
1160296
1160490
1160682
1160878
1161074
1161268
1161460
1161656
1161852
1162048
1162240
1162436
1162634
1162830
1163024
1163218
1163414
1163610
1163806
1164000
1164198
1164394
1164594
1164790
1164988
1165188
1165388
1165582
1165782
1165980
1166178
1166374
1166572
1166768
1166956
1167148
1167336
1167520
1167706
1167888
1168068
1168250
1168428
1168604
1168782
1168958
1169132
1169306
1169478
1169648
1169814
1169980
1170144
1170310
1170476
1170642
1170808
1170976
1171144
1171314
1171482
1171650
1171818
1171986
1172152
1172316
1172482
1172646
1172808
1172972
1173134
1173298
1173460
1173624
1173788
1173954
1174118
1174284
1174446
1174608
1174770
1174932
1175090
1175228
1175406
1175564
1175722
1175880
1176038
1176194
1176350
1176508
1176662
1176822
1176980
1177150
1177318
1177486
1177654
1177824
1177990
1178144
1178326
1178494
1178662
1178826
1178992
1179156
1179322
1179490
1179660
1179828
1179998
1180168
1180340
1180512
1180682
1180854
1181026
1181196
1181366
1181538
1181710
1181880
1182052
1182224
1182394
1182566
1182736
1182906
1183076
1183246
1183416
1183584
1183754
1183922
1184092
1184260
1184428
1184596
1184766
1184908
1185100
1185270
1185440
1185608
1185776
1185944
1186114
1186282
1186450
1186622
1186790
1186956
1187124
1187290
1187454
1187618
1187782
1187946
1188108
1188272
1188438
1188602
1188764
1188930
1189092
1189254
1189426
1189596
1189766
1189938
1190106
1190272
1190438
1190596
1190748
1190900
1191054
1191208
1191364
1191518
1191672
1191824
1191974
1192122
1192270
1192418
1192566
1192712
1192860
1193006
1193154
1193302
1193450
1193598
1193746
1193892
1194038
1194182
1194326
1194468
1194608
1194752
1194898
1195046
1195194
1195344
1195494
1195642
1195794
1195948
1196096
1196246
1196394
1196542
1196692
1196840
1196990
1197140
1197288
1197438
1197588
1197736
1197882
1198030
1198176
1198318
1198464
1198608
1198752
1198898
1199042
1199190
1199336
1199482
1199626
1199770
1199912
1200054
1200196
1200336
1200476
1200618
1200758
1200898
1201040
1201182
1201318
1201462
1201604
1201748
1201890
1202034
1202178
1202322
1202466
1202606
1202748
1202890
1203030
1203168
1203308
1203448
1203590
1203730
1203870
1204010
1204148
1204288
1204428
1204568
1204706
1204846
1204986
1205128
1205268
1205408
1205548
1205690
1205832
1205972
1206114
1206256
1206400
1206542
1206684
1206826
1206966
1207106
1207244
1207382
1207518
1207656
1207794
1207934
1208074
1208212
1208352
1208492
1208632
1208772
1208912
1209056
1209198
1209342
1209488
1209636
1209786
1209932
1210082
1210228
1210378
1210524
1210670
1210818
1210968
1211118
1211252
1211418
1211570
1211720
1211870
1212020
1212172
1212322
1212470
1212616
1212762
1212906
1213052
1213198
1213344
1213492
1213642
1213790
1213938
1214086
1214236
1214386
1214534
1214684
1214832
1214980
1215128
1215274
1215420
1215566
1215710
1215856
1216006
1216152
1216298
1216444
1216590
1216734
1216880
1217026
1217170
1217314
1217456
1217598
1217742
1217884
1218024
1218164
1218304
1218446
1218586
1218724
1218864
1219006
1219146
1219288
1219428
1219570
1219712
1219854
1219998
1220142
1220284
1220426
1220568
1220710
1220852
1220992
1221134
1221274
1221414
1221552
1221690
1221826
1221962
1222098
1222234
1222370
1222506
1222640
1222776
1222912
1223046
1223182
1223314
1223446
1223578
1223710
1223840
1223974
1224108
1224244
1224380
1224518
1224656
1224794
1224930
1225066
1225200
1225336
1225468
1225602
1225736
1225868
1226000
1226132
1226266
1226396
1226528
1226662
1226794
1226926
1227060
1227194
1227328
1227462
1227596
1227730
1227864
1227996
1228130
1228264
1228396
1228530
1228664
1228796
1228932
1229066
1229202
1229338
1229476
1229612
1229748
1229884
1230022
1230158
1230294
1230428
1230562
1230694
1230828
1230960
1231092
1231222
1231352
1231484
1231612
1231742
1231872
1232002
1232132
1232260
1232390
1232520
1232648
1232778
1232908
1233036
1233164
1233292
1233418
1233546
1233674
1233800
1233928
1234056
1234182
1234310
1234436
1234564
1234690
1234816
1234944
1235072
1235198
1235326
1235456
1235586
1235716
1235848
1235980
1236110
1236242
1236372
1236504
1236636
1236766
1236898
1237028
1237162
1237296
1237430
1237564
1237696
1237828
1237962
1238096
1238228
1238362
1238496
1238632
1238766
1238900
1239036
1239170
1239306
1239440
1239574
1239710
1239844
1239980
1240114
1240248
1240382
1240516
1240650
1240786
1240922
1241058
1241194
1241330
1241468
1241606
1241744
1241884
1242024
1242168
1242308
1242448
1242590
1242730
1242872
1243012
1243154
1243296
1243438
1243576
1243716
1243854
1243992
1244128
1244264
1244404
1244546
1244688
1244832
1244976
1245122
1245264
1245404
1245546
1245692
1245838
1245982
1246124
1246266
1246412
1246562
1246710
1246858
1247002
1247146
1247290
1247434
1247580
1247726
1247876
1248028
1248178
1248324
1248476
1248624
1248772
1248916
1249062
1249206
1249350
1249494
1249640
1249788
1249936
1250086
1250240
1250390
1250540
1250694
1250848
1250998
1251146
1251292
1251438
1251582
1251726
1251872
1252022
1252170
1252322
1252476
1252630
1252786
1252940
1253092
1253244
1253396
1253552
1253706
1253860
1254018
1254174
1254324
1254476
1254630
1254784
1254936
1255090
1255244
1255398
1255556
1255712
1255866
1256024
1256178
1256330
1256480
1256632
1256784
1256934
1257084
1257232
1257382
1257530
1257680
1257832
1257986
1258142
1258296
1258450
1258606
1258758
1258908
1259060
1259210
1259358
1259504
1259618
1259788
1259940
1260090
1260238
1260382
1260524
1260666
1260804
1260940
1261074
1261206
1261338
1261470
1261604
1261736
1261864
1262004
1262140
1262276
1262414
1262556
1262698
1262842
1262986
1263128
1263224
1263390
1263538
1263684
1263828
1263972
1264112
1264252
1264390
1264530
1264670
1264810
1264950
1265094
1265236
1265380
1265524
1265668
1265810
1265954
1266098
1266244
1266388
1266532
1266676
1266822
1266968
1267112
1267258
1267402
1267552
1267698
1267844
1267988
1268134
1268282
1268428
1268572
1268720
1268872
1269020
1269164
1269310
1269452
1269596
1269740
1269888
1270036
1270182
1270328
1270470
1270614
1270752
1270890
1271028
1271166
1271304
1271440
1271576
1271712
1271848
1271984
1272118
1272252
1272388
1272522
1272656
1272790
1272924
1273058
1273192
1273326
1273458
1273594
1273728
1273862
1273996
1274132
1274270
1274406
1274542
1274678
1274814
1274948
1275084
1275224
1275362
1275498
1275634
1275768
1275902
1276036
1276168
1276300
1276432
1276562
1276692
1276822
1276950
1277080
1277210
1277340
1277470
1277600
1277730
1277860
1277990
1278120
1278248
1278378
1278508
1278640
1278770
1278900
1279032
1279164
1279296
1279428
1279560
1279694
1279826
1279960
1280092
1280226
1280362
1280496
1280628
1280762
1280896
1281030
1281162
1281294
1281428
1281564
1281702
1281838
1281974
1282110
1282244
1282378
1282512
1282644
1282778
1282910
1283042
1283176
1283310
1283444
1283576
1283708
1283840
1283972
1284104
1284236
1284368
1284498
1284628
1284760
1284892
1285026
1285160
1285292
1285426
1285560
1285692
1285824
1285954
1286088
1286220
1286350
1286478
1286606
1286736
1286864
1286992
1287124
1287254
1287388
1287522
1287654
1287786
1287920
1288054
1288188
1288322
1288454
1288588
1288720
1288852
1288984
1289116
1289250
1289382
1289514
1289646
1289780
1289914
1290046
1290178
1290310
1290446
1290580
1290714
1290852
1290990
1291130
1291268
1291408
1291550
1291690
1291830
1291968
1292110
1292254
1292394
1292534
1292676
1292820
1292964
1293108
1293254
1293398
1293540
1293684
1293828
1293972
1294114
1294256
1294400
1294544
1294686
1294830
1294976
1295120
1295264
1295408
1295552
1295694
1295836
1295982
1296128
1296274
1296416
1296558
1296700
1296840
1296978
1297116
1297252
1297390
1297528
1297664
1297800
1297938
1298076
1298212
1298346
1298482
1298616
1298750
1298884
1299018
1299152
1299288
1299424
1299562
1299700
1299838
1299976
1300112
1300252
1300388
1300526
1300664
1300800
1300938
1301078
1301218
1301358
1301496
1301638
1301780
1301922
1302062
1302206
1302348
1302488
1302626
1302766
1302906
1303042
1303178
1303314
1303452
1303590
1303730
1303868
1304006
1304144
1304280
1304416
1304552
1304688
1304826
1304962
1305090
1305234
1305370
1305506
1305642
1305778
1305912
1306046
1306180
1306312
1306444
1306576
1306706
1306836
1306966
1307098
1307228
1307358
1307490
1307622
1307754
1307886
1308018
1308152
1308286
1308418
1308552
1308686
1308820
1308954
1309086
1309220
1309354
1309488
1309620
1309756
1309892
1310028
1310162
1310298
1310432
1310568
1310700
1310834
1310966
1311098
1311230
1311364
1311494
1311624
1311756
1311888
1312018
1312150
1312280
1312412
1312542
1312672
1312802
1312932
1313060
1313190
1313318
1313446
1313574
1313702
1313830
1313958
1314086
1314212
1314340
1314466
1314594
1314706
1314844
1314970
1315096
1315222
1315348
1315472
1315598
1315724
1315852
1315976
1316104
1316228
1316352
1316478
1316604
1316728
1316852
1316978
1317102
1317228
1317352
1317478
1317602
1317730
1317856
1317984
1318114
1318242
1318370
1318500
1318626
1318752
1318880
1319008
1319134
1319260
1319386
1319512
1319640
1319766
1319892
1320016
1320144
1320270
1320394
1320520
1320644
1320770
1320896
1321020
1321146
1321272
1321400
1321526
1321652
1321780
1321908
1322034
1322162
1322288
1322412
1322540
1322666
1322792
1322920
1323050
1323180
1323310
1323442
1323572
1323704
1323836
1323970
1324102
1324234
1324370
1324502
1324636
1324768
1324904
1325038
1325172
1325312
1325450
1325588
1325726
1325868
1326006
1326148
1326286
1326424
1326566
1326702
1326840
1326978
1327120
1327256
1327396
1327536
1327674
1327814
1327954
1328094
1328234
1328376
1328516
1328658
1328802
1328944
1329086
1329228
1329370
1329512
1329654
1329796
1329940
1330082
1330228
1330376
1330526
1330672
1330818
1330964
1331108
1331252
1331398
1331542
1331684
1331824
1331968
1332110
1332250
1332392
1332534
1332680
1332822
1332966
1333110
1333256
1333400
1333542
1333688
1333832
1333976
1334122
1334264
1334408
1334554
1334702
1334848
1334996
1335140
1335286
1335430
1335576
1335716
1335858
1335998
1336138
1336278
1336418
1336558
1336700
1336844
1336988
1337132
1337278
1337426
1337572
1337716
1337862
1338008
1338148
1338288
1338430
1338572
1338714
1338858
1339002
1339154
1339302
1339448
1339596
1339746
1339894
1340038
1340190
1340342
1340494
1340648
1340804
1340958
1341112
1341264
1341416
1341568
1341720
1341874
1342030
1342182
1342334
1342488
1342642
1342796
1342948
1343102
1343252
1343402
1343552
1343702
1343854
1344002
1344146
1344292
1344440
1344586
1344734
1344888
1345042
1345200
1345352
1345506
1345664
1345818
1345970
1346120
1346270
1346418
1346568
1346716
1346866
1347016
1347170
1347326
1347482
1347638
1347794
1347950
1348102
1348254
1348404
1348554
1348714
1348878
1349038
1349196
1349352
1349504
1349654
1349802
1349950
1350098
1350254
1350416
1350574
1350732
1350888
1351042
1351192
1351340
1351486
1351632
1351778
1351930
1352082
1352238
1352396
1352554
1352716
1352880
1353036
1353188
1353338
1353492
1353652
1353814
1353974
1354126
1354270
1354416
1354562
1354706
1354854
1355008
1355160
1355310
1355460
1355608
1355756
1355902
1356046
1356192
1356334
1356476
1356616
1356756
1356898
1357040
1357182
1357322
1357462
1357602
1357746
1357890
1358038
1358182
1358328
1358472
1358616
1358762
1358908
1359052
1359198
1359348
1359496
1359646
1359798
1359952
1360106
1360256
1360406
1360558
1360710
1360858
1361010
1361164
1361314
1361464
1361616
1361770
1361922
1362074
1362226
1362376
1362526
1362676
1362830
1362978
1363110
1363280
1363432
1363586
1363742
1363896
1364050
1364206
1364310
1364516
1364668
1364820
1364972
1365126
1365280
1365428
1365578
1365728
1365878
1366042
1366204
1366366
1366522
1366682
1366834
1366984
1367132
1367280
1367426
1367572
1367730
1367888
1368046
1368202
1368356
1368510
1368660
1368810
1368960
1369110
1369256
1369406
1369554
1369716
1369880
1370044
1370208
1370368
1370528
1370686
1370842
1370998
1371152
1371308
1371466
1371624
1371780
1371936
1372094
1372252
1372410
1372570
1372742
1372914
1373082
1373240
1373396
1373552
1373712
1373878
1374036
1374194
1374352
1374510
1374666
1374822
1374976
1375128
1375280
1375430
1375520
1375690
1375848
1376002
1376154
1376302
1376448
1376596
1376742
1376890
1377040
1377192
1377346
1377502
1377660
1377816
1377968
1378120
1378272
1378424
1378574
1378726
1378880
1379034
1379190
1379350
1379514
1379680
1379848
1380010
1380170
1380336
1380502
1380668
1380830
1380996
1381160
1381326
1381494
1381666
1381836
1382010
1382180
1382352
1382522
1382694
1382832
1383036
1383206
1383374
1383538
1383702
1383866
1384020
1384176
1384330
1384484
1384642
1384800
1384962
1385122
1385284
1385446
1385608
1385772
1385934
1386096
1386256
1386416
1386574
1386736
1386898
1387060
1387224
1387388
1387554
1387722
1387894
1388066
1388240
1388418
1388602
1388728
1388960
1389148
1389286
1389508
1389688
1389868
1390048
1390228
1390412
1390598
1390784
1390970
1391160
1391350
1391542
1391732
1391922
1392108
1392298
1392484
1392672
1392858
1393044
1393232
1393416
1393596
1393774
1393954
1394136
1394320
1394504
1394690
1394878
1395070
1395256
1395444
1395632
1395820
1396008
1396198
1396390
1396582
1396772
1396966
1397160
1397350
1397546
1397740
1397932
1398130
1398326
1398518
1398714
1398910
1399104
1399298
1399494
1399688
1399880
1400074
1400268
1400462
1400624
1400848
1401040
1401232
1401424
1401614
1401802
1401988
1402178
1402366
1402554
1402742
1402928
1403112
1403300
1403490
1403676
1403866
1404056
1404244
1404434
1404624
1404816
1405008
1405200
1405394
1405586
1405778
1405970
1406160
1406352
1406542
1406730
1406922
1407110
1407294
1407484
1407670
1407856
1408040
1408228
1408412
1408594
1408780
1408966
1409150
1409336
1409524
1409712
1409900
1410086
1410274
1410460
1410650
1410838
1411024
1411210
1411396
1411578
1411760
1411946
1412130
1412316
1412502
1412688
1412872
1413058
1413244
1413430
1413614
1413798
1413980
1414162
1414338
1414520
1414700
1414880
1415060
1415238
1415420
1415604
1415786
1415970
1416152
1416334
1416512
1416694
1416872
1417048
1417222
1417398
1417572
1417748
1417926
1418100
1418276
1418456
1418636
1418820
1419002
1419186
1419366
1419550
1419736
1419920
1420104
1420290
1420476
1420658
1420846
1421034
1421224
1421416
1421606
1421798
1421988
1422184
1422378
1422574
1422770
1422966
1423162
1423354
1423544
1423740
1423932
1424124
1424312
1424504
1424694
1424882
1425072
1425262
1425450
1425638
1425824
1426010
1426196
1426380
1426568
1426752
1426934
1427120
1427302
1427478
1427654
1427828
1428004
1428178
1428354
1428530
1428708
1428888
1429070
1429248
1429428
1429610
1429794
1429978
1430164
1430350
1430536
1430722
1430908
1431094
1431282
1431472
1431658
1431844
1432036
1432226
1432416
1432604
1432798
1432988
1433176
1433364
1433552
1433738
1433924
1434108
1434292
1434474
1434654
1434832
1435010
1435188
1435366
1435546
1435724
1435904
1436086
1436268
1436448
1436632
1436818
1437002
1437188
1437376
1437562
1437748
1437934
1438120
1438306
1438488
1438658
1438854
1439036
1439216
1439396
1439578
1439758
1439936
1440116
1440296
1440476
1440656
1440838
1441020
1441200
1441378
1441556
1441734
1441912
1442090
1442266
1442440
1442616
1442790
1442962
1443136
1443312
1443486
1443658
1443834
1444010
1444184
1444356
1444532
1444704
1444878
1445050
1445224
1445400
1445574
1445746
1445918
1446092
1446266
1446442
1446614
1446786
1446956
1447124
1447292
1447462
1447628
1447794
1447960
1448132
1448300
1448466
1448632
1448800
1448970
1449140
1449310
1449486
1449658
1449830
1450002
1450176
1450350
1450522
1450698
1450870
1451040
1451214
1451386
1451558
1451730
1451900
1452076
1452252
1452426
1452602
1452780
1452958
1453098
1453320
1453506
1453688
1453874
1454058
1454244
1454432
1454624
1454816
1455010
1455204
1455400
1455596
1455790
1455984
1456180
1456378
1456576
1456772
1456970
1457168
1457366
1457566
1457766
1457966
1458166
1458368
1458564
1458766
1458966
1459162
1459354
1459546
1459734
1459920
1460106
1460284
1460464
1460640
1460818
1460996
1461170
1461348
1461524
1461700
1461866
1462034
1462202
1462366
1462536
1462708
1462874
1463040
1463206
1463370
1463540
1463708
1463876
1464044
1464210
1464376
1464542
1464708
1464874
1465038
1465204
1465372
1465536
1465700
1465868
1466034
1466202
1466368
1466534
1466696
1466860
1467024
1467188
1467348
1467510
1467670
1467832
1467996
1468158
1468320
1468484
1468646
1468808
1468972
1469138
1469304
1469470
1469640
1469808
1469976
1470146
1470314
1470484
1470654
1470826
1471000
1471174
1471352
1471526
1471702
1471874
1472046
1472218
1472386
1472552
1472718
1472886
1473054
1473220
1473386
1473552
1473716
1473880
1474044
1474206
1474370
1474530
1474698
1474866
1475030
1475194
1475358
1475522
1475686
1475850
1476012
1476176
1476340
1476506
1476672
1476836
1477004
1477172
1477342
1477508
1477678
1477846
1478014
1478178
1478346
1478512
1478676
1478838
1479002
1479168
1479330
1479494
1479658
1479822
1479988
1480156
1480326
1480498
1480670
1480842
1481018
1481194
1481370
1481550
1481728
1481918
1482106
1482286
1482472
1482658
1482844
1483030
1483218
1483404
1483590
1483772
1483956
1484136
1484312
1484492
1484666
1484840
1485014
1485190
1485362
1485534
1485708
1485878
1486048
1486214
1486382
1486550
1486716
1486880
1487050
1487216
1487382
1487546
1487712
1487878
1488042
1488208
1488372
1488536
1488700
1488864
1489026
1489190
1489356
1489520
1489684
1489848
1490016
1490180
1490348
1490514
1490680
1490848
1491016
1491184
1491354
1491526
1491698
1491868
1492038
1492210
1492380
1492552
1492722
1492894
1493064
1493234
1493406
1493578
1493748
1493918
1494086
1494256
1494424
1494592
1494758
1494926
1495094
1495260
1495426
1495590
1495756
1495924
1496092
1496258
1496426
1496590
1496756
1496922
1497088
1497256
1497420
1497588
1497752
1497920
1498086
1498254
1498420
1498588
1498756
1498922
1499086
1499254
1499420
1499582
1499748
1499908
1500066
1500222
1500380
1500538
1500698
1500856
1501018
1501186
1501352
1501520
1501686
1501850
1502014
1502178
1502338
1502500
1502658
1502820
1502976
1503134
1503292
1503450
1503608
1503766
1503926
1504084
1504244
1504404
1504564
1504724
1504884
1505048
1505210
1505370
1505534
1505698
1505860
1506028
1506194
1506360
1506530
1506698
1506868
1507036
1507208
1507380
1507554
1507730
1507902
1508076
1508252
1508424
1508598
1508768
1508940
1509108
1509278
1509446
1509616
1509786
1509954
1510122
1510288
1510456
1510624
1510792
1510960
1511130
1511298
1511464
1511632
1511800
1511966
1512134
1512302
1512468
1512636
1512804
1512974
1513142
1513310
1513480
1513650
1513818
1513986
1514156
1514322
1514486
1514650
1514816
1514980
1515146
1515312
1515478
1515642
1515810
1515978
1516144
1516308
1516476
1516644
1516808
1516972
1517138
1517302
1517464
1517626
1517788
1517948
1518108
1518268
1518428
1518588
1518746
1518908
1519068
1519228
1519390
1519552
1519720
1519892
1520060
1520228
1520394
1520558
1520720
1520882
1521042
1521202
1521362
1521520
1521682
1521842
1522002
1522164
1522326
1522490
1522652
1522816
1522980
1523148
1523314
1523482
1523648
1523810
1523970
1524134
1524300
1524464
1524626
1524794
1524940
1525128
1525296
1525462
1525624
1525784
1525946
1526106
1526268
1526428
1526590
1526752
1526914
1527076
1527238
1527400
1527564
1527730
1527894
1528056
1528226
1528390
1528556
1528718
1528884
1529048
1529212
1529378
1529550
1529720
1529890
1530062
1530236
1530410
1530582
1530756
1530932
1531104
1531276
1531452
1531626
1531798
1531974
1532148
1532322
1532498
1532674
1532850
1533026
1533200
1533376
1533546
1533718
1533894
1534070
1534246
1534420
1534596
1534772
1534948
1535124
1535300
1535478
1535642
1535834
1536016
1536196
1536378
1536558
1536740
1536922
1537102
1537282
1537462
1537642
1537822
1538000
1538178
1538356
1538532
1538710
1538886
1539062
1539238
1539414
1539590
1539768
1539944
1540122
1540300
1540478
1540656
1540836
1541016
1541196
1541376
1541556
1541734
1541910
1542090
1542268
1542444
1542614
1542784
1542956
1543126
1543298
1543472
1543644
1543816
1543986
1544156
1544330
1544502
1544672
1544842
1545018
1545192
1545364
1545538
1545710
1545884
1546058
1546232
1546408
1546582
1546756
1546932
1547106
1547278
1547452
1547626
1547798
1547970
1548144
1548316
1548486
1548658
1548830
1549004
1549178
1549350
1549524
1549700
1549876
1550052
1550224
1550398
1550570
1550740
1550910
1551078
1551244
1551408
1551572
1551734
1551898
1552064
1552226
1552390
1552550
1552710
1552868
1553026
1553182
1553338
1553494
1553648
1553802
1553956
1554110
1554264
1554418
1554572
1554728
1554884
1555040
1555196
1555354
1555508
1555666
1555828
1555994
1556164
1556334
1556500
1556668
1556836
1557004
1557168
1557334
1557496
1557658
1557818
1557980
1558138
1558296
1558452
1558610
1558768
1558924
1559080
1559236
1559394
1559550
1559706
1559862
1560020
1560180
1560336
1560492
1560650
1560804
1560960
1561114
1561270
1561424
1561586
1561748
1561904
1562056
1562204
1562354
1562502
1562652
1562802
1562952
1563100
1563250
1563402
1563558
1563716
1563874
1564034
1564194
1564356
1564514
1564674
1564834
1564992
1565150
1565310
1565468
1565630
1565792
1565950
1566108
1566268
1566424
1566582
1566740
1566898
1567052
1567218
1567384
1567544
1567698
1567850
1568004
1568160
1568314
1568470
1568626
1568782
1568932
1569086
1569234
1569384
1569532
1569680
1569826
1569974
1570122
1570268
1570412
1570558
1570706
1570854
1571000
1571146
1571296
1571450
1571600
1571754
1571910
1572062
1572218
1572374
1572534
1572690
1572846
1573004
1573158
1573312
1573466
1573618
1573768
1573918
1574062
1574208
1574356
1574504
1574652
1574790
1574956
1575106
1575258
1575410
1575562
1575710
1575858
1576008
1576158
1576304
1576452
1576598
1576744
1576890
1577036
1577184
1577332
1577480
1577630
1577782
1577930
1578080
1578234
1578384
1578536
1578684
1578836
1578986
1579138
1579290
1579438
1579584
1579732
1579894
1580054
1580208
1580362
1580516
1580668
1580820
1580970
1581118
1581266
1581414
1581562
1581708
1581856
1582004
1582152
1582300
1582450
1582602
1582752
1582902
1583056
1583212
1583368
1583522
1583678
1583828
1583976
1584126
1584286
1584448
1584608
1584770
1584926
1585080
1585234
1585386
1585538
1585688
1585854
1586018
1586176
1586346
1586508
1586666
1586822
1586976
1587132
1587286
1587442
1587596
1587766
1587936
1588102
1588268
1588432
1588594
1588750
1588906
1589062
1589218
1589372
1589526
1589692
1589858
1590022
1590190
1590356
1590516
1590672
1590828
1590984
1591138
1591294
1591448
1591616
1591778
1591928
1592092
1592248
1592400
1592552
1592704
1592856
1593008
1593160
1593312
1593464
1593612
1593762
1593914
1594068
1594220
1594372
1594524
1594674
1594820
1594972
1595126
1595278
1595428
1595578
1595732
1595886
1596038
1596190
1596342
1596494
1596644
1596792
1596944
1597094
1597228
1597394
1597546
1597694
1597844
1597998
1598152
1598306
1598462
1598618
1598778
1598940
1599094
1599246
1599398
1599550
1599716
1599884
1600046
1600206
1600368
1600526
1600676
1600828
1600978
1601132
1601290
1601444
1601594
1601748
1601898
1602050
1602202
1602354
1602518
1602676
1602828
1602982
1603132
1603286
1603438
1603588
1603738
1603888
1604036
1604184
1604332
1604480
1604628
1604774
1604922
1605070
1605218
1605366
1605516
1605666
1605818
1605970
1606124
1606278
1606430
1606586
1606740
1606894
1607048
1607204
1607352
1607500
1607664
1607820
1607976
1608128
1608280
1608432
1608582
1608734
1608886
1609036
1609160
1609332
1609492
1609642
1609794
1609944
1610092
1610236
1610380
1610524
1610666
1610810
1610954
1611098
1611218
1611388
1611538
1611688
1611836
1611986
1612138
1612288
1612436
1612584
1612734
1612880
1613028
1613176
1613328
1613478
1613630
1613784
1613936
1614088
1614238
1614384
1614544
1614704
1614858
1615012
1615166
1615318
1615470
1615624
1615776
1615928
1616078
1616226
1616376
1616538
1616694
1616850
1617004
1617160
1617316
1617474
1617626
1617776
1617926
1618076
1618238
1618404
1618568
1618728
1618882
1619036
1619190
1619342
1619494
1619644
1619796
1619942
1620088
1620240
1620386
1620534
1620678
1620824
1620966
1621112
1621256
1621406
1621554
1621702
1621852
1622004
1622154
1622304
1622454
1622606
1622758
1622906
1623058
1623208
1623356
1623504
1623656
1623808
1623956
1624110
1624264
1624416
1624570
1624720
1624872
1625022
1625190
1625348
1625504
1625658
1625810
1625962
1626114
1626264
1626416
1626568
1626720
1626872
1627026
1627176
1627328
1627480
1627642
1627798
1627954
1628112
1628264
1628418
1628576
1628732
1628886
1629038
1629194
1629346
1629496
1629648
1629800
1629952
1630102
1630256
1630412
1630566
1630724
1630880
1631036
1631190
1631346
1631504
1631656
1631808
1631960
1632124
1632286
1632450
1632612
1632768
1632918
1633070
1633222
1633372
1633530
1633686
1633840
1633990
1634138
1634286
1634434
1634582
1634732
1634880
1635028
1635178
1635328
1635478
1635630
1635782
1635936
1636088
1636240
1636394
1636548
1636702
1636856
1637004
1637150
1637302
1637448
1637594
1637740
1637886
1638030
1638178
1638324
1638470
1638616
1638762
1638906
1639050
1639196
1639340
1639482
1639630
1639774
1639920
1640066
1640216
1640364
1640512
1640654
1640800
1640948
1641102
1641254
1641416
1641568
1641720
1641874
1642042
1642212
1642378
1642540
1642704
1642864
1643020
1643174
1643334
1643492
1643662
1643832
1644006
1644176
1644342
1644506
1644666
1644824
1644982
1645138
1645294
1645462
1645630
1645800
1645966
1646130
1646292
1646450
1646608
1646766
1646926
1647098
1647268
1647442
1647616
1647784
1647950
1648112
1648274
1648432
1648590
1648750
1648908
1649066
1649222
1649382
1649550
1649720
1649892
1650040
1650230
1650398
1650562
1650724
1650886
1651048
1651210
1651370
1651530
1651692
1651852
1652014
1652174
1652334
1652496
1652658
1652818
1652980
1653140
1653302
1653462
1653626
1653786
1653948
1654112
1654276
1654442
1654606
1654772
1654938
1655106
1655272
1655440
1655606
1655772
1655940
1656106
1656270
1656438
1656602
1656770
1656934
1657100
1657264
1657428
1657592
1657758
1657926
1658090
1658256
1658420
1658586
1658748
1658914
1659078
1659242
1659406
1659572
1659736
1659900
1660066
1660232
1660396
1660562
1660728
1660894
1661060
1661224
1661390
1661554
1661718
1661882
1662046
1662210
1662374
1662538
1662702
1662866
1663032
1663198
1663362
1663526
1663692
1663856
1664020
1664182
1664346
1664510
1664672
1664834
1664994
1665154
1665316
1665476
1665636
1665794
1665954
1666114
1666270
1666426
1666584
1666740
1666896
1667054
1667210
1667366
1667522
1667682
1667838
1667994
1668164
1668334
1668500
1668666
1668836
1669004
1669170
1669334
1669500
1669662
1669824
1669986
1670146
1670308
1670472
1670634
1670796
1670960
1671132
1671302
1671474
1671646
1671816
1671986
1672154
1672320
1672484
1672648
1672810
1672970
1673130
1673294
1673454
1673624
1673796
1673966
1674136
1674304
1674472
1674636
1674798
1674958
1675116
1675278
1675434
1675606
1675772
1675932
1676090
1676242
1676394
1676546
1676702
1676854
1677006
1677160
1677310
1677458
1677608
1677766
1677924
1678082
1678244
1678404
1678568
1678734
1678898
1679058
1679224
1679382
1679540
1679698
1679854
1680010
1680166
1680320
1680476
1680626
1680776
1680924
1681070
1681216
1681362
1681508
1681652
1681798
1681942
1682088
1682230
1682372
1682514
1682660
1682806
1682956
1683106
1683254
1683406
1683560
1683716
1683876
1684034
1684190
1684342
1684498
1684652
1684810
1684964
1685120
1685278
1685430
1685582
1685732
1685910
1686070
1686232
1686394
1686554
1686712
1686874
1687032
1687192
1687352
1687512
1687668
1687826
1687984
1688144
1688306
1688464
1688620
1688776
1688934
1689100
1689270
1689438
1689604
1689768
1689930
1690090
1690250
1690408
1690570
1690728
1690894
1691064
1691234
1691402
1691570
1691740
1691906
1692070
1692234
1692396
1692562
1692726
1692890
1693054
1693220
1693396
1693570
1693746
1693922
1694096
1694266
1694436
1694600
1694762
1694926
1695092
1695256
1695418
1695582
1695746
1695910
1696074
1696238
1696402
1696568
1696734
1696900
1697066
1697232
1697396
1697562
1697726
1697890
1698054
1698220
1698386
1698564
1698740
1698916
1699092
1699268
1699440
1699610
1699782
1699952
1700120
1700286
1700452
1700618
1700782
1700946
1701110
1701272
1701434
1701596
1701760
1701922
1702082
1702246
1702408
1702568
1702730
1702892
1703050
1703210
1703370
1703528
1703686
1703844
1704002
1704160
1704316
1704474
1704636
1704804
1704974
1705146
1705316
1705484
1705650
1705814
1705978
1706136
1706296
1706454
1706624
1706794
1706962
1707130
1707294
1707454
1707612
1707770
1707926
1708088
1708250
1708414
1708578
1708742
1708908
1709072
1709236
1709402
1709568
1709734
1709898
1710064
1710232
1710398
1710564
1710730
1710894
1711058
1711220
1711382
1711542
1711704
1711860
1712018
1712174
1712332
1712486
1712638
1712792
1712950
1713108
1713288
1713454
1713624
1713790
1713950
1714114
1714278
1714440
1714604
1714768
1714926
1715090
1715252
1715416
1715578
1715740
1715902
1716066
1716230
1716394
1716560
1716724
1716890
1717054
1717222
1717386
1717552
1717720
1717888
1718052
1718220
1718388
1718556
1718724
1718892
1719060
1719226
1719392
1719560
1719730
1719896
1720064
1720230
1720394
1720560
1720724
1720886
1721046
1721206
1721368
1721528
1721690
1721850
1722014
1722176
1722340
1722504
1722668
1722832
1722998
1723168
1723336
1723506
1723674
1723848
1724024
1724198
1724372
1724550
1724728
1724904
1725082
1725256
1725434
1725612
1725788
1725966
1726144
1726324
1726506
1726686
1726864
1727046
1727224
1727406
1727586
1727766
1727946
1728124
1728304
1728480
1728654
1728824
1728992
1729162
1729332
1729502
1729670
1729842
1730010
1730182
1730354
1730524
1730696
1730870
1731038
1731204
1731370
1731536
1731702
1731868
1732034
1732200
1732366
1732530
1732692
1732858
1733022
1733186
1733352
1733518
1733686
1733852
1734020
1734188
1734354
1734518
1734682
1734844
1735006
1735174
1735338
1735504
1735672
1735842
1736012
1736182
1736354
1736526
1736698
1736866
1737030
1737198
1737362
1737526
1737688
1737850
1738012
1738174
1738336
1738498
1738662
1738828
1738996
1739164
1739334
1739502
1739672
1739842
1740008
1740180
1740348
1740520
1740690
1740858
1741024
1741192
1741360
1741526
1741690
1741852
1742014
1742178
1742342
1742506
1742672
1742836
1743004
1743170
1743336
1743504
1743668
1743832
1743996
1744158
1744320
1744484
1744648
1744812
1744980
1745146
1745312
1745478
1745642
1745806
1745970
1746136
1746302
1746470
1746638
1746808
1746974
1747142
1747270
1747468
1747632
1747798
1747964
1748128
1748296
1748466
1748636
1748806
1748976
1749144
1749316
1749484
1749650
1749816
1749978
1750140
1750304
1750468
1750632
1750796
1750962
1751132
1751300
1751470
1751640
1751808
1751974
1752142
1752310
1752476
1752640
1752804
1752968
1753130
1753292
1753460
1753626
1753790
1753956
1754120
1754284
1754448
1754608
1754772
1754936
1755102
1755266
1755430
1755590
1755754
1755918
1756086
1756254
1756420
1756584
1756746
1756910
1757072
1757236
1757400
1757564
1757728
1757888
1758048
1758208
1758366
1758524
1758684
1758844
1759002
1759160
1759316
1759480
1759638
1759802
1759968
1760138
1760304
1760470
1760636
1760800
1760958
1761114
1761272
1761438
1761600
1761760
1761920
1762078
1762234
1762394
1762554
1762712
1762872
1763070
1763248
1763422
1763586
1763748
1763906
1764066
1764226
1764384
1764540
1764698
1764856
1765024
1765192
1765360
1765526
1765694
1765862
1766028
1766194
1766358
1766522
1766686
1766848
1767012
1767184
1767352
1767524
1767696
1767868
1768038
1768204
1768368
1768532
1768692
1768854
1769018
1769180
1769340
1769502
1769664
1769824
1769986
1770150
1770314
1770476
1770640
1770804
1770968
1771134
1771300
1771466
1771634
1771800
1771968
1772136
1772304
1772470
1772636
1772804
1772970
1773136
1773302
1773468
1773634
1773798
1773962
1774126
1774290
1774450
1774612
1774776
1774938
1775098
1775258
1775418
1775582
1775740
1775900
1776060
1776220
1776386
1776544
1776704
1776870
1777038
1777204
1777372
1777536
1777696
1777852
1778006
1778158
1778310
1778466
1778618
1778774
1778934
1779094
1779258
1779418
1779582
1779750
1779912
1780072
1780230
1780392
1780548
1780706
1780862
1781020
1781184
1781350
1781516
1781682
1781846
1782010
1782172
1782330
1782490
1782648
1782806
1782964
1783126
1783286
1783446
1783606
1783768
1783932
1784094
1784256
1784420
1784580
1784742
1784904
1785066
1785230
1785392
1785554
1785718
1785882
1786044
1786206
1786368
1786530
1786690
1786852
1787012
1787172
1787332
1787492
1787654
1787814
1787978
1788148
1788314
1788484
1788652
1788816
1788984
1789146
1789308
1789468
1789626
1789786
1789946
1790114
1790282
1790450
1790618
1790784
1790948
1791108
1791266
1791424
1791586
1791744
1791902
1792058
1792218
1792376
1792560
1792724
1792886
1793046
1793202
1793356
1793510
1793666
1793826
1793986
1794146
1794306
1794464
1794628
1794790
1794954
1795116
1795282
1795440
1795596
1795752
1795906
1796062
1796218
1796398
1796560
1796722
1796878
1797028
1797180
1797332
1797490
1797652
1797812
1797970
1798136
1798302
1798466
1798626
1798786
1798940
1799100
1799260
1799420
1799596
1799762
1799922
