peaks
156
426
690
938
1178
1424
1712
2012
2312
2616
2902
3186
3466
3748
4018
4286
4546
4810
5068
5340
5612
5880
6154
6438
6722
6986
7240
7492
7734
7992
8264
8548
8826
9114
9396
9662
9944
10220
10490
10768
11046
11308
11574
11852
12120
12382
12666
12946
13212
13488
13762
14018
14282
14556
14818
15086
15368
15632
15898
16170
16426
16682
16946
17198
17456
17714
17968
18218
18486
18754
19008
19272
19554
19818
20080
20352
20614
20866
21126
21392
21644
21910
22174
22432
22702
22974
23234
23498
23764
24024
24276
24536
24794
25044
25308
25578
25838
26100
26364
26634
26890
27148
27418
27686
27940
28202
28466
28728
28984
29254
29530
29792
30060
30332
30602
30860
31120
31380
31636
31898
32164
32420
32670
32930
33188
33444
33708
33982
34248
34502
34768
35038
35296
35556
35830
36068
36300
36530
36762
36988
37206
37436
37676
37928
38180
38448
38720
38990
39272
39554
39814
40070
40336
40600
40858
41128
41402
41666
41932
42202
42478
42742
43010
43262
43510
43768
44040
44308
44574
44830
45084
45342
45602
45854
46116
46392
46660
46922
47190
47464
47732
48000
48272
48544
48802
49074
49348
49616
49882
50158
50434
50696
50984
51278
51546
51826
52112
52380
52656
52938
53212
53476
53746
54018
54292
54572
54854
55118
55364
55594
55816
56034
56248
56456
56658
56862
57060
57258
57458
57662
57882
58124
58376
58630
58900
59178
59450
59722
60004
60272
60540
60814
61096
61368
61654
61940
62210
62484
62768
63042
63312
63600
63886
64168
64444
64722
64992
65254
65528
65820
66098
66374
66696
66990
67254
67524
67798
68070
68364
68666
68950
69228
69518
69794
70062
70346
70632
70910
71194
71488
71778
72062
72362
72646
72922
73210
73498
73772
74052
74344
74626
74896
75176
75456
75728
76012
76304
76574
76848
77136
77422
77692
77958
78226
78500
78770
79048
79326
79596
79870
80166
80444
80708
80976
81256
81524
81780
82048
82322
82578
82840
83102
83362
83626
83914
84196
84462
84736
85016
85280
85546
85822
86092
86360
86628
86890
87144
87404
87670
87930
88184
88446
88692
88922
89150
89370
89584
89808
90054
90314
90580
90862
91146
91422
91714
92004
92276
92554
92834
93108
93392
93678
93958
94230
94514
94798
95068
95358
95642
95922
96208
96494
96786
97060
97334
97610
97878
98150
98432
98700
98972
99264
99538
99798
100066
100336
100598
100874
101170
101456
101748
102058
102342
102620
102896
103182
103458
103740
104010
104268
104544
104830
105112
105398
105694
105970
106256
106546
106830
107124
107428
107716
107988
108264
108538
108796
109066
109344
109616
109890
110176
110448
110716
111002
111280
111554
111832
112116
112378
112654
112942
113216
113482
113762
114038
114304
114572
114848
115120
115388
115670
115966
116232
116502
116776
117032
117298
117578
117864
118130
118412
118698
118970
119254
119544
119820
120102
120394
120672
120948
121232
121506
121772
122048
122318
122578
122850
123112
123370
123636
123912
124174
124446
124726
124994
125254
125516
125778
126036
126292
126552
126814
127072
127346
127626
127892
128162
128444
128716
128978
129250
129516
129776
130044
130332
130598
130856
131134
131420
131694
131972
132252
132520
132786
133054
133314
133574
133846
134118
134380
134646
134924
135200
135472
135756
136030
136296
136568
136858
137132
137412
137708
137990
138262
138550
138842
139114
139384
139658
139926
140186
140460
140734
141000
141272
141552
141818
142072
142336
142600
142854
143120
143396
143664
143924
144206
144458
144696
144926
145146
145356
145562
145760
145926
146134
146320
146504
146680
146860
147034
147212
147386
147566
147756
147950
148156
148392
148640
148878
149120
149374
149628
149882
150130
150394
150676
150930
151164
151414
151640
151866
152084
152290
152492
152690
152884
153078
153274
153480
153702
153952
154198
154450
154710
154952
155196
155450
155690
155932
156162
156386
156608
156834
157062
157296
157544
157790
158038
158272
158498
158716
158930
159152
159390
159620
159854
160102
160356
160618
160886
161148
161406
161650
161894
162146
162404
162636
162864
163086
163308
163568
163852
164130
164426
164720
164998
165274
165552
165824
166084
166350
166620
166878
167138
167400
167672
167938
168218
168504
168778
169060
169348
169632
169912
170182
170432
170662
170906
171132
171354
171568
171780
171990
172208
172462
172752
173048
173348
173660
173954
174240
174526
174772
175014
175262
175510
175784
176086
176388
176682
176970
177248
177526
177808
178092
178356
178630
178904
179164
179446
179744
180022
180296
180590
180880
181158
181440
181732
182010
182284
182562
182838
183098
183368
183648
183912
184180
184452
184722
184980
185250
185524
185780
186050
186324
186588
186842
187100
187358
187614
187866
188136
188394
188646
188902
189166
189424
189686
189962
190234
190496
190772
191046
191300
191566
191850
192114
192378
192654
192920
193188
193460
193734
193996
194266
194540
194796
195050
195306
195564
195822
196094
196378
196644
196904
197148
197378
197602
197820
198050
198262
198472
198702
198916
199126
199330
199520
199714
199900
200082
200262
200438
200614
200792
200970
201152
201332
201530
201744
201982
202226
202484
202746
202990
203222
203448
203668
203896
204130
204370
204626
204882
205144
205402
205654
205886
206110
206326
206538
206746
206954
207164
207370
207600
207854
208144
208418
208670
208932
209196
209446
209698
209958
210236
210510
210782
211056
211320
211600
211884
212144
212384
212616
212844
213078
213320
213594
213896
214180
214476
214776
215048
215322
215586
215842
216106
216382
216650
216922
217202
217476
217744
218028
218310
218576
218850
219132
219412
219684
219964
220252
220524
220800
221088
221354
221622
221906
222180
222442
222716
223002
223264
223528
223792
224028
224262
224478
224702
224918
225138
225370
225628
225878
226166
226478
226774
227070
227364
227656
227950
228242
228514
228788
229068
229354
229624
229904
230184
230466
230732
231006
231290
231576
231844
232124
232410
232692
232982
233274
233542
233822
234098
234370
234640
234914
235186
235448
235722
235998
236262
236544
236828
237096
237370
237642
237906
238178
238462
238728
238994
239276
239552
239820
240098
240376
240654
240948
241246
241524
241804
242086
242350
242622
242900
243162
243420
243690
243990
244256
244518
244782
245048
245308
245576
245838
246086
246344
246614
246870
247134
247410
247666
247916
248180
248438
248692
248950
249222
249480
249746
250016
250280
250548
250824
251090
251350
251624
251902
252168
252456
252748
253022
253296
253582
253854
254132
254420
254698
254964
255244
255524
255782
256044
256310
256570
256830
257090
257344
257592
257848
258106
258352
258610
258878
259136
259388
259642
259890
260132
260366
260606
260854
261094
261344
261600
261858
262110
262364
262616
262860
263100
263342
263588
263822
264054
264292
264526
264754
264984
265218
265448
265676
265906
266142
266366
266592
266822
267050
267274
267502
267732
267956
268172
268382
268584
268786
268984
269176
269368
269560
269754
269948
270146
270342
270536
270736
270938
271142
271340
271546
271758
271974
272190
272410
272634
272854
273076
273302
273516
273730
273944
274178
274418
274670
274948
275218
275494
275768
276030
276294
276558
276828
277088
277362
277642
277908
278192
278480
278754
279032
279326
279604
279872
280156
280458
280730
281014
281308
281588
281858
282140
282424
282688
282972
283272
283542
283808
284096
284376
284640
284918
285204
285478
285754
286058
286346
286608
286890
287164
287430
287700
287992
288272
288564
288862
289142
289426
289714
289982
290248
290524
290790
291054
291324
291590
291848
292128
292420
292694
292982
293278
293548
293820
294092
294364
294634
294904
295162
295420
295692
295976
296242
296516
296810
297080
297346
297632
297918
298184
298470
298748
299016
299294
299574
299836
300106
300376
300644
300904
301180
301472
301748
302040
302328
302608
302880
303166
303454
303726
304016
304310
304596
304866
305148
305432
305692
305958
306244
306514
306772
307044
307334
307604
307870
308156
308430
308566
308886
309166
309434
309700
309994
310282
310562
310868
311160
311432
311722
312016
312288
312556
312836
313114
313384
313664
313956
314220
314500
314798
315074
315356
315644
315930
316202
316512
316796
317068
317350
317630
317904
318174
318466
318752
319026
319304
319600
319878
320164
320474
320764
321042
321350
321644
321922
322208
322496
322758
323026
323308
323574
323838
324124
324408
324684
324972
325258
325530
325816
326104
326374
326656
326938
327208
327482
327778
328050
328328
328612
328888
329152
329420
329714
329978
330234
330508
330788
331054
331334
331634
331904
332164
332432
332712
332974
333238
333524
333792
334056
334330
334608
334868
335142
335416
335686
335962
336250
336536
336802
337074
337348
337614
337878
338148
338430
338692
338950
339222
339492
339752
340016
340296
340562
340822
341094
341366
341620
341874
342140
342406
342670
342944
343222
343486
343748
344020
344288
344552
344826
345110
345386
345660
345944
346216
346476
346744
347018
347296
347552
347824
348106
348384
348646
348924
349196
349458
349718
349984
350258
350518
350768
351028
351292
351550
351808
352078
352348
352604
352860
353124
353388
353644
353914
354192
354464
354732
355006
355254
355494
355722
355940
356160
356368
356568
356792
357000
357200
357398
357594
357788
357986
358190
358402
358640
358900
359180
359452
359726
360000
360230
360482
360710
360934
361154
361368
361588
361802
362028
362260
362506
362766
363042
363308
363548
363778
364004
364222
364468
364744
365034
365338
365642
365936
366214
366504
366796
367070
367346
367628
367906
368172
368452
368734
369014
369288
369574
369862
370132
370416
370712
370976
371244
371522
371792
372062
372342
372622
372886
373156
373436
373714
373998
374290
374570
374844
375130
375402
375660
375926
376192
376442
376698
376962
377208
377468
377744
378028
378302
378588
378868
379142
379436
379718
379988
380280
380580
380850
381134
381420
381694
381970
382246
382508
382782
383058
383328
383588
383862
384132
384388
384656
384920
385180
385440
385714
385982
386244
386534
386804
387060
387324
387592
387844
388108
388372
388630
388888
389164
389440
389700
389972
390244
390508
390768
391042
391316
391578
391844
392120
392390
392652
392916
393180
393444
393694
393952
394218
394488
394748
395024
395316
395586
395858
396134
396398
396664
396942
397206
397466
397730
397996
398250
398512
398772
399020
399282
399552
399810
400068
400344
400610
400870
401136
401396
401648
401916
402192
402468
402744
403040
403336
403610
403884
404150
404420
404680
404952
405230
405490
405748
406018
406296
406552
406824
407098
407364
407628
407910
408180
408442
408704
408986
409258
409526
409808
410096
410358
410620
410890
411148
411400
411666
411944
412206
412482
412766
413046
413328
413614
413904
414174
414450
414730
414998
415268
415552
415832
416096
416360
416626
416888
417140
417396
417660
417930
418188
418464
418756
419028
419302
419582
419852
420110
420376
420648
420914
421172
421442
421722
421992
422260
422550
422818
423076
423350
423618
423876
424136
424412
424688
424942
425198
425462
425724
425978
426224
426456
426678
426896
427116
427330
427534
427746
427950
428146
428338
428528
428724
428916
429114
429310
429514
429724
429946
430186
430432
430680
430936
431176
431406
431624
431848
432080
432320
432560
432820
433092
433352
433630
433914
434180
434440
434702
434962
435210
435464
435738
436020
436280
436550
436806
436970
437258
437394
437652
437856
438054
438246
438440
438642
438850
439078
439320
439580
439854
440140
440434
440710
440984
441258
441536
441808
442084
442350
442622
442902
443174
443454
443732
444018
444302
444578
444850
445126
445420
445702
445976
446264
446546
446814
447100
447378
447642
447920
448208
448480
448748
449032
449320
449594
449878
450168
450444
450714
451002
451282
451560
451846
452126
452404
452682
452970
453246
453526
453816
454106
454394
454672
454944
455222
455470
455704
455928
456156
456386
456634
456866
457094
457312
457526
457736
457954
458182
458436
458708
458984
459272
459554
459816
460094
460368
460654
460946
461234
461536
461792
462042
462288
462558
462836
463142
463460
463768
464088
464378
464654
464936
465194
465440
465674
465906
466134
466358
466580
466800
467026
467276
467524
467798
468072
468350
468620
468880
469124
469354
469574
469782
469980
470170
470356
470540
470738
470946
471168
471392
471614
471852
472116
472388
472664
472920
473168
473402
473628
473848
474082
474356
474630
474928
475228
475510
475788
476086
476356
476630
476912
477186
477466
477752
478024
478306
478600
478868
479154
479440
479710
479988
480278
480542
480820
481102
481366
481644
481930
482206
482486
482774
483042
483314
483592
483856
484120
484388
484656
484922
485198
485462
485720
485992
486280
486556
486836
487118
487384
487654
487930
488196
488470
488746
489016
489292
489570
489858
490126
490384
490652
490920
491180
491442
491714
491978
492242
492508
492788
493048
493306
493574
493846
494110
494382
494654
494910
495168
495440
495716
495982
496260
496528
496788
497058
497326
497584
497844
498116
498378
498642
498908
499166
499418
499662
499902
500138
500376
500620
500872
501106
501356
501598
501826
502046
502262
502472
502678
502892
503114
503334
503554
503778
504004
504228
504446
504664
504880
505104
505316
505536
505758
505984
506208
506434
506670
506926
507202
507480
507756
508040
508326
508592
508858
509122
509398
509668
509948
510234
510516
510786
511062
511352
511636
511902
512172
512452
512720
512990
513268
513556
513824
514108
514382
514650
514904
515166
515436
515698
515950
516318
516616
516892
517178
517470
517728
517992
518278
518558
518826
519096
519374
519628
519900
520182
520440
520694
520968
521242
521504
521786
522070
522342
522612
522892
523162
523416
523684
523972
524248
524520
524808
525078
525344
525622
525904
526170
526446
526730
526996
527264
527546
527834
528102
528370
528660
528932
529200
529480
529750
530008
530272
530540
530808
531074
531358
531644
531908
532178
532468
532742
533016
533312
533586
533854
534142
534422
534688
534974
535268
535538
535824
536098
536364
536628
536912
537196
537468
537750
538028
538284
538542
538812
539084
539344
539630
539924
540198
540466
540744
541016
541276
541552
541828
542092
542364
542638
542900
543154
543416
543698
543964
544228
544502
544786
545048
545324
545602
545866
546132
546412
546690
546954
547248
547540
547814
548082
548374
548650
548906
549176
549460
549724
549996
550288
550584
550848
551114
551402
551670
551922
552194
552502
552790
553082
553394
553674
553934
554208
554484
554758
555038
555324
555598
555858
556138
556438
556718
556978
557254
557540
557794
558050
558318
558578
558840
559140
559440
559726
559998
560284
560560
560826
561102
561394
561662
561942
562242
562514
562784
563074
563358
563624
563888
564190
564490
564766
565058
565364
565632
565918
566204
566472
566734
567014
567308
567590
567894
568214
568504
568806
569112
569396
569674
569962
570246
570522
570798
571076
571340
571594
571862
572142
572400
572658
572926
573194
573444
573702
573970
574236
574490
574762
575006
575242
575474
575706
575936
576158
576374
576584
576784
576978
577170
577358
577544
577726
577908
578092
578280
578494
578738
578982
579228
579502
579790
580058
580332
580614
580876
581134
581412
581706
581974
582240
582510
582794
583058
583336
583626
583890
584166
584442
584698
584950
585218
585484
585748
586030
586312
586582
586828
587058
587286
587506
587724
587942
588170
588412
588678
588950
589206
589454
589690
589918
590140
590366
590592
590812
591034
591248
591452
591656
591854
592046
592238
592428
592620
592814
593016
593228
593442
593660
593886
594106
594326
594556
594794
595030
595266
595498
595724
595952
596176
596406
596638
596860
597072
597272
597476
597672
597868
598058
598248
598436
598626
598822
599018
599220
599426
599634
599842
600048
600242
600438
600622
600808
600988
601166
601340
601516
601692
601872
602052
602234
602418
602620
602834
603056
603298
603556
603806
604064
604328
604580
604822
605070
605316
605552
605794
606048
606290
606542
606810
607072
607326
607582
607838
608084
608336
608602
608852
609084
609306
609530
609740
609952
610160
610370
610584
610816
611080
611348
611626
611908
612172
612460
612738
612996
613274
613544
613800
614064
614338
614596
614874
615154
615420
615694
615970
616236
616514
616786
617056
617336
617608
617870
618118
618390
618666
618952
619212
619482
619762
620020
620284
620544
620796
621044
621304
621574
621828
622094
622360
622614
622888
623170
623436
623696
623974
624248
624512
624786
625056
625308
625562
625822
626076
626338
626610
626880
627150
627434
627702
627958
628220
628490
628750
629014
629280
629542
629814
630086
630352
630630
630904
631164
631430
631702
631964
632224
632498
632766
633034
633302
633558
633808
634064
634336
634602
634862
635140
635400
635652
635910
636168
636426
636704
636974
637234
637500
637768
638028
638290
638548
638802
639046
639306
639570
639820
640082
640346
640600
640850
641110
641294
641628
641884
642144
642408
642662
642918
643188
643474
643734
644014
644300
644576
644862
645156
645430
645708
645992
646284
646546
646816
647112
647398
647666
647962
648260
648528
648812
649100
649372
649622
649866
650132
650442
650712
650990
651294
651572
651842
652122
652416
652698
652966
653244
653524
653790
654072
654358
654636
654900
655174
655422
655654
655876
656098
656334
656574
656840
657112
657388
657684
657978
658272
658574
658856
659124
659406
659688
659948
660220
660500
660782
661068
661356
661626
661908
662178
662438
662702
662978
663254
663518
663788
664052
664302
664558
664744
665068
665326
665592
665862
666122
666390
666664
666924
667182
667452
667726
667984
668254
668528
668788
669062
669336
669610
669872
670142
670412
670680
670958
671240
671522
671784
672048
672326
672602
672862
673124
673402
673684
673946
674212
674480
674728
674984
675276
675560
675830
676124
676412
676686
676970
677246
677516
677802
678102
678364
678624
678908
679196
679462
679722
679996
680276
680548
680828
681102
681364
681652
681948
682212
682462
682724
682998
683272
683530
683800
684078
684344
684602
684870
685156
685432
685696
685970
686254
686514
686780
687052
687322
687578
687854
688140
688408
688680
688952
689216
689466
689722
689994
690270
690530
690814
691114
691390
691666
691962
692260
692544
692834
693134
693408
693686
693968
694234
694502
694762
694996
695228
695450
695662
695868
696070
696282
696518
696762
697016
697296
697576
697838
698104
698378
698636
698892
699158
699418
699676
699944
700218
700474
700738
701004
701266
701534
701814
702088
702360
702644
702934
703216
703492
703780
704064
704340
704610
704890
705176
705446
705696
705964
706238
706504
706766
707038
707310
707572
707844
708120
708398
708668
708954
709234
709506
709782
710066
710320
710560
710806
711058
711310
711568
711828
712092
712354
712634
712904
713168
713452
713738
713996
714268
714540
714806
715074
715378
715666
715946
716236
716514
716786
717064
717344
717614
717888
718162
718426
718698
718976
719250
719514
719786
720054
720316
720586
720862
721130
721396
721668
721934
722194
722458
722726
722984
723254
723540
723802
724070
724356
724630
724908
725212
725494
725756
726016
726286
726562
726822
727086
727368
727636
727896
728162
728436
728702
728958
729216
729478
729734
729980
730232
730492
730744
731006
731304
731598
731876
732162
732444
732714
732986
733258
733512
733772
734046
734312
734570
734842
735112
735372
735628
735892
736166
736426
736682
736940
737204
737460
737706
737966
738242
738502
738768
739050
739334
739596
739854
740120
740390
740650
740924
741200
741466
741730
741998
742272
742542
742806
743070
743344
743610
743874
744154
744432
744702
744982
745268
745534
745792
746062
746338
746608
746874
747142
747422
747698
747964
748236
748524
748798
749064
749350
749628
749906
750172
750446
750728
750996
751256
751542
751826
752102
752374
752646
752932
753206
753474
753752
754038
754318
754590
754864
755132
755398
755658
755944
756234
756504
756784
757072
757360
757636
757912
758208
758502
758770
759052
759348
759640
759910
760190
760466
760758
761016
761274
761546
761826
762102
762366
762630
762912
763192
763458
763728
764012
764336
764622
764900
765176
765440
765702
765988
766262
766524
766798
767088
767354
767618
767904
768186
768446
768718
768998
769262
769540
769844
770136
770412
770708
770994
771258
771518
771796
772094
772370
772626
772886
773164
773434
773700
773980
774262
774532
774820
775110
775382
775644
775924
776206
776472
776734
777002
777280
777548
777804
778060
778348
778646
778904
779164
779442
779726
779992
780276
780564
780836
781090
781360
781632
781886
782132
782402
782698
782976
783238
783506
783776
784056
784306
784566
784852
785146
785412
785674
785928
786170
786400
786624
786832
787038
787240
787434
787618
787802
787978
788156
788338
788518
788700
788888
789084
789272
789466
789656
789844
790032
790218
790396
790576
790752
790932
791104
791276
791448
791618
791788
791956
792130
792302
792478
792656
792842
793028
793216
793402
793594
793782
793966
794144
794322
794498
794676
794858
795036
795216
795398
795578
795758
795940
796124
796314
796502
796692
796878
797066
797246
797426
797610
797790
797966
798150
798336
798528
798726
798918
799112
799308
799502
799692
799880
800070
800258
800442
800624
800810
800996
801182
801372
801566
801768
801970
802162
802350
802536
802714
802886
803056
803224
803394
803572
803758
803954
804146
804338
804528
804714
804896
805068
805238
805398
805556
805714
805874
806036
806218
806426
806636
806832
807032
807230
807422
807610
807798
807982
808158
808340
808518
808692
808866
809038
809210
809378
809548
809714
809882
810050
810216
810380
810546
810718
810892
811070
811246
811422
811596
811772
811952
812130
812310
812492
812672
812854
813036
813222
813406
813590
813774
813958
814140
814320
814498
814676
814850
815028
815206
815384
815552
815730
815906
816078
816258
816438
816626
816812
817004
817204
817410
817608
817812
818012
818208
818402
818602
818808
819006
819202
819400
819588
819776
819964
820156
820350
820544
820742
820936
821122
821306
821492
821676
821858
822044
822234
822432
822622
822822
823022
823220
823410
823600
823788
823970
824152
824330
824502
824674
824844
825018
825188
825364
825544
825736
825936
826140
826344
826548
826748
826942
827134
827324
827508
827690
827868
828046
828222
828394
828568
828740
828914
829088
829264
829438
829610
829780
829948
830112
830276
830438
830602
830764
830926
831086
831244
831398
831554
831708
831870
832052
832258
832462
832658
832846
833028
833204
833378
833558
833736
833910
834084
834262
834440
834618
834796
834972
835144
835316
835484
835656
835832
836014
836196
836376
836560
836744
836924
837104
837280
837458
837636
837816
837992
838174
838362
838568
838786
839016
839236
839442
839638
839830
840020
840202
840390
840578
840778
840980
841194
841418
841656
841886
842128
842374
842604
842840
843078
843334
843622
843906
844146
844372
844596
844822
845068
845350
845626
845910
846180
846414
846640
846846
847048
847238
847428
847624
847818
848024
848254
848472
848684
848920
849164
849396
849646
849900
850150
850386
850632
850868
851090
851330
851614
851890
852150
852406
852670
852936
853170
853398
853610
853830
854058
854306
854564
854806
855038
855260
855472
855676
855884
856114
856336
856562
856820
857142
857490
857804
858084
858336
858558
858776
858986
859210
859434
859668
859912
860148
860382
860618
860866
861124
861386
861638
861868
862098
862336
862610
862844
863078
863304
863544
863782
864038
864290
864554
864826
865088
865342
865570
865782
865988
866182
866378
866584
866796
867012
867254
867516
867802
868106
868402
868676
868940
869178
869410
869650
869920
870168
870420
870660
870884
871114
871444
871744
872030
872294
872552
872810
873070
873352
873624
873878
874120
874350
874566
874774
874998
875228
875466
875742
876022
876302
876572
876816
877050
877310
877574
877816
878068
878316
878554
878778
879006
879240
879478
879706
879924
880138
880354
880576
880792
881004
881222
881454
881680
881916
882152
882376
882602
882824
883050
883272
883500
883740
883992
884228
884462
884674
884882
885084
885294
885508
885728
885946
886166
886378
886604
886838
887070
887296
887510
887730
887948
888170
888382
888600
888816
889028
889230
889432
889626
889820
890014
890208
890406
890602
890804
890998
891190
891376
891560
891742
891920
892098
892274
892448
892618
892788
892952
893116
893278
893436
893594
893750
893904
894056
894208
894358
894510
894662
894816
894968
895120
895270
895420
895568
895718
895870
896026
896196
896376
896564
896756
896942
897130
897314
897496
897674
897852
898026
898200
898370
898538
898704
898870
899034
899198
899360
899522
899686
899850
900014
900176
900336
900496
900656
900818
900978
901140
901302
901466
901632
901796
901958
902122
902288
902456
902620
902790
902954
903122
903290
903458
903630
903802
903976
904148
904318
904486
904656
904824
904990
905158
905324
905490
905654
905822
905988
906152
906320
906486
906650
906814
906978
907140
907300
907462
907622
907780
907938
908094
908252
908410
908564
908718
908874
909028
909180
909334
909486
909640
909794
909948
910104
910262
910426
910592
910762
910938
911122
911308
911492
911676
911858
912032
912206
912376
912546
912710
912874
913036
913196
913352
913508
913662
913814
913968
914120
914270
914420
914566
914716
914866
915020
915176
915330
915490
915648
915806
915966
916124
916284
916442
916602
916762
916922
917080
917236
917392
917546
917698
917850
918000
918150
918300
918450
918600
918748
918896
919044
919192
919344
919496
919654
919816
919982
920152
920328
920506
920688
920864
921042
921214
921384
921552
921718
921882
922042
922204
922366
922526
922686
922846
923006
923168
923328
923490
923652
923814
923972
924134
924294
924456
924618
924780
924946
925112
925274
925434
925598
925760
925918
926078
926238
926396
926552
926710
926866
927020
927172
927324
927474
927624
927772
927920
928066
928210
928352
928496
928638
928776
928916
929052
929188
929324
929458
929592
929724
929856
929988
930120
930252
930382
930512
930642
930772
930902
931030
931158
931286
931418
931550
931684
931820
931956
932096
932234
932374
932514
932656
932794
932936
933076
933214
933352
933492
933632
933772
933910
934050
934190
934328
934466
934604
934742
934878
935016
935154
935292
935430
935568
935706
935848
935990
936134
936278
936422
936568
936714
936860
937004
937150
937294
937438
937582
937724
937864
938006
938146
938288
938432
938580
938728
938876
939024
939174
939324
939474
939624
939776
939928
940080
940232
940388
940542
940694
940846
940998
941146
941294
941442
941590
941736
941882
942030
942178
942328
942502
942706
942914
943120
943328
943536
943734
943924
944110
944294
944476
944658
944840
945022
945204
945386
945562
945734
945906
946080
946260
946448
946636
946824
947010
947192
947370
947548
947724
947900
948074
948246
948422
948598
948772
948948
949122
949300
949492
949688
949874
950060
950240
950420
950592
950762
950932
951096
951256
951418
951578
951744
951908
952074
952242
952408
952578
952746
952910
953074
953236
953396
953554
953716
953878
954044
954210
954380
954552
954726
954902
955078
955252
955426
955596
955764
955932
956098
956260
956422
956584
956754
956942
957138
957366
957604
957844
958078
958300
958512
958722
958932
959142
959346
959550
959744
959934
960118
960306
960488
960666
960840
961016
961192
961366
961544
961726
961910
962090
962270
962448
962624
962796
962966
963134
963300
963462
963622
963782
963946
964120
964294
964472
964652
964832
965010
965188
965370
965556
965738
965922
966112
966310
966504
966690
966878
967060
967236
967410
967586
967762
967942
968118
968294
968470
968648
968822
969000
969178
969356
969534
969710
969888
970068
970246
970418
970590
970756
970920
971080
971238
971394
971546
971696
971848
971998
972152
972306
972462
972618
972778
972936
973100
973272
973446
973622
973798
973970
974138
974304
974466
974628
974790
974950
975108
975266
975420
975572
975720
975866
976010
976154
976294
976438
976580
976730
976886
977040
977196
977348
977502
977654
977804
977956
978106
978252
978398
978542
978686
978830
978974
979120
979266
979412
979558
979706
979852
979998
980144
980290
980434
980580
980728
980874
981020
981166
981312
981458
981602
981746
981890
982032
982174
982316
982454
982596
982738
982882
983030
983178
983324
983470
983618
983764
983914
984062
984210
984358
984504
984650
984794
984934
985076
985218
985362
985508
985658
985806
985954
986102
986248
986394
986540
986686
986834
986982
987134
987286
987440
987594
987750
987906
988062
988216
988368
988518
988666
988814
988960
989106
989250
989402
989558
989734
989920
990118
990306
990492
990670
990844
991014
991180
991346
991510
991672
991832
991988
992142
992292
992444
992592
992740
992888
993036
993184
993336
993486
993642
993798
993952
994104
994258
994408
994562
994714
994862
995010
995156
995302
995446
995592
995738
995882
996026
996172
996318
996464
996610
996756
996906
997054
997204
997358
997508
997658
997806
997956
998104
998250
998396
998538
998682
998826
998966
999106
999248
999388
999528
999670
999810
999950
1000090
1000228
1000368
1000508
1000646
1000786
1000926
1001066
1001208
1001350
1001492
1001636
1001778
1001920
1002064
1002206
1002348
1002490
1002628
1002766
1002904
1003042
1003178
1003314
1003450
1003586
1003720
1003856
1003988
1004122
1004256
1004388
1004520
1004654
1004788
1004920
1005054
1005185
1005320
1005456
1005590
1005728
1005866
1006004
1006142
1006280
1006420
1006556
1006694
1006828
1006964
1007098
1007234
1007368
1007502
1007638
1007772
1007906
1008040
1008176
1008314
1008456
1008604
1008752
1008900
1009050
1009206
1009370
1009534
1009696
1009856
1010020
1010182
1010340
1010496
1010654
1010810
1010964
1011116
1011272
1011428
1011584
1011742
1011898
1012058
1012222
1012384
1012546
1012710
1012874
1013042
1013208
1013374
1013538
1013706
1013870
1014030
1014192
1014350
1014508
1014666
1014824
1014982
1015144
1015310
1015472
1015638
1015812
1015992
1016164
1016338
1016514
1016688
1016858
1017028
1017194
1017358
1017518
1017678
1017836
1017996
1018156
1018316
1018476
1018638
1018804
1018970
1019136
1019306
1019474
1019642
1019808
1019974
1020140
1020304
1020468
1020630
1020790
1020950
1021110
1021266
1021424
1021580
1021738
1021896
1022054
1022220
1022390
1022562
1022730
1022900
1023072
1023242
1023414
1023580
1023746
1023908
1024068
1024228
1024382
1024534
1024686
1024836
1024984
1025132
1025282
1025434
1025594
1025760
1025932
1026098
1026264
1026432
1026598
1026764
1026928
1027092
1027258
1027426
1027598
1027766
1027938
1028108
1028280
1028450
1028616
1028780
1028944
1029108
1029270
1029434
1029604
1029776
1029946
1030116
1030290
1030462
1030630
1030796
1030958
1031120
1031278
1031438
1031596
1031754
1031912
1032070
1032228
1032384
1032542
1032700
1032856
1033016
1033180
1033340
1033506
1033672
1033840
1034004
1034168
1034332
1034494
1034652
1034810
1034970
1035128
1035288
1035448
1035612
1035778
1035946
1036114
1036284
1036454
1036624
1036794
1036962
1037126
1037290
1037456
1037620
1037786
1037954
1038120
1038290
1038462
1038644
1038822
1038998
1039172
1039344
1039512
1039678
1039844
1040012
1040178
1040346
1040510
1040674
1040842
1041008
1041172
1041338
1041506
1041672
1041838
1042002
1042166
1042330
1042498
1042664
1042828
1042992
1043156
1043322
1043486
1043648
1043810
1043974
1044136
1044296
1044456
1044616
1044778
1044940
1045106
1045274
1045448
1045624
1045800
1045972
1046144
1046316
1046484
1046648
1046810
1046974
1047134
1047296
1047458
1047618
1047782
1047946
1048112
1048276
1048442
1048610
1048778
1048944
1049110
1049274
1049436
1049600
1049764
1049926
1050088
1050250
1050414
1050576
1050738
1050900
1051066
1051230
1051392
1051556
1051720
1051882
1052042
1052200
1052358
1052514
1052672
1052834
1052992
1053150
1053308
1053468
1053626
1053782
1053936
1054090
1054244
1054400
1054560
1054722
1054884
1055046
1055210
1055376
1055540
1055700
1055860
1056018
1056172
1056326
1056480
1056638
1056800
1056962
1057122
1057284
1057442
1057602
1057756
1057912
1058066
1058226
1058398
1058574
1058754
1058938
1059120
1059308
1059492
1059672
1059856
1060042
1060228
1060412
1060594
1060774
1060952
1061126
1061298
1061466
1061632
1061796
1061956
1062114
1062270
1062428
1062582
1062740
1062894
1063050
1063204
1063358
1063512
1063666
1063818
1063968
1064118
1064268
1064414
1064564
1064718
1064892
1065080
1065278
1065468
1065658
1065848
1066032
1066212
1066392
1066574
1066754
1066934
1067110
1067282
1067448
1067614
1067776
1067934
1068088
1068240
1068390
1068538
1068686
1068834
1068984
1069132
1069284
1069440
1069594
1069750
1069906
1070066
1070226
1070384
1070542
1070698
1070852
1071006
1071158
1071310
1071460
1071612
1071764
1071916
1072068
1072220
1072370
1072522
1072672
1072822
1072976
1073132
1073288
1073450
1073610
1073772
1073932
1074088
1074246
1074400
1074554
1074708
1074858
1075008
1075158
1075304
1075450
1075592
1075736
1075880
1076024
1076170
1076314
1076460
1076606
1076752
1076900
1077050
1077200
1077350
1077500
1077648
1077798
1077948
1078096
1078246
1078394
1078544
1078694
1078844
1078996
1079148
1079298
1079450
1079600
1079750
1079898
1080048
1080198
1080348
1080498
1080648
1080798
1080948
1081096
1081244
1081392
1081540
1081690
1081836
1081984
1082130
1082276
1082422
1082568
1082714
1082862
1083010
1083158
1083308
1083456
1083604
1083754
1083902
1084048
1084196
1084346
1084494
1084642
1084790
1084936
1085080
1085224
1085366
1085508
1085650
1085792
1085934
1086074
1086216
1086356
1086498
1086644
1086800
1086966
1087140
1087310
1087480
1087652
1087828
1088000
1088172
1088340
1088508
1088676
1088850
1089028
1089206
1089386
1089560
1089732
1089900
1090070
1090242
1090414
1090586
1090758
1090926
1091092
1091254
1091416
1091574
1091730
1091884
1092036
1092188
1092338
1092492
1092646
1092802
1092956
1093110
1093264
1093414
1093568
1093722
1093882
1094056
1094260
1094466
1094664
1094862
1095056
1095242
1095428
1095614
1095806
1096002
1096202
1096400
1096594
1096780
1096964
1097142
1097324
1097506
1097686
1097864
1098038
1098210
1098384
1098556
1098728
1098898
1099068
1099232
1099394
1099556
1099716
1099878
1100046
1100218
1100392
1100576
1100774
1100980
1101180
1101388
1101598
1101808
1102012
1102204
1102386
1102562
1102736
1102910
1103084
1103260
1103434
1103604
1103774
1103946
1104114
1104282
1104446
1104610
1104770
1104926
1105082
1105236
1105390
1105542
1105692
1105840
1105984
1106128
1106270
1106414
1106554
1106696
1106842
1106996
1107154
1107322
1107498
1107680
1107876
1108066
1108252
1108430
1108600
1108764
1108926
1109088
1109250
1109412
1109572
1109734
1109896
1110056
1110214
1110376
1110536
1110700
1110864
1111022
1111182
1111338
1111494
1111646
1111798
1111948
1112100
1112254
1112412
1112570
1112728
1112884
1113036
1113188
1113340
1113494
1113656
1113824
1113996
1114180
1114364
1114550
1114734
1114918
1115098
1115280
1115458
1115634
1115810
1115990
1116170
1116348
1116528
1116708
1116884
1117056
1117224
1117394
1117560
1117726
1117892
1118058
1118222
1118386
1118548
1118706
1118864
1119022
1119180
1119340
1119500
1119660
1119822
1119986
1120154
1120326
1120502
1120682
1120862
1121036
1121208
1121378
1121546
1121710
1121874
1122038
1122198
1122356
1122514
1122670
1122828
1122984
1123144
1123306
1123470
1123634
1123798
1123962
1124126
1124286
1124446
1124602
1124756
1124908
1125060
1125212
1125362
1125512
1125662
1125814
1125966
1126120
1126278
1126438
1126596
1126754
1126910
1127064
1127218
1127368
1127520
1127668
1127816
1127964
1128112
1128260
1128408
1128558
1128708
1128860
1129012
1129164
1129316
1129468
1129618
1129768
1129918
1130072
1130234
1130408
1130598
1130806
1131004
1131200
1131390
1131574
1131760
1131946
1132134
1132316
1132492
1132666
1132834
1132996
1133162
1133328
1133498
1133666
1133834
1134004
1134172
1134342
1134514
1134698
1134894
1135086
1135284
1135484
1135684
1135878
1136068
1136254
1136430
1136604
1136776
1136950
1137128
1137308
1137492
1137684
1137870
1138062
1138258
1138460
1138664
1138868
1139072
1139272
1139464
1139656
1139852
1140048
1140236
1140426
1140618
1140814
1141000
1141134
1141344
1141532
1141708
1141876
1142038
1142196
1142352
1142506
1142660
1142816
1142970
1143126
1143284
1143438
1143594
1143748
1143904
1144060
1144214
1144370
1144522
1144674
1144824
1144972
1145122
1145270
1145418
1145564
1145712
1145860
1146010
1146154
1146304
1146452
1146600
1146750
1146906
1147084
1147308
1147584
1147852
1148114
1148378
1148638
1148896
1149132
1149360
1149584
1149802
1150032
1150260
1150478
1150692
1150896
1151088
1151272
1151454
1151636
1151822
1152010
1152204
1152400
1152600
1152800
1152992
1153178
1153366
1153554
1153746
1153938
1154136
1154340
1154538
1154738
1154942
1155142
1155338
1155530
1155718
1155902
1156090
1156284
1156482
1156684
1156892
1157094
1157286
1157470
1157650
1157822
1157992
1158158
1158330
1158508
1158690
1158866
1159050
1159236
1159432
1159630
1159848
1160072
1160276
1160478
1160668
1160854
1161036
1161218
1161408
1161610
1161830
1162032
1162246
1162470
1162692
1162912
1163120
1163318
1163514
1163702
1163886
1164068
1164246
1164422
1164598
1164770
1164944
1165124
1165306
1165492
1165676
1165862
1166046
1166232
1166412
1166588
1166762
1166934
1167102
1167272
1167446
1167622
1167798
1167976
1168150
1168328
1168506
1168684
1168868
1169050
1169230
1169404
1169582
1169752
1169928
1170098
1170270
1170436
1170600
1170770
1170942
1171128
1171318
1171512
1171698
1171878
1172058
1172236
1172410
1172586
1172766
1172948
1173134
1173318
1173498
1173674
1173846
1174018
1174196
1174382
1174564
1174752
1174944
1175140
1175332
1175514
1175692
1175872
1176050
1176226
1176400
1176574
1176750
1176926
1177104
1177284
1177460
1177632
1177806
1177980
1178154
1178328
1178500
1178676
1178856
1179040
1179224
1179408
1179588
1179772
1179956
1180134
1180314
1180490
1180664
1180838
1181006
1181176
1181342
1181506
1181668
1181830
1181994
1182156
1182318
1182476
1182636
1182792
1182946
1183100
1183252
1183404
1183558
1183708
1183856
1184004
1184148
1184290
1184432
1184572
1184712
1184852
1185002
1185154
1185302
1185448
1185596
1185744
1185894
1186044
1186192
1186340
1186490
1186638
1186792
1186948
1187104
1187258
1187414
1187568
1187726
1187884
1188038
1188190
1188344
1188494
1188642
1188788
1188934
1189080
1189228
1189376
1189528
1189678
1189832
1189996
1190180
1190372
1190560
1190740
1190916
1191088
1191260
1191428
1191594
1191760
1191922
1192082
1192238
1192392
1192544
1192696
1192844
1192990
1193134
1193278
1193420
1193560
1193700
1193842
1193988
1194146
1194312
1194484
1194658
1194838
1195010
1195190
1195360
1195526
1195690
1195852
1196012
1196174
1196338
1196504
1196670
1196834
1196998
1197158
1197314
1197472
1197626
1197778
1197934
1198094
1198262
1198456
1198648
1198834
1199016
1199198
1199376
1199552
1199726
1199898
1200070
1200242
1200416
1200586
1200760
1200938
1201118
1201300
1201476
1201652
1201826
1201996
1202166
1202332
1202494
1202656
1202816
1202974
1203132
1203292
1203458
1203626
1203796
1203964
1204130
1204292
1204452
1204614
1204770
1204924
1205078
1205230
1205380
1205530
1205676
1205824
1205970
1206120
1206270
1206422
1206580
1206742
1206916
1207094
1207266
1207440
1207614
1207790
1207966
1208150
1208332
1208512
1208692
1208868
1209044
1209216
1209384
1209552
1209718
1209888
1210060
1210232
1210404
1210578
1210750
1210920
1211088
1211254
1211416
1211576
1211738
1211904
1212070
1212240
1212412
1212590
1212770
1212950
1213130
1213310
1213488
1213664
1213834
1214002
1214168
1214336
1214500
1214664
1214828
1214988
1215148
1215308
1215470
1215632
1215792
1215956
1216126
1216300
1216482
1216668
1216858
1217046
1217228
1217410
1217586
1217764
1217936
1218108
1218278
1218446
1218610
1218774
1218938
1219102
1219264
1219428
1219592
1219760
1219928
1220100
1220278
1220456
1220636
1220814
1220994
1221172
1221346
1221516
1221684
1221850
1222014
1222180
1222346
1222514
1222680
1222848
1223016
1223182
1223346
1223512
1223682
1223850
1224020
1224192
1224370
1224550
1224730
1224912
1225086
1225260
1225430
1225600
1225768
1225938
1226104
1226270
1226436
1226598
1226760
1226920
1227080
1227242
1227402
1227562
1227724
1227886
1228046
1228206
1228370
1228534
1228700
1228868
1229032
1229192
1229352
1229510
1229666
1229822
1229978
1230136
1230298
1230464
1230626
1230790
1230952
1231114
1231276
1231440
1231606
1231774
1231942
1232112
1232282
1232450
1232620
1232788
1232956
1233128
1233298
1233464
1233630
1233798
1233968
1234138
1234316
1234496
1234674
1234854
1235034
1235214
1235390
1235566
1235740
1235910
1236082
1236250
1236422
1236590
1236758
1236924
1237090
1237254
1237418
1237580
1237740
1237900
1238060
1238218
1238378
1238538
1238696
1238856
1239016
1239174
1239332
1239490
1239648
1239806
1239962
1240116
1240272
1240430
1240596
1240772
1240960
1241164
1241368
1241574
1241776
1241976
1242170
1242362
1242546
1242728
1242904
1243076
1243246
1243412
1243578
1243742
1243904
1244066
1244226
1244386
1244546
1244706
1244866
1245024
1245186
1245348
1245512
1245674
1245836
1246000
1246164
1246328
1246490
1246652
1246812
1246972
1247130
1247288
1247446
1247602
1247760
1247916
1248070
1248226
1248380
1248532
1248686
1248840
1248996
1249150
1249304
1249458
1249612
1249766
1249920
1250074
1250228
1250384
1250540
1250696
1250852
1251010
1251168
1251326
1251482
1251638
1251794
1251948
1252102
1252258
1252414
1252570
1252724
1252880
1253032
1253184
1253340
1253504
1253680
1253884
1254104
1254310
1254510
1254706
1254902
1255092
1255274
1255456
1255638
1255826
1256020
1256218
1256420
1256620
1256816
1257012
1257206
1257396
1257580
1257758
1257932
1258102
1258272
1258442
1258612
1258784
1258956
1259128
1259298
1259472
1259642
1259816
1259992
1260164
1260338
1260512
1260684
1260856
1261026
1261200
1261374
1261550
1261726
1261904
1262080
1262256
1262430
1262600
1262768
1262938
1263102
1263268
1263434
1263602
1263774
1263944
1264118
1264290
1264460
1264628
1264794
1264958
1265120
1265280
1265440
1265604
1265768
1265936
1266108
1266280
1266460
1266642
1266822
1267000
1267178
1267354
1267526
1267694
1267860
1268026
1268188
1268348
1268506
1268662
1268816
1268970
1269124
1269278
1269438
1269604
1269786
1269968
1270156
1270348
1270544
1270732
1270918
1271102
1271280
1271452
1271624
1271792
1271956
1272118
1272282
1272448
1272612
1272786
1272964
1273144
1273320
1273492
1273664
1273832
1273998
1274164
1274332
1274496
1274662
1274828
1274994
1275158
1275320
1275482
1275640
1275798
1275954
1276110
1276268
1276424
1276580
1276742
1276908
1277070
1277238
1277406
1277578
1277752
1277928
1278102
1278274
1278442
1278606
1278770
1278930
1279090
1279246
1279402
1279556
1279710
1279864
1280016
1280170
1280322
1280476
1280632
1280786
1280940
1281094
1281248
1281402
1281552
1281702
1281848
1281996
1282142
1282290
1282442
1282600
1282764
1282926
1283088
1283248
1283410
1283568
1283726
1283882
1284036
1284188
1284340
1284488
1284638
1284786
1284934
1285082
1285230
1285378
1285530
1285680
1285834
1285984
1286136
1286288
1286438
1286588
1286736
1286884
1287032
1287182
1287334
1287484
1287636
1287786
1287938
1288088
1288238
1288388
1288538
1288686
1288836
1288984
1289132
1289278
1289426
1289572
1289720
1289868
1290016
1290166
1290316
1290470
1290626
1290782
1290940
1291092
1291246
1291398
1291550
1291700
1291850
1292000
1292152
1292310
1292480
1292658
1292828
1292994
1293158
1293320
1293476
1293630
1293786
1293938
1294088
1294240
1294390
1294542
1294696
1294850
1295008
1295164
1295318
1295474
1295634
1295794
1295960
1296132
1296306
1296470
1296632
1296798
1296962
1297134
1297310
1297484
1297654
1297828
1297998
1298166
1298332
1298490
1298648
1298802
1298954
1299104
1299254
1299402
1299550
1299702
1299856
1300008
1300156
1300302
1300452
1300604
1300768
1300964
1301160
1301352
1301540
1301738
1301946
1302150
1302344
1302536
1302720
1302904
1303076
1303240
1303406
1303566
1303730
1303894
1304062
1304228
1304390
1304552
1304714
1304880
1305054
1305224
1305390
1305556
1305722
1305886
1306046
1306206
1306366
1306526
1306682
1306834
1306990
1307142
1307296
1307452
1307614
1307780
1307944
1308110
1308276
1308442
1308606
1308772
1308932
1309092
1309254
1309418
1309580
1309746
1309910
1310074
1310234
1310394
1310556
1310716
1310876
1311038
1311200
1311362
1311530
1311704
1311888
1312070
1312264
1312464
1312668
1312874
1313080
1313288
1313486
1313680
1313868
1314054
1314234
1314414
1314592
1314772
1314954
1315142
1315328
1315514
1315700
1315888
1316072
1316250
1316428
1316604
1316780
1316952
1317122
1317290
1317456
1317618
1317780
1317940
1318110
1318284
1318482
1318676
1318860
1319054
1319242
1319432
1319622
1319804
1319998
1320184
1320364
1320534
1320702
1320868
1321028
1321188
1321344
1321496
1321652
1321812
1321982
1322178
1322372
1322562
1322752
1322946
1323138
1323324
1323504
1323682
1323856
1324036
1324218
1324396
1324574
1324750
1324928
1325098
1325266
1325430
1325594
1325762
1325936
1326112
1326292
1326484
1326686
1326886
1327082
1327262
1327442
1327614
1327788
1327958
1328128
1328294
1328466
1328638
1328816
1328998
1329182
1329368
1329554
1329730
1329910
1330084
1330256
1330422
1330586
1330752
1330918
1331088
1331262
1331434
1331602
1331766
1331930
1332090
1332248
1332410
1332582
1332768
1332962
1333156
1333344
1333528
1333710
1333886
1334062
1334242
1334434
1334630
1334824
1335016
1335210
1335402
1335588
1335772
1335954
1336130
1336302
1336470
1336638
1336806
1336972
1337136
1337302
1337472
1337644
1337832
1338030
1338226
1338424
1338622
1338816
1339000
1339184
1339360
1339532
1339700
1339868
1340040
1340218
1340394
1340576
1340762
1340956
1341148
1341334
1341520
1341700
1341874
1342050
1342224
1342398
1342570
1342740
1342908
1343074
1343238
1343402
1343566
1343734
1343902
1344076
1344244
1344412
1344578
1344744
1344908
1345074
1345238
1345400
1345560
1345720
1345876
1346032
1346190
1346354
1346530
1346704
1346878
1347056
1347228
1347398
1347570
1347750
1347936
1348124
1348318
1348512
1348704
1348892
1349080
1349262
1349434
1349608
1349778
1349948
1350114
1350284
1350456
1350628
1350800
1350972
1351146
1351320
1351492
1351662
1351832
1351998
1352162
1352322
1352484
1352642
1352802
1352962
1353126
1353294
1353462
1353634
1353812
1353992
1354166
1354338
1354506
1354672
1354832
1354992
1355148
1355306
1355462
1355616
1355768
1355918
1356066
1356216
1356372
1356528
1356686
1356840
1356994
1357148
1357304
1357474
1357668
1357870
1358072
1358260
1358444
1358624
1358810
1358996
1359176
1359364
1359556
1359746
1359932
1360114
1360300
1360494
1360690
1360888
1361096
1361296
1361490
1361678
1361868
1362050
1362222
1362392
1362558
1362718
1362876
1363034
1363190
1363350
1363520
1363692
1363866
1364044
1364218
1364390
1364560
1364730
1364894
1365060
1365226
1365400
1365578
1365762
1365948
1366130
1366302
1366476
1366644
1366808
1366972
1367136
1367300
1367464
1367632
1367802
1367972
1368138
1368302
1368464
1368626
1368786
1368942
1369098
1369252
1369404
1369554
1369704
1369852
1370000
1370146
1370294
1370440
1370588
1370738
1370892
1371044
1371198
1371350
1371502
1371652
1371804
1371954
1372104
1372252
1372400
1372546
1372690
1372834
1372978
1373120
1373264
1373410
1373560
1373712
1373860
1374010
1374158
1374308
1374456
1374608
1374760
1374918
1375072
1375232
1375390
1375546
1375700
1375854
1376008
1376164
1376322
1376478
1376634
1376788
1376940
1377092
1377240
1377388
1377534
1377682
1377830
1377980
1378128
1378274
1378422
1378570
1378718
1378862
1379008
1379150
1379294
1379438
1379584
1379730
1379876
1380028
1380178
1380332
1380488
1380642
1380798
1380952
1381108
1381260
1381412
1381560
1381708
1381854
1382000
1382146
1382292
1382440
1382588
1382738
1382888
1383038
1383188
1383340
1383492
1383644
1383798
1383966
1384146
1384328
1384518
1384708
1384892
1385072
1385250
1385430
1385608
1385784
1385964
1386146
1386326
1386502
1386674
1386846
1387014
1387178
1387344
1387510
1387682
1387858
1388036
1388214
1388392
1388572
1388750
1388924
1389094
1389260
1389422
1389584
1389746
1389904
1390064
1390222
1390380
1390542
1390708
1390874
1391042
1391214
1391388
1391564
1391738
1391914
1392092
1392264
1392434
1392600
1392766
1392928
1393090
1393252
1393410
1393570
1393728
1393888
1394046
1394206
1394360
1394514
1394668
1394818
1394972
1395130
1395294
1395458
1395620
1395782
1395944
1396108
1396278
1396444
1396612
1396776
1396940
1397100
1397256
1397412
1397568
1397728
1397888
1398052
1398214
1398374
1398532
1398690
1398848
1399008
1399172
1399344
1399524
1399712
1399902
1400094
1400284
1400472
1400652
1400828
1401000
1401168
1401334
1401500
1401666
1401832
1401998
1402162
1402324
1402484
1402642
1402800
1402958
1403114
1403276
1403446
1403614
1403780
1403950
1404120
1404290
1404456
1404624
1404788
1404954
1405122
1405270
1405482
1405664
1405846
1406028
1406206
1406386
1406566
1406752
1406944
1407140
1407340
1407530
1407716
1407906
1408096
1408282
1408464
1408648
1408832
1409016
1409196
1409376
1409556
1409730
1409902
1410072
1410244
1410416
1410588
1410762
1410942
1411122
1411306
1411484
1411666
1411844
1412016
1412188
1412362
1412550
1412756
1412978
1413178
1413374
1413574
1413770
1413956
1414158
1414358
1414564
1414770
1414972
1415166
1415348
1415526
1415702
1415876
1416052
1416226
1416402
1416582
1416762
1416946
1417132
1417318
1417500
1417676
1417854
1418030
1418208
1418384
1418556
1418722
1418886
1419046
1419208
1419372
1419536
1419698
1419862
1420032
1420202
1420376
1420548
1420732
1420936
1421154
1421362
1421560
1421760
1421964
1422174
1422394
1422610
1422818
1423020
1423210
1423396
1423580
1423762
1423942
1424122
1424304
1424484
1424660
1424838
1425014
1425184
1425350
1425516
1425674
1425830
1425986
1426140
1426290
1426442
1426594
1426744
1426896
1427048
1427202
1427356
1427510
1427668
1427832
1427998
1428184
1428378
1428578
1428784
1428996
1429198
1429398
1429594
1429780
1429956
1430126
1430292
1430454
1430612
1430770
1430924
1431074
1431226
1431378
1431530
1431688
1431864
1432062
1432266
1432466
1432664
1432860
1433054
1433240
1433422
1433602
1433780
1433954
1434128
1434302
1434474
1434646
1434818
1434990
1435162
1435334
1435506
1435676
1435844
1436010
1436176
1436342
1436506
1436668
1436832
1436998
1437166
1437334
1437504
1437672
1437840
1438006
1438170
1438332
1438498
1438660
1438824
1438990
1439160
1439326
1439492
1439660
1439826
1439994
1440160
1440326
1440490
1440654
1440816
1440980
1441146
1441316
1441484
1441658
1441832
1442002
1442172
1442342
1442508
1442670
1442830
1442990
1443152
1443320
1443504
1443724
1443938
1444150
1444364
1444574
1444766
1444952
1445132
1445308
1445482
1445662
1445858
1446058
1446268
1446472
1446676
1446886
1447108
1447320
1447538
1447746
1447952
1448164
1448372
1448572
1448768
1448968
1449164
1449352
1449546
1449746
1449952
1450148
1450356
1450556
1450754
1450954
1451146
1451332
1451524
1451712
1451908
1452102
1452294
1452488
1452688
1452882
1453064
1453244
1453420
1453596
1453770
1453946
1454122
1454294
1454466
1454630
1454806
1454984
1455156
1455328
1455506
1455682
1455858
1456036
1456212
1456390
1456566
1456744
1456926
1457108
1457294
1457480
1457662
1457842
1458020
1458194
1458370
1458546
1458720
1458892
1459068
1459242
1459418
1459594
1459766
1459940
1460108
1460278
1460452
1460632
1460812
1460982
1461154
1461326
1461496
1461664
1461832
1462006
1462182
1462360
1462534
1462706
1462880
1463052
1463226
1463402
1463576
1463754
1463932
1464112
1464286
1464458
1464630
1464802
1464974
1465146
1465320
1465490
1465658
1465826
1465990
1466154
1466316
1466478
1466636
1466794
1466952
1467108
1467264
1467420
1467572
1467722
1467872
1468020
1468168
1468320
1468488
1468696
1468908
1469124
1469350
1469566
1469770
1469972
1470172
1470372
1470574
1470772
1470966
1471166
1471362
1471558
1471756
1471960
1472154
1472352
1472552
1472742
1472932
1473124
1473312
1473496
1473682
1473866
1474052
1474236
1474418
1474606
1474794
1474978
1475162
1475346
1475524
1475698
1475874
1476048
1476216
1476390
1476566
1476742
1476922
1477106
1477290
1477468
1477646
1477824
1477994
1478162
1478328
1478492
1478652
1478808
1478966
1479118
1479270
1479420
1479568
1479714
1479858
1480000
1480144
1480288
1480436
1480582
1480730
1480880
1481028
1481176
1481326
1481476
1481626
1481778
1481928
1482078
1482228
1482378
1482528
1482676
1482824
1482972
1483120
1483266
1483412
1483556
1483698
1483838
1483980
1484130
1484296
1484490
1484706
1484916
1485120
1485318
1485508
1485688
1485864
1486032
1486196
1486358
1486516
1486670
1486822
1486970
1487120
1487270
1487422
1487574
1487726
1487880
1488036
1488192
1488348
1488502
1488656
1488810
1488960
1489110
1489256
1489402
1489546
1489690
1489834
1489976
1490120
1490268
1490416
1490568
1490722
1490880
1491036
1491192
1491344
1491496
1491644
1491794
1491942
1492090
1492240
1492388
1492538
1492688
1492838
1492990
1493138
1493288
1493434
1493580
1493724
1493868
1494010
1494154
1494296
1494440
1494580
1494720
1494862
1495002
1495144
1495286
1495426
1495568
1495710
1495852
1495994
1496136
1496278
1496418
1496560
1496700
1496842
1496982
1497124
1497266
1497408
1497548
1497690
1497830
1497970
1498112
1498252
1498392
1498532
1498670
1498810
1498948
1499088
1499228
1499368
1499510
1499658
1499824
1499996
1500170
1500342
1500512
1500672
1500830
1500986
1501140
1501292
1501442
1501592
1501742
1501894
1502048
1502204
1502358
1502518
1502678
1502836
1502992
1503146
1503300
1503454
1503604
1503754
1503904
1504054
1504204
1504354
1504504
1504654
1504804
1504952
1505104
1505254
1505404
1505554
1505704
1505854
1506002
1506152
1506304
1506456
1506608
1506762
1506918
1507074
1507232
1507390
1507550
1507706
1507860
1508012
1508164
1508314
1508462
1508610
1508756
1508902
1509048
1509200
1509366
1509538
1509732
1509934
1510132
1510322
1510506
1510686
1510860
1511030
1511196
1511358
1511518
1511678
1511836
1511996
1512158
1512330
1512504
1512684
1512864
1513042
1513222
1513396
1513564
1513726
1513888
1514050
1514212
1514380
1514554
1514730
1514904
1515078
1515248
1515416
1515584
1515754
1515924
1516090
1516258
1516432
1516602
1516776
1516954
1517130
1517302
1517476
1517652
1517826
1518002
1518178
1518356
1518532
1518708
1518882
1519058
1519230
1519402
1519570
1519736
1519900
1520066
1520234
1520402
1520572
1520746
1520926
1521108
1521292
1521468
1521644
1521824
1522012
1522206
1522398
1522588
1522772
1522952
1523130
1523304
1523478
1523650
1523820
1523990
1524158
1524324
1524484
1524644
1524806
1524968
1525132
1525302
1525486
1525678
1525876
1526082
1526286
1526484
1526680
1526872
1527054
1527230
1527402
1527570
1527738
1527906
1528078
1528248
1528422
1528592
1528764
1528936
1529110
1529282
1529456
1529630
1529804
1529980
1530160
1530340
1530516
1530690
1530862
1531030
1531196
1531364
1531532
1531702
1531874
1532040
1532208
1532376
1532544
1532710
1532880
1533054
1533232
1533412
1533588
1533768
1533948
1534128
1534308
1534486
1534666
1534844
1535022
1535198
1535372
1535542
1535712
1535880
1536052
1536226
1536402
1536576
1536754
1536930
1537106
1537278
1537446
1537608
1537768
1537926
1538082
1538242
1538406
1538574
1538746
1538922
1539098
1539272
1539442
1539612
1539782
1539944
1540106
1540268
1540432
1540594
1540754
1540918
1541082
1541252
1541444
1541638
1541828
1542014
1542200
1542384
1542568
1542750
1542928
1543104
1543276
1543444
1543606
1543752
1543914
1544068
1544224
1544396
1544624
1544848
1545064
1545262
1545456
1545648
1545838
1546032
1546224
1546404
1546582
1546766
1546948
1547138
1547326
1547516
1547704
1547882
1548062
1548252
1548444
1548644
1548834
1549024
1549212
1549396
1549580
1549772
1549970
1550172
1550382
1550588
1550790
1550990
1551190
1551382
1551570
1551762
1551952
1552136
1552328
1552522
1552730
1552930
1553130
1553334
1553540
1553738
1553936
1554134
1554328
1554518
1554698
1554870
1555034
1555196
1555354
1555508
1555658
1555810
1555958
1556108
1556262
1556422
1556586
1556752
1556918
1557078
1557240
1557402
1557560
1557716
1557872
1558024
1558174
1558322
1558468
1558614
1558758
1558900
1559040
1559180
1559322
1559460
1559598
1559734
1559872
1560010
1560148
1560288
1560436
1560582
1560726
1560872
1561022
1561174
1561334
1561498
1561672
1561852
1562018
1562188
1562356
1562522
1562680
1562836
1563000
1563168
1563356
1563560
1563766
1563974
1564184
1564392
1564606
1564810
1565010
1565206
1565400
1565592
1565764
1565940
1566114
1566290
1566479
1566676
1566880
1567092
1567328
1567552
1567774
1567996
1568216
1568444
1568664
1568880
1569094
1569308
1569522
1569740
1569946
1570142
1570340
1570534
1570728
1570926
1571124
1571316
1571506
1571690
1571874
1572056
1572238
1572416
1572590
1572760
1572924
1573088
1573248
1573412
1573584
1573772
1573984
1574188
1574394
1574602
1574814
1575030
1575240
1575452
1575662
1575864
1576064
1576264
1576464
1576666
1576870
1577076
1577282
1577486
1577682
1577880
1578068
1578252
1578442
1578636
1578838
1579044
1579260
1579490
1579720
1579950
1580186
1580410
1580624
1580836
1581040
1581234
1581432
1581634
1581834
1582030
1582226
1582422
1582614
1582810
1583024
1583252
1583476
1583696
1583916
1584134
1584346
1584554
1584760
1584962
1585164
1585366
1585566
1585770
1585974
1586174
1586376
1586582
1586796
1587012
1587238
1587466
1587688
1587910
1588126
1588338
1588554
1588774
1588988
1589200
1589416
1589640
1589854
1590066
1590276
1590478
1590672
1590856
1591038
1591218
1591400
1591586
1591770
1591950
1592128
1592306
1592482
1592658
1592832
1593002
1593168
1593330
1593492
1593654
1593818
1593984
1594152
1594326
1594510
1594694
1594878
1595064
1595244
1595422
1595600
1595772
1595944
1596114
1596284
1596452
1596616
1596778
1596940
1597106
1597278
1597452
1597626
1597802
1597986
1598186
1598390
1598638
1598890
1599136
1599384
1599616
1599838
1600060
1600280
1600490
1600704
1600920
1601140
1601348
1601560
1601772
1601974
1602172
1602362
1602544
1602722
1602896
1603066
1603236
1603404
1603570
1603734
1603908
1604082
1604262
1604462
1604680
1604902
1605118
1605346
1605586
1605812
1606046
1606282
1606504
1606722
1606938
1607152
1607354
1607560
1607770
1607986
1608206
1608436
1608666
1608886
1609116
1609342
1609556
1609768
1609976
1610178
1610380
1610588
1610784
1610978
1611186
1611400
1611620
1611840
1612062
1612278
1612486
1612690
1612890
1613092
1613296
1613508
1613716
1613928
1614134
1614332
1614536
1614742
1614948
1615162
1615382
1615598
1615816
1616036
1616248
1616462
1616676
1616884
1617092
1617306
1617522
1617732
1617948
1618164
1618376
1618586
1618802
1619020
1619236
1619458
1619680
1619892
1620110
1620328
1620554
1620770
1620986
1621196
1621398
1621602
1621810
1622026
1622236
1622446
1622658
1622872
1623082
1623296
1623510
1623724
1623934
1624150
1624366
1624578
1624784
1624992
1625198
1625404
1625614
1625826
1626040
1626256
1626474
1626694
1626904
1627118
1627334
1627548
1627760
1627976
1628188
1628396
1628606
1628822
1629040
1629256
1629478
1629696
1629908
1630118
1630330
1630536
1630736
1630936
1631160
1631386
1631612
1631844
1632070
1632288
1632498
1632706
1632912
1633118
1633318
1633526
1633740
1633952
1634168
1634378
1634588
1634802
1635016
1635232
1635444
1635660
1635880
1636092
1636304
1636518
1636726
1636938
1637150
1637354
1637560
1637768
1637974
1638184
1638396
1638604
1638812
1639022
1639228
1639432
1639638
1639842
1640042
1640248
1640454
1640658
1640868
1641074
1641280
1641486
1641698
1641912
1642120
1642330
1642538
1642742
1642944
1643146
1643350
1643556
1643770
1643992
1644206
1644426
1644646
1644862
1645074
1645286
1645494
1645698
1645902
1646104
1646302
1646504
1646712
1646914
1647122
1647336
1647540
1647740
1647938
1648138
1648332
1648526
1648720
1648910
1649100
1649290
1649476
1649654
1649830
1650006
1650180
1650362
1650558
1650776
1651000
1651224
1651450
1651670
1651880
1652088
1652288
1652482
1652672
1652860
1653044
1653226
1653410
1653592
1653778
1653962
1654154
1654354
1654562
1654772
1654974
1655176
1655372
1655564
1655752
1655940
1656126
1656312
1656494
1656682
1656870
1657060
1657248
1657434
1657620
1657806
1657988
1658176
1658362
1658550
1658736
1658920
1659102
1659282
1659458
1659630
1659802
1659974
1660144
1660314
1660484
1660656
1660830
1661002
1661174
1661344
1661510
1661680
1661846
1662016
1662188
1662360
1662536
1662710
1662882
1663050
1663216
1663378
1663536
1663694
1663846
1664000
1664156
1664312
1664474
1664648
1664842
1665048
1665258
1665462
1665666
1665866
1666054
1666238
1666416
1666590
1666766
1666950
1667148
1667350
1667556
1667762
1667970
1668170
1668362
1668546
1668722
1668896
1669066
1669242
1669430
1669626
1669824
1670016
1670206
1670392
1670576
1670768
1670966
1671166
1671364
1671562
1671756
1671946
1672134
1672318
1672496
1672668
1672838
1673000
1673158
1673314
1673470
1673626
1673788
1673980
1674196
1674508
1674778
1675024
1675258
1675482
1675694
1675900
1676096
1676288
1676470
1676654
1676832
1677006
1677182
1677354
1677528
1677698
1677870
1678050
1678238
1678426
1678610
1678802
1678996
1679190
1679380
1679564
1679744
1679922
1680098
1680270
1680436
1680606
1680772
1680932
1681092
1681248
1681402
1681556
1681710
1681860
1682012
1682166
1682320
1682476
1682634
1682794
1682960
1683128
1683292
1683456
1683620
1683784
1683942
1684100
1684258
1684416
1684574
1684728
1684884
1685040
1685194
1685346
1685498
1685650
1685802
1685954
1686108
1686262
1686416
1686568
1686722
1686874
1687024
1687176
1687326
1687476
1687628
1687778
1687930
1688080
1688232
1688384
1688536
1688688
1688842
1688994
1689142
1689294
1689442
1689592
1689740
1689906
1690088
1690292
1690490
1690688
1690914
1691126
1691334
1691534
1691726
1691910
1692088
1692262
1692434
1692608
1692776
1692950
1693128
1693306
1693482
1693664
1693848
1694026
1694204
1694382
1694562
1694736
1694908
1695082
1695254
1695424
1695592
1695760
1695932
1696106
1696282
1696460
1696644
1696828
1697010
1697204
1697400
1697592
1697786
1697982
1698172
1698360
1698550
1698734
1698920
1699104
1699286
1699470
1699654
1699836
1700026
1700214
1700402
1700594
1700782
1700968
1701152
1701332
1701508
1701686
1701864
1702038
1702216
1702394
1702572
1702750
1702932
1703118
1703298
1703484
1703668
1703850
1704032
1704214
1704398
1704574
1704748
1704924
1705102
1705280
1705466
1705656
1705852
1706042
1706236
1706432
1706620
1706808
1706996
1707182
1707360
1707540
1707716
1707890
1708064
1708242
1708420
1708598
1708782
1708964
1709148
1709336
1709528
1709722
1709914
1710106
1710298
1710488
1710676
1710866
1711054
1711240
1711424
1711608
1711790
1711978
1712166
1712356
1712548
1712740
1712934
1713124
1713316
1713508
1713694
1713878
1714060
1714242
1714422
1714606
1714790
1714976
1715156
1715342
1715524
1715710
1715890
1716074
1716254
1716434
1716606
1716778
1716946
1717116
1717286
1717474
1717692
1717910
1718128
1718358
1718586
1718802
1719012
1719220
1719422
1719616
1719808
1720000
1720188
1720374
1720560
1720750
1720940
1721130
1721322
1721516
1721710
1721900
1722094
1722288
1722480
1722666
1722854
1723044
1723230
1723416
1723602
1723788
1723974
1724158
1724346
1724532
1724714
1724896
1725080
1725264
1725444
1725628
1725812
1725996
1726176
1726360
1726544
1726726
1726908
1727092
1727272
1727454
1727634
1727818
1728000
1728184
1728362
1728538
1728712
1728884
1729056
1729230
1729412
1729592
1729768
1729942
1730114
1730290
1730466
1730642
1730814
1730986
1731158
1731326
1731496
1731664
1731830
1731994
1732154
1732314
1732470
1732624
1732780
1732944
1733132
1733340
1733570
1733812
1734048
1734268
1734488
1734706
1734910
1735104
1735292
1735482
1735684
1735916
1736144
1736378
1736620
1736868
1737126
1737380
1737622
1737856
1738082
1738302
1738514
1738722
1738930
1739130
1739328
1739530
1739728
1739920
1740110
1740298
1740482
1740660
1740838
1741014
1741192
1741372
1741556
1741752
1741954
1742164
1742388
1742622
1742856
1743072
1743284
1743490
1743686
1743878
1744066
1744252
1744432
1744614
1744792
1744972
1745150
1745326
1745504
1745680
1745856
1746028
1746200
1746372
1746542
1746710
1746878
1747048
1747224
1747398
1747580
1747778
1748010
1748254
1748498
1748728
1748944
1749150
1749342
1749532
1749726
1749926
1750126
1750314
1750500
1750684
1750868
1751058
1751236
1751422
1751608
1751796
1751980
1752168
1752346
1752534
1752736
1752984
1753208
1753430
1753638
1753848
1754052
1754244
1754436
1754622
1754806
1754986
1755168
1755346
1755524
1755702
1755876
1756048
1756220
1756396
1756578
1756760
1756944
1757128
1757312
1757492
1757670
1757846
1758022
1758200
1758378
1758560
1758744
1758924
1759102
1759284
1759466
1759646
1759824
1759998
1760170
1760340
1760508
1760676
1760844
1761008
1761178
1761348
1761518
1761702
1761894
1762084
1762274
1762460
1762646
1762830
1763010
1763182
1763356
1763526
1763700
1763892
1764104
1764318
1764534
1764746
1764946
1765142
1765332
1765518
1765700
1765876
1766050
1766220
1766390
1766562
1766728
1766896
1767066
1767250
1767456
1767670
1767888
1768098
1768306
1768510
1768710
1768902
1769088
1769266
1769444
1769620
1769798
1769978
1770166
1770358
1770550
1770740
1770928
1771110
1771288
1771462
1771640
1771818
1771998
1772192
1772394
1772598
1772800
1772994
1773186
1773378
1773564
1773750
1773934
1774122
1774316
1774512
1774700
1774888
1775076
1775260
1775440
1775620
1775804
1775994
1776196
1776396
1776604
1776822
1777032
1777232
1777426
1777618
1777808
1777990
1778172
1778354
1778530
1778710
1778886
1779070
1779252
1779432
1779618
1779804
1779990
1780178
1780360
1780538
1780712
1780882
1781050
1781218
1781388
1781564
1781742
1781922
1782100
1782278
1782456
1782634
1782806
1782980
1783156
1783332
1783512
1783692
1783868
1784042
1784212
1784382
1784546
1784710
1784870
1785024
1785178
1785328
1785478
1785626
1785782
1785954
1786154
1786356
1786550
1786746
1786946
1787152
1787384
1787620
1787842
1788050
1788246
1788438
1788624
1788808
1788990
1789168
1789340
1789506
1789672
1789832
1789992
1790150
1790312
1790474
1790636
1790798
1790956
1791116
1791278
1791448
1791620
1791792
1791962
1792130
1792294
1792460
1792620
1792780
1792938
1793096
1793256
1793418
1793586
1793762
1793940
1794122
1794310
1794508
1794718
1794922
1795130
1795336
1795536
1795734
1795926
1796114
1796300
1796482
1796658
1796830
1796998
1797176
1797368
1797562
1797754
1797950
1798148
1798346
1798544
1798736
1798922
1799094
1799268
1799436
1799600
1799772
1799953
