peaks
114
317
524
730
938
1136
1334
1520
1696
1870
2042
2210
2380
2560
2752
2946
3150
3362
3574
3788
4002
4212
4422
4622
4820
5016
5206
5392
5572
5748
5926
6118
6316
6516
6722
6938
7162
7384
7600
7820
8034
8242
8448
8662
8878
9094
9310
9532
9750
9970
10192
10416
10632
10848
11054
11262
11468
11672
11884
12092
12308
12524
12736
12956
13174
13394
13622
13842
14064
14280
14506
14730
14960
15194
15426
15662
15894
16126
16358
16594
16830
17060
17298
17526
17746
17962
18170
18380
18608
18842
19092
19332
19568
19794
20008
20216
20424
20634
20842
20996
21266
21466
21662
21854
22032
22212
22392
22592
22808
23022
23240
23452
23668
23878
24088
24290
24494
24688
24890
25106
25332
25578
25808
26054
26300
26536
26772
27010
27242
27484
27714
27936
28170
28404
28636
28858
29086
29318
29534
29748
29976
30196
30414
30632
30850
31076
31306
31540
31774
32002
32234
32474
32720
32956
33200
33436
33664
33894
34124
34354
34584
34814
35048
35278
35508
35742
35976
36208
36434
36672
36902
37128
37348
37562
37776
37992
38208
38424
38642
38858
39064
39274
39484
39694
39906
40116
40328
40532
40732
40924
41114
41300
41486
41680
41878
42080
42298
42522
42750
42984
43222
43446
43654
43852
44038
44222
44406
44596
44786
44972
45166
45366
45568
45764
45960
46160
46356
46556
46754
46954
47146
47338
47530
47726
47940
48158
48370
48578
48778
48972
49162
49354
49546
49738
49928
50112
50294
50482
50672
50874
51092
51314
51544
51760
51970
52176
52378
52590
52800
53000
53200
53398
53604
53808
54012
54224
54442
54670
54898
55128
55354
55576
55796
56022
56250
56484
56710
56928
57144
57348
57546
57738
57924
58116
58308
58494
58682
58874
59062
59250
59438
59628
59816
60004
60196
60390
60588
60788
60982
61172
61360
61542
61716
61888
62056
62220
62380
62540
62704
62872
63046
63228
63414
63604
63790
63976
64160
64346
64534
64718
64904
65088
65272
65456
65636
65814
65992
66172
66350
66530
66708
66888
67070
67252
67430
67612
67796
67984
68172
68360
68548
68738
68930
69126
69320
69518
69716
69912
70110
70310
70512
70712
70912
71112
71316
71522
71724
71926
72126
72318
72508
72696
72886
73072
73254
73432
73608
73780
73948
74118
74284
74456
74640
74850
75066
75292
75518
75738
75956
76182
76398
76616
76832
77048
77280
77510
77734
77966
78204
78440
78676
78904
79126
79340
79554
79766
79976
80186
80396
80612
80834
81054
81272
81490
81706
81916
82126
82334
82544
82754
82966
83184
83398
83614
83836
84052
84264
84474
84688
84898
85108
85318
85528
85740
85956
86176
86390
86608
86834
87062
87292
87524
87756
87990
88218
88450
88676
88900
89124
89350
89580
89808
90026
90242
90456
90666
90872
91076
91280
91484
91686
91888
92096
92310
92528
92750
92970
93184
93396
93604
93808
94004
94192
94380
94568
94762
94960
95166
95380
95612
95846
96086
96322
96572
96824
97070
97310
97556
97800
98032
98264
98490
98712
98928
99142
99352
99564
99778
99990
100206
100418
100628
100834
101040
101250
101460
101666
101876
102084
102296
102510
102720
102934
103156
103372
103594
103814
104030
104248
104466
104684
104898
105106
105326
105542
105756
105970
106180
106386
106598
106804
107012
107226
107440
107652
107862
108068
108272
108474
108680
108886
109096
109308
109520
109732
109934
110130
110320
110512
110710
110916
111120
111328
111540
111752
111966
112178
112398
112618
112834
113054
113276
113494
113710
113928
114144
114360
114570
114784
114998
115212
115422
115640
115860
116076
116298
116514
116728
116944
117156
117370
117586
117792
118002
118212
118420
118624
118828
119026
119220
119418
119610
119806
120002
120196
120392
120588
120794
121002
121210
121416
121620
121824
122026
122222
122416
122620
122832
123042
123252
123456
123656
123868
124088
124314
124542
124770
124998
125148
125440
125654
125868
126072
126218
126488
126690
126896
127100
127304
127506
127700
127900
128102
128298
128494
128692
128888
129082
129274
129464
129652
129834
130010
130186
130362
130540
130714
130888
131066
131250
131434
131620
131800
131976
132150
132322
132492
132662
132830
133000
133176
133354
133532
133716
133900
134084
134268
134456
134638
134816
134994
135170
135350
135526
135702
135872
136044
136214
136380
136546
136710
136874
137036
137194
137352
137510
137662
137816
137964
138114
138266
138412
138562
138710
138860
139012
139162
139314
139468
139624
139778
139934
140094
140252
140410
140568
140724
140882
141040
141192
141346
141498
141652
141808
141960
142114
142268
142418
142572
142720
142872
143020
143170
143322
143470
143624
143782
143940
144100
144260
144420
144582
144740
144898
145056
145212
145366
145520
145670
145824
145972
146124
146272
146420
146568
146714
146864
147008
147156
147300
147448
147594
147742
147892
148042
148194
148344
148500
148654
148806
148962
149114
149268
149422
149574
149724
149876
150024
150170
150316
150458
150602
150742
150884
151024
151168
151308
151452
151594
151738
151882
152028
152172
152318
152464
152614
152766
152918
153072
153224
153380
153534
153686
153842
153992
154144
154298
154454
154618
154782
154950
155116
155284
155450
155616
155780
155946
156110
156274
156438
156604
156766
156930
157094
157256
157418
157582
157748
157914
158082
158254
158398
158606
158776
158946
159116
159286
159452
159622
159796
159976
160160
160350
160542
160738
160934
161130
161322
161512
161696
161876
162052
162226
162402
162572
162748
162926
163104
163284
163466
163648
163828
164010
164190
164374
164558
164746
164934
165120
165304
165488
165672
165854
166036
166214
166390
166570
166746
166918
167090
167258
167430
167606
167778
167952
168130
168324
168520
168720
168882
169122
169314
169508
169700
169886
170074
170260
170450
170640
170830
171020
171214
171406
171606
171802
172000
172198
172400
172602
172794
172986
173172
173358
173544
173730
173920
174116
174312
174506
174698
174894
175094
175292
175500
175704
175908
176110
176310
176506
176700
176894
177084
177276
177472
177668
177858
178050
178238
178420
178598
178774
178946
179118
179296
179476
179660
179844
180030
180216
180402
180588
180772
180950
181138
181320
181498
181674
181854
182028
182208
182386
182560
182740
182922
183114
183306
183504
183702
183902
184098
184290
184482
184674
184862
185054
185242
185430
185620
185806
185994
186180
186366
186552
186740
186922
187110
187290
187468
187646
187820
187994
188166
188336
188508
188678
188848
189016
189182
189356
189528
189698
189868
190038
190208
190376
190546
190716
190886
191058
191226
191394
191566
191736
191906
192072
192242
192412
192582
192750
192920
193092
193264
193434
193602
193768
193940
194112
194282
194452
194622
194792
194962
195130
195300
195472
195644
195818
195994
196172
196352
196534
196718
196900
197082
197268
197458
197650
197840
198032
198224
198420
198610
198798
198982
199162
199336
199506
199674
199842
200012
200184
200360
200538
200722
200906
201090
201268
201440
201606
201778
201948
202124
202300
202480
202660
202842
203030
203216
203398
203584
203766
203950
204132
204318
204508
204696
204886
205078
205272
205468
205666
205866
206060
206254
206442
206632
206818
207002
207182
207366
207548
207730
207914
208096
208282
208468
208654
208840
209028
209210
209392
209576
209756
209934
210114
210290
210464
210636
210812
210996
211188
211382
211576
211776
211976
212174
212370
212572
212774
212978
213182
213384
213590
213798
214004
214204
214400
214594
214786
214974
215166
215354
215548
215742
215932
216124
216314
216508
216698
216892
217084
217276
217470
217664
217856
218052
218244
218436
218626
218814
219004
219194
219388
219584
219780
219978
220176
220374
220570
220766
220958
221148
221338
221532
221722
221908
222092
222280
222464
222654
222842
223034
223230
223432
223634
223838
224038
224240
224438
224634
224830
225028
225228
225430
225630
225836
226038
226244
226450
226654
226858
227058
227258
227460
227664
227876
228088
228292
228492
228694
228896
229098
229300
229498
229692
229882
230064
230242
230416
230592
230772
230954
231148
231346
231546
231744
231946
232138
232330
232516
232700
232882
233058
233234
233412
233590
233772
233948
234128
234312
234496
234682
234866
235050
235238
235430
235622
235816
236006
236196
236380
236564
236742
236924
237110
237296
237484
237678
237874
238070
238266
238458
238650
238840
239024
239204
239384
239566
239744
239920
240092
240264
240452
240648
240850
241054
241262
241472
241686
241888
242088
242278
242462
242646
242834
243024
243222
243424
243626
243826
244030
244226
244422
244614
244806
244992
245182
245370
245556
245748
245934
246128
246324
246522
246718
246910
247098
247288
247476
247658
247838
248016
248194
248374
248550
248730
248914
249104
249296
249490
249686
249882
250072
250258
250442
250624
250806
250988
251170
251356
251540
251732
251922
252064
252306
252492
252672
252850
253024
253200
253374
253552
253724
253896
254074
254254
254438
254628
254814
255004
255194
255382
255570
255754
255936
256114
256292
256464
256634
256800
256964
257126
257294
257462
257630
257798
257968
258134
258298
258466
258634
258802
258970
259140
259314
259484
259654
259824
259992
260166
260340
260506
260676
260842
261012
261184
261358
261530
261702
261876
262048
262218
262388
262558
262728
262896
263062
263228
263396
263560
263722
263886
264050
264212
264376
264542
264706
264868
265026
265186
265344
265504
265658
265812
265968
266124
266280
266440
266598
266758
266918
267076
267236
267396
267556
267712
267874
268028
268186
268344
268496
268650
268800
268950
269100
269250
269400
269546
269696
269842
269988
270134
270280
270426
270570
270714
270858
271002
271144
271286
271426
271566
271706
271842
271980
272118
272256
272392
272530
272666
272802
272940
273078
273220
273356
273500
273638
273780
273924
274068
274210
274356
274498
274642
274786
274932
275076
275220
275364
275510
275652
275798
275940
276084
276224
276368
276508
276650
276786
276926
277064
277202
277340
277476
277616
277750
277890
278026
278168
278306
278448
278586
278726
278866
279006
279146
279284
279422
279558
279694
279828
279962
280100
280230
280362
280496
280626
280760
280890
281022
281154
281282
281414
281542
281672
281804
281932
282062
282192
282320
282448
282578
282706
282836
282966
283092
283222
283352
283480
283610
283740
283868
283998
284126
284256
284388
284516
284648
284778
284908
285042
285172
285304
285438
285568
285700
285832
285964
286096
286224
286354
286484
286612
286740
286870
286998
287128
287258
287386
287518
287650
287780
287914
288046
288178
288312
288442
288576
288712
288846
288982
289114
289248
289382
289516
289650
289782
289914
290046
290178
290310
290440
290574
290706
290838
290972
291106
291242
291376
291510
291646
291782
291924
292062
292202
292342
292486
292626
292768
292912
293058
293198
293342
293484
293628
293770
293914
294056
294198
294340
294482
294622
294764
294906
295044
295184
295324
295466
295606
295748
295888
296030
296172
296316
296458
296602
296746
296890
297034
297178
297318
297458
297600
297742
297880
298022
298164
298308
298450
298596
298742
298890
299036
299184
299328
299478
299622
299770
299918
300066
300212
300354
300498
300642
300786
300928
301070
301214
301366
301516
301674
301834
301992
302154
302318
302476
302630
302788
302940
303096
303248
303402
303554
303708
303862
304012
304168
304322
304474
304628
304780
304932
305086
305236
305390
305540
305692
305846
306000
306162
306322
306484
306644
306802
306956
307108
307254
307402
307546
307692
307838
307988
308140
308292
308448
308600
308754
308912
309072
309228
309392
309550
309710
309870
310026
310184
310338
310490
310644
310798
310952
311110
311264
311424
311584
311742
311900
312058
312216
312382
312550
312720
312890
313062
313236
313410
313584
313758
313928
314104
314278
314446
314608
314768
314928
315084
315240
315398
315560
315718
315878
316042
316202
316364
316520
316676
316838
316998
317158
317320
317488
317652
317816
317982
318142
318302
318462
318622
318782
318944
319108
319270
319432
319594
319756
319916
320078
320238
320398
320562
320722
320884
321048
321214
321378
321544
321712
321874
322042
322206
322374
322538
322704
322870
323042
323210
323372
323538
323704
323866
324030
324198
324366
324536
324704
324868
325028
325182
325340
325500
325668
325838
326008
326184
326358
326530
326704
326876
327050
327222
327394
327564
327734
327904
328074
328248
328418
328590
328758
328926
329094
329264
329430
329606
329776
329948
330124
330296
330470
330646
330826
331000
331176
331352
331524
331692
331856
332022
332190
332356
332522
332692
332864
333038
333216
333394
333574
333752
333932
334114
334296
334478
334660
334840
335022
335202
335380
335556
335730
335898
336072
336244
336416
336588
336764
336940
337114
337288
337464
337638
337810
337986
338162
338340
338514
338686
338858
339028
339196
339366
339534
339702
339874
340046
340218
340388
340560
340734
340912
341088
341262
341436
341606
341778
341956
342128
342298
342472
342644
342818
342990
343158
343332
343508
343682
343858
344034
344208
344388
344562
344738
344910
345082
345252
345418
345582
345748
345910
346076
346246
346410
346574
346744
346916
347088
347256
347426
347594
347766
347936
348104
348272
348444
348616
348782
348948
349114
349280
349442
349606
349768
349926
350086
350248
350412
350572
350736
350898
351060
351222
351384
351544
351704
351864
352024
352184
352342
352498
352652
352810
352966
353124
353288
353450
353616
353786
353954
354116
354284
354446
354610
354772
354934
355094
355252
355416
355580
355744
355910
356078
356248
356416
356586
356754
356920
357086
357248
357414
357580
357742
357904
358068
358230
358394
358562
358730
358896
359064
359234
359398
359560
359722
359888
360050
360214
360376
360538
360696
360856
361014
361172
361332
361490
361642
361798
361950
362102
362250
362402
362554
362704
362858
363010
363160
363312
363466
363618
363772
363924
364078
364232
364386
364540
364690
364844
364998
365152
365308
365464
365622
365782
365946
366112
366278
366446
366608
366774
366944
367112
367274
367442
367606
367768
367928
368088
368246
368406
368570
368734
368898
369066
369234
369402
369568
369734
369900
370064
370228
370392
370554
370714
370878
371044
371210
371378
371548
371724
371896
372072
372248
372420
372594
372762
372934
373102
373272
373448
373628
373810
373988
374168
374348
374526
374702
374878
375052
375228
375400
375572
375748
375920
376096
376266
376436
376606
376780
376952
377126
377298
377474
377654
377830
378006
378176
378344
378512
378684
378856
379026
379202
379378
379556
379734
379910
380084
380258
380432
380608
380778
380950
381118
381284
381450
381618
381784
381952
382126
382300
382474
382646
382820
382992
383164
383330
383500
383668
383838
384006
384172
384336
384502
384666
384828
384990
385154
385316
385478
385644
385808
385974
386144
386312
386484
386644
386824
386992
387162
387332
387504
387674
387848
388022
388196
388374
388550
388728
388910
389090
389268
389444
389618
389786
389956
390122
390288
390456
390622
390788
390952
391116
391282
391448
391618
391788
391960
392134
392308
392484
392656
392828
393000
393176
393348
393518
393686
393854
394018
394186
394358
394532
394706
394876
395050
395226
395404
395580
395752
395924
396094
396262
396430
396596
396758
396924
397092
397260
397432
397610
397790
397964
398138
398310
398480
398650
398818
398986
399158
399334
399510
399688
399864
400042
400220
400398
400574
400752
400926
401102
401272
401446
401616
401788
401970
402154
402340
402520
402706
402888
403060
403232
403404
403574
403748
403922
404100
404276
404452
404632
404808
404984
405162
405342
405526
405716
405904
406094
406284
406476
406668
406856
407048
407238
407424
407604
407786
407972
408158
408342
408526
408706
408892
409080
409262
409446
409634
409820
410006
410196
410384
410574
410766
410956
411150
411342
411536
411724
411912
412096
412282
412458
412638
412818
413006
413192
413374
413554
413738
413920
414102
414276
414448
414620
414792
414960
415126
415292
415452
415616
415780
415950
416132
416322
416514
416704
416890
417072
417256
417434
417612
417790
417970
418156
418350
418542
418736
418930
419116
419304
419486
419666
419842
420028
420216
420406
420596
420788
420980
421176
421368
421564
421762
421954
422150
422346
422542
422746
422950
423152
423356
423554
423752
423948
424138
424318
424498
424686
424878
425074
425274
425472
425668
425860
426048
426232
426414
426594
426780
426968
427160
427350
427536
427720
427900
428072
428240
428404
428562
428720
428878
429040
429206
429388
429574
429768
429964
430164
430366
430560
430748
430934
431114
431288
431468
431646
431828
432016
432204
432386
432562
432734
432906
433076
433244
433404
433568
433730
433888
434046
434200
434354
434516
434682
434850
435022
435200
435384
435578
435768
435962
436154
436348
436536
436726
436912
437098
437280
437462
437634
437808
437988
438168
438340
438514
438688
438856
439020
439184
439344
439500
439662
439818
439972
440134
440300
440466
440632
440804
440978
441156
441336
441524
441714
441904
442092
442286
442478
442670
442862
443054
443250
443448
443646
443848
444054
444264
444478
444692
444906
445114
445320
445524
445728
445928
446132
446332
446534
446732
446930
447126
447326
447524
447722
447912
448104
448292
448482
448672
448858
449046
449234
449422
449606
449790
449976
450162
450350
450544
450734
450926
451116
451306
451492
451678
451864
452048
452232
452414
452596
452780
452962
453142
453322
453504
453686
453868
454052
454234
454424
454614
454808
455002
455194
455382
455568
455752
455936
456114
456294
456474
456656
456842
457034
457228
457420
457618
457816
458012
458206
458400
458590
458780
458966
459152
459340
459534
459726
459924
460118
460314
460512
460708
460902
461094
461286
461474
461658
461842
462024
462202
462384
462566
462750
462934
463120
463302
463482
463658
463836
464012
464188
464366
464546
464724
464898
465072
465244
465420
465592
465766
465938
466116
466296
466480
466660
466840
467022
467202
467380
467560
467744
467928
468112
468296
468480
468662
468842
469020
469196
469372
469550
469728
469904
470080
470252
470426
470604
470786
470966
471146
471326
471510
471694
471876
472054
472230
472406
472576
472740
472904
473064
473228
473394
473562
473732
473914
474098
474288
474480
474676
474868
475056
475236
475414
475598
475786
475972
476162
476348
476532
476712
476894
477076
477256
477438
477618
477800
477986
478176
478372
478566
478764
478958
479156
479358
479562
479766
479974
480178
480378
480576
480772
480966
481158
481348
481536
481728
481922
482118
482312
482506
482700
482894
483090
483282
483478
483670
483860
484052
484240
484428
484612
484804
484994
485188
485384
485580
485778
485980
486184
486390
486594
486796
486998
487196
487392
487582
487774
487970
488166
488366
488566
488770
488970
489174
489376
489578
489784
489994
490202
490412
490618
490818
491020
491222
491420
491620
491818
492016
492212
492408
492604
492802
493000
493190
493376
493562
493752
493940
494130
494318
494504
494696
494888
495086
495284
495482
495678
495874
496064
496254
496442
496636
496838
497042
497264
497486
497714
497940
498164
498390
498612
498832
499056
499272
499486
499698
499914
500126
500334
500540
500744
500942
501136
501324
501518
501712
501906
502098
502286
502476
502664
502858
503052
503246
503436
503624
503812
504004
504194
504390
504586
504782
504982
505182
505382
505582
505780
505974
506156
506334
506516
506694
506876
507064
507262
507464
507668
507874
508080
508288
508502
508708
508912
509114
509314
509518
509722
509924
510128
510336
510544
510756
510970
511180
511394
511600
511804
512008
512206
512402
512598
512794
512996
513196
513398
513600
513782
514008
514212
514416
514620
514820
515024
515228
515432
515640
515846
516044
516238
516432
516626
516822
517018
517220
517420
517624
517830
518040
518252
518466
518682
518900
519114
519328
519546
519762
519978
520200
520418
520636
520846
521054
521262
521470
521676
521872
522064
522252
522436
522620
522798
522982
523164
523352
523542
523732
523926
524120
524316
524518
524722
524928
525132
525336
525538
525740
525938
526138
526342
526548
526754
526956
527156
527360
527562
527768
527972
528174
528378
528588
528792
528996
529200
529398
529590
529778
529960
530142
530326
530508
530696
530890
531088
531292
531498
531706
531912
532116
532324
532528
532728
532922
533116
533308
533502
533700
533898
534096
534296
534496
534696
534896
535102
535304
535508
535714
535918
536118
536316
536516
536718
536920
537122
537324
537522
537718
537912
538100
538290
538480
538674
538870
539064
539264
539462
539660
539860
540062
540262
540464
540660
540856
541050
541248
541450
541654
541860
542064
542272
542478
542688
542894
543098
543248
543504
543702
543900
544098
544300
544508
544712
544920
545130
545350
545566
545780
545988
546200
546404
546608
546812
547016
547224
547428
547638
547852
548060
548272
548486
548700
548912
549118
549322
549528
549734
549936
550140
550340
550538
550734
550932
551132
551330
551530
551724
551916
552112
552310
552510
552714
552916
553126
553334
553544
553746
553948
554146
554340
554534
554726
554918
555112
555306
555502
555704
555900
556096
556294
556488
556686
556884
557082
557280
557480
557678
557880
558080
558280
558474
558666
558848
559030
559212
559388
559568
559750
559940
560130
560328
560524
560730
560934
561138
561342
561540
561738
561932
562126
562316
562506
562692
562876
563060
563242
563426
563608
563794
563982
564170
564354
564542
564732
564928
565132
565338
565550
565760
565968
566176
566384
566598
566812
567028
567242
567452
567666
567878
568086
568290
568500
568712
568922
569136
569350
569568
569788
570004
570226
570444
570660
570870
571088
571298
571502
571706
571908
572114
572322
572528
572730
572926
573120
573312
573506
573702
573902
574104
574308
574510
574712
574914
575116
575322
575530
575740
575954
576170
576314
576592
576792
576994
577190
577388
577584
577784
577990
578196
578396
578602
578804
579006
579206
579410
579614
579816
580018
580214
580404
580588
580770
580946
581120
581298
581476
581656
581840
582022
582206
582398
582590
582784
582980
583178
583376
583576
583776
583976
584176
584376
584578
584774
584966
585160
585354
585546
585744
585938
586134
586332
586534
586740
586942
587144
587350
587558
587768
587980
588190
588400
588610
588822
589036
589246
589458
589666
589874
590086
590306
590528
590674
590968
591178
591378
591574
591768
591960
592154
592356
592560
592764
592972
593142
593388
593592
593796
594000
594206
594410
594624
594836
595048
595264
595482
595702
595924
596140
596350
596562
596766
596966
597160
597354
597550
597746
597944
598144
598344
598552
598768
598980
599184
599390
599596
599800
600010
600224
600434
600644
600854
601062
601270
601478
601682
601882
602080
602272
602460
602646
602836
603022
603210
603402
603596
603796
603998
604202
604412
604620
604824
605026
605226
605434
605642
605854
606062
606268
606480
606686
606886
607092
607296
607500
607706
607910
608118
608324
608526
608724
608920
609118
609316
609514
609714
609912
610116
610318
610522
610724
610926
611124
611324
611524
611724
611930
612138
612340
612538
612736
612932
613132
613332
613532
613734
613940
614152
614360
614560
614758
614952
615146
615338
615534
615736
615942
616150
616350
616554
616754
616952
617124
617354
617544
617740
617930
618118
618310
618504
618702
618906
619116
619330
619544
619766
619988
620208
620430
620660
620884
621102
621322
621534
621748
621960
622170
622376
622578
622780
622974
623170
623366
623564
623770
623976
624192
624424
624648
624872
625104
625336
625566
625808
626048
626288
626520
626740
626966
627186
627404
627622
627840
628058
628272
628488
628708
628930
629150
629366
629582
629794
630008
630224
630438
630668
630894
631120
631340
631550
631758
631964
632164
632362
632554
632750
632946
633144
633348
633552
633766
633986
634200
634418
634640
634858
635066
635268
635466
635658
635850
636050
636246
636442
636640
636842
637044
637248
637452
637658
637864
638068
638270
638470
638668
638870
639082
639296
639508
639724
639936
640140
640346
640554
640764
640976
641186
641400
641622
641840
642054
642278
642498
642714
642936
643156
643376
643592
643806
644016
644218
644412
644608
644800
644996
645194
645392
645594
645800
646010
646222
646434
646648
646860
647066
647272
647480
647682
647890
648096
648306
648516
648732
648958
649178
649400
649626
649848
650062
650272
650480
650618
650884
651074
651262
651456
651652
651852
652056
652260
652462
652664
652860
653054
653246
653432
653620
653802
653986
654168
654352
654544
654732
654926
655118
655314
655510
655706
655898
656092
656284
656478
656674
656872
657070
657266
657464
657662
657862
658062
658264
658464
658666
658864
659064
659268
659470
659658
659812
660074
660264
660452
660640
660836
661038
661254
661484
661720
661958
662192
662430
662658
662882
663102
663316
663528
663736
663942
664148
664348
664554
664758
664962
665166
665366
665564
665758
665952
666146
666342
666544
666740
666942
667140
667338
667532
667728
667918
668114
668308
668502
668700
668900
669104
669304
669508
669710
669912
670112
670312
670506
670696
670884
671072
671262
671454
671644
671832
672020
672208
672396
672586
672776
672966
673154
673348
673542
673738
673930
674124
674318
674512
674706
674900
675100
675298
675494
675692
675890
676086
676280
676474
676666
676864
677060
677256
677452
677648
677844
678036
678236
678436
678638
678834
679030
679228
679422
679612
679800
679992
680182
680376
680568
680756
680940
681120
681298
681478
681662
681846
682034
682226
682418
682618
682816
683026
683236
683446
683654
683860
684070
684278
684482
684684
684886
685086
685288
685492
685690
685892
686094
686296
686500
686700
686906
687116
687322
687528
687726
687928
688128
688332
688530
688728
688924
689118
689306
689494
689678
689866
690056
690248
690438
690634
690826
691018
691208
691398
691540
691776
691954
692132
692306
692476
692648
692824
693006
693194
693382
693570
693762
693956
694150
694346
694538
694734
694932
695126
695320
695514
695714
695910
696110
696310
696512
696714
696916
697118
697322
697522
697722
697922
698126
698328
698528
698730
698930
699132
699332
699528
699728
699930
700134
700336
700534
700730
700922
701116
701312
701510
701712
701916
702124
702326
702530
702732
702938
703140
703344
703544
703714
703936
704122
704310
704494
704678
704860
705044
705234
705430
705632
705836
706048
706256
706464
706676
706888
707092
707296
707496
707702
707906
708110
708306
708506
708702
708902
709098
709288
709482
709676
709872
710068
710264
710462
710658
710856
711052
711252
711450
711648
711844
712038
712232
712430
712628
712828
713030
713232
713436
713642
713842
714046
714244
714444
714644
714844
715044
715246
715450
715656
715856
716056
716258
716456
716650
716846
717038
717228
717416
717602
717784
717966
718148
718332
718516
718700
718884
719074
719264
719458
719654
719856
720058
720262
720472
720682
720894
721102
721306
721506
721706
721904
722106
722312
722518
722718
722912
723102
723292
723480
723670
723864
724060
724262
724466
724672
724878
725080
725282
725482
725682
725882
726086
726286
726488
726688
726886
727088
727294
727502
727716
727924
728136
728348
728558
728762
728970
729178
729382
729588
729790
729988
730184
730376
730564
730756
730950
731142
731334
731532
731732
731938
732146
732352
732560
732768
732972
733178
733380
733582
733782
733980
734180
734384
734584
734780
734980
735180
735380
735582
735780
735976
736176
736372
736568
736764
736962
737162
737360
737556
737752
737942
738130
738314
738498
738682
738858
739038
739218
739398
739580
739762
739942
740126
740310
740496
740684
740870
741058
741240
741426
741614
741804
742002
742204
742406
742616
742832
743056
743274
743492
743714
743950
744180
744410
744644
744872
745092
745238
745502
745690
745870
746046
746220
746394
746570
746754
746942
747138
747334
747538
747738
747940
748138
748332
748526
748718
748904
749096
749286
749476
749668
749862
750054
750242
750430
750616
750796
750974
751150
751322
751496
751666
751836
752004
752170
752338
752504
752668
752834
753002
753170
753334
753500
753664
753824
753984
754146
754304
754462
754624
754786
754946
755110
755274
755436
755600
755764
755928
756092
756260
756426
756590
756760
756930
757098
757270
757440
757610
757778
757946
758110
758280
758446
758614
758776
758942
759114
759282
759448
759618
759788
759958
760128
760296
760462
760626
760786
760946
761106
761262
761416
761566
761718
761868
762016
762164
762310
762456
762600
762746
762888
763030
763172
763312
763454
763592
763730
763872
764008
764148
764286
764422
764560
764694
764830
764962
765098
765230
765364
765496
765626
765758
765888
766018
766148
766276
766404
766534
766662
766792
766922
767048
767178
767308
767436
767564
767694
767820
767950
768076
768202
768328
768454
768578
768704
768830
768952
769078
769204
769326
769450
769578
769702
769826
769954
770078
770204
770330
770458
770582
770708
770834
770958
771082
771208
771334
771456
771582
771706
771830
771956
772082
772208
772336
772466
772592
772722
772852
772984
773114
773244
773376
773508
773638
773774
773910
774042
774178
774312
774446
774582
774718
774854
774990
775126
775260
775400
775538
775682
775826
775974
776124
776276
776428
776576
776728
776876
777024
777174
777322
777468
777618
777764
777910
778058
778208
778360
778510
778662
778810
778960
779108
779256
779406
779552
779698
779846
779990
780134
780278
780418
780564
780708
780854
780998
781148
781296
781446
781600
781746
781900
782048
782200
782352
782504
782656
782808
782968
783122
783280
783440
783598
783756
783916
784076
784236
784396
784556
784714
784876
785040
785200
785364
785530
785696
785862
786026
786190
786352
786516
786686
786852
787016
787180
787344
787506
787670
787838
788006
788178
788350
788524
788704
788880
789056
789230
789400
789574
789744
789914
790084
790246
790412
790580
790752
790928
791104
791282
791462
791644
791826
792014
792204
792390
792572
792748
792916
793084
793250
793422
793600
793774
793958
794142
794328
794516
794702
794888
795072
795252
795432
795608
795782
795958
796134
796310
796488
796670
796852
797040
797230
797422
797614
797802
797986
798164
798346
798528
798714
798902
799086
799262
799436
799608
799780
799950
800120
800288
800456
800630
800812
800988
801170
801352
801534
801724
801918
802116
802312
802510
802712
802916
803118
803312
803504
803714
803950
804174
804418
804672
804924
805178
805412
805636
805850
806060
806264
806460
806678
806902
807142
807394
807636
807874
808112
808340
808574
808816
809058
809302
809548
809792
810024
810244
810452
810658
810874
811088
811298
811498
811702
811914
812144
812364
812578
812792
813002
813214
813432
813638
813834
814024
814208
814384
814562
814740
814928
815136
815392
815652
815918
816174
816408
816658
816876
817100
817306
817510
817742
818010
818272
818540
818800
819050
819316
819580
819834
820078
820314
820574
820858
821138
821410
821660
821912
822160
822412
822662
822888
823100
823320
823538
823752
823962
824168
824374
824572
824762
824964
825184
825434
825656
825866
826070
826272
826470
826662
826860
827066
827282
827514
827752
827998
828238
828482
828734
828984
829238
829488
829728
829980
830248
830506
830768
831044
831322
831588
831842
832076
832304
832542
832796
833072
833352
833616
833884
834138
834390
834620
834848
835066
835276
835480
835682
835882
836088
836296
836510
836728
836952
837172
837390
837598
837814
838038
838272
838512
838752
838976
839192
839404
839606
839810
840014
840218
840426
840642
840874
841108
841340
841568
841784
841992
842208
842426
842656
842898
843150
843398
843648
843892
844138
844384
844620
844854
845086
845316
845550
845782
846018
846248
846486
846728
846970
847214
847462
847698
847946
848184
848414
848632
848846
849046
849246
849438
849624
849816
850018
850226
850442
850660
850886
851116
851348
851572
851786
852014
852244
852472
852712
852942
853182
853406
853626
853856
854088
854324
854562
854810
855052
855298
855548
855790
856030
856272
856508
856728
856940
857148
857358
857564
857760
857956
858146
858334
858520
858708
858896
859084
859284
859498
859740
859990
860242
860492
860722
860942
861164
861380
861586
861780
861974
862162
862348
862540
862750
862972
863206
863436
863670
863904
864138
864378
864616
864854
865096
865334
865576
865806
866038
866266
866488
866708
866924
867138
867352
867578
867800
868018
868248
868482
868728
868964
869186
869410
869632
869862
870100
870348
870598
870850
871096
871344
871586
871824
872062
872298
872538
872770
873002
873230
873456
873680
873898
874110
874316
874532
874752
874972
875196
875418
875640
875858
876082
876306
876526
876758
876990
877226
877466
877702
877926
878148
878366
878582
878790
879006
879222
879440
879666
879894
880126
880364
880594
880814
881034
881248
881450
881642
881824
882000
882172
882346
882520
882696
882878
883060
883244
883430
883614
883794
883964
884136
884302
884468
884640
884828
885016
885210
885404
885604
885818
886034
886268
886520
886772
887024
887276
887534
887790
888028
888256
888476
888686
888890
889110
889336
889560
889782
890000
890212
890412
890610
890804
890998
891200
891420
891652
891886
892124
892366
892614
892852
893094
893340
893576
893804
894030
894242
894456
894690
894930
895180
895436
895680
895928
896172
896412
896652
896892
897124
897348
897578
897812
898044
898272
898488
898708
898922
899136
899358
899570
899782
899998
900214
900434
900646
900868
901080
901296
901510
901722
901928
902140
902346
902550
902764
902978
903200
903422
903650
903874
904094
904314
904520
904730
904934
905142
905350
905560
905768
905976
906196
906412
906622
906844
907054
907262
907466
907672
907876
908080
908292
908502
908720
908932
909148
909366
909586
909806
910020
910238
910452
910658
910870
911078
911288
911498
911714
911936
912158
912380
912604
912832
913052
913276
913502
913726
913950
914178
914410
914660
914900
915142
915388
915628
915864
916094
916314
916530
916742
916956
917170
917386
917600
917824
918048
918272
918488
918698
918914
919128
919332
919538
919750
919968
920192
920402
920602
920800
920994
921188
921384
921582
921782
921982
922178
922368
922554
922732
922906
923074
923242
923410
923586
923766
923964
924180
924394
924628
924868
925108
925336
925566
925804
926038
926272
926492
926710
926920
927126
927322
927512
927696
927872
928042
928208
928372
928528
928684
928842
929004
929186
929386
929596
929812
930022
930230
930432
930624
930812
930996
931178
931358
931538
931712
931882
932048
932216
932388
932568
932748
932932
933124
933316
933514
933714
933912
934124
934344
934564
934796
935028
935258
935486
935728
935958
936188
936414
936636
936862
937084
937304
937518
937730
937940
938152
938368
938584
938802
939030
939266
939506
939748
939984
940222
940462
940704
940940
941172
941394
941612
941828
942040
942252
942466
942676
942888
943100
943310
943526
943750
943968
944186
944422
944652
944872
945086
945292
945496
945696
945892
946084
946272
946464
946660
946862
947064
947272
947482
947696
947906
948116
948324
948540
948754
948968
949178
949380
949578
949772
949962
950152
950342
950544
950762
950994
951220
951452
951678
951890
952104
952310
952524
952742
952960
953190
953412
953646
953868
954090
954322
954558
954800
955042
955288
955528
955776
956014
956254
956504
956756
957006
957248
957480
957700
957912
958132
958340
958542
958730
958920
959108
959306
959518
959742
959958
960166
960374
960582
960794
961004
961218
961432
961640
961856
962074
962290
962510
962730
962944
963154
963368
963580
963786
963992
964190
964386
964572
964754
964924
965092
965256
965418
965576
965734
965900
966078
966278
966488
966708
966932
967160
967388
967600
967804
968024
968260
968496
968744
968998
969260
969518
969766
970006
970254
970514
970770
971024
971270
971530
971786
972036
972288
972532
972776
973028
973280
973526
973770
974008
974246
974480
974708
974930
975152
975368
975590
975806
976014
976228
976448
976672
976896
977114
977330
977534
977742
977952
978166
978386
978612
978858
979100
979332
979554
979786
980018
980246
980472
980686
980902
981150
981392
981628
981856
982080
982298
982512
982732
982950
983160
983364
983576
983788
984004
984228
984442
984648
984852
985072
985300
985530
985750
985974
986210
986440
986672
986890
987094
987296
987488
987672
987852
988036
988188
988440
988642
988844
989044
989242
989444
989638
989826
990016
990208
990398
990586
990768
990958
991152
991344
991542
991748
991954
992162
992378
992588
992798
993004
993210
993412
993612
993810
994016
994228
994444
994672
994888
995102
995322
995548
995772
995998
996212
996420
996620
996812
997002
997190
997374
997568
997762
997964
998166
998364
998560
998752
998946
999134
999320
999506
999690
999876
1000060
1000240
1000416
1000594
1000770
1000940
1001112
1001282
1001448
1001610
1001776
1001940
1002106
1002274
1002444
1002618
1002802
1002998
1003210
1003428
1003652
1003874
1004098
1004324
1004542
1004754
1004968
1005170
1005370
1005582
1005808
1006034
1006258
1006480
1006700
1006908
1007112
1007316
1007522
1007734
1007944
1008158
1008382
1008602
1008826
1009052
1009274
1009502
1009726
1009948
1010164
1010378
1010602
1010836
1011068
1011296
1011524
1011752
1011970
1012186
1012402
1012622
1012846
1013072
1013298
1013534
1013762
1013994
1014238
1014470
1014706
1014936
1015158
1015368
1015582
1015796
1016016
1016236
1016454
1016668
1016882
1017100
1017334
1017580
1017816
1018048
1018276
1018502
1018726
1018946
1019162
1019374
1019590
1019802
1020014
1020222
1020428
1020630
1020832
1021032
1021234
1021438
1021646
1021854
1022056
1022260
1022466
1022670
1022874
1023078
1023286
1023494
1023708
1023920
1024136
1024346
1024560
1024770
1024984
1025192
1025400
1025610
1025816
1026020
1026230
1026444
1026656
1026866
1027070
1027280
1027486
1027692
1027900
1028108
1028316
1028524
1028730
1028934
1029128
1029326
1029524
1029722
1029926
1030136
1030346
1030558
1030768
1030978
1031194
1031410
1031626
1031838
1032046
1032256
1032468
1032680
1032892
1033106
1033314
1033528
1033738
1033950
1034158
1034360
1034560
1034760
1034964
1035170
1035382
1035598
1035818
1036036
1036262
1036494
1036720
1036950
1037170
1037390
1037612
1037830
1038046
1038268
1038488
1038706
1038922
1039152
1039380
1039606
1039842
1040072
1040302
1040524
1040738
1040942
1041138
1041332
1041524
1041714
1041908
1042098
1042294
1042478
1042660
1042836
1043008
1043178
1043348
1043512
1043680
1043850
1044020
1044188
1044360
1044530
1044700
1044868
1045040
1045210
1045386
1045564
1045744
1045926
1046112
1046294
1046480
1046672
1046874
1047086
1047294
1047504
1047712
1047916
1048120
1048320
1048520
1048714
1048908
1049100
1049290
1049474
1049662
1049842
1050022
1050202
1050386
1050572
1050758
1050948
1051140
1051332
1051526
1051726
1051926
1052126
1052322
1052524
1052726
1052934
1053146
1053358
1053564
1053768
1053964
1054158
1054348
1054536
1054722
1054908
1055088
1055260
1055432
1055600
1055770
1055938
1056114
1056290
1056474
1056664
1056866
1057066
1057274
1057480
1057686
1057890
1058094
1058294
1058494
1058690
1058892
1059090
1059290
1059486
1059690
1059890
1060088
1060288
1060486
1060682
1060876
1061066
1061254
1061436
1061614
1061794
1061972
1062150
1062328
1062508
1062692
1062874
1063058
1063254
1063446
1063640
1063832
1064020
1064202
1064376
1064550
1064720
1064890
1065058
1065230
1065402
1065578
1065754
1065932
1066108
1066282
1066452
1066618
1066780
1066942
1067100
1067258
1067424
1067590
1067764
1067956
1068154
1068362
1068564
1068772
1068982
1069192
1069394
1069596
1069802
1070012
1070220
1070420
1070622
1070826
1071026
1071214
1071406
1071606
1071810
1072016
1072230
1072438
1072650
1072860
1073072
1073282
1073492
1073692
1073898
1074102
1074314
1074532
1074748
1074964
1075184
1075410
1075628
1075846
1076066
1076280
1076492
1076704
1076922
1077136
1077340
1077544
1077750
1077952
1078154
1078354
1078554
1078750
1078944
1079140
1079338
1079540
1079738
1079942
1080144
1080344
1080542
1080736
1080928
1081114
1081304
1081490
1081674
1081858
1082048
1082238
1082426
1082624
1082822
1083018
1083216
1083414
1083610
1083810
1084006
1084206
1084402
1084598
1084794
1084988
1085180
1085372
1085570
1085766
1085958
1086154
1086352
1086550
1086756
1086964
1087170
1087380
1087582
1087780
1087976
1088166
1088354
1088536
1088718
1088900
1089082
1089262
1089442
1089618
1089796
1089976
1090160
1090344
1090534
1090726
1090916
1091106
1091294
1091480
1091666
1091848
1092026
1092208
1092390
1092572
1092754
1092940
1093128
1093320
1093516
1093710
1093906
1094098
1094290
1094484
1094678
1094872
1095066
1095256
1095442
1095632
1095820
1096016
1096212
1096412
1096610
1096806
1097000
1097196
1097394
1097590
1097780
1097974
1098168
1098360
1098554
1098748
1098936
1099132
1099328
1099526
1099724
1099924
1100128
1100336
1100546
1100756
1100968
1101176
1101380
1101586
1101784
1101970
1102152
1102340
1102528
1102716
1102906
1103096
1103296
1103498
1103698
1103898
1104090
1104280
1104474
1104678
1104892
1105112
1105334
1105564
1105776
1105976
1106174
1106362
1106548
1106738
1106930
1107128
1107324
1107516
1107710
1107904
1108094
1108282
1108470
1108650
1108836
1109016
1109194
1109380
1109570
1109760
1109958
1110154
1110354
1110556
1110756
1110956
1111152
1111348
1111536
1111718
1111902
1112084
1112266
1112444
1112620
1112800
1112982
1113168
1113354
1113540
1113726
1113906
1114088
1114272
1114450
1114628
1114808
1114984
1115162
1115334
1115508
1115680
1115854
1116028
1116206
1116388
1116574
1116758
1116942
1117126
1117310
1117488
1117670
1117854
1118038
1118222
1118408
1118594
1118778
1118964
1119148
1119326
1119506
1119686
1119860
1120034
1120206
1120382
1120560
1120738
1120916
1121092
1121260
1121426
1121586
1121746
1121904
1122064
1122220
1122382
1122544
1122702
1122864
1123030
1123194
1123360
1123530
1123700
1123870
1124042
1124216
1124386
1124558
1124726
1124896
1125070
1125242
1125416
1125588
1125760
1125938
1126116
1126304
1126490
1126686
1126882
1127078
1127270
1127458
1127642
1127828
1128014
1128200
1128384
1128570
1128748
1128930
1129102
1129278
1129454
1129630
1129806
1129976
1130146
1130316
1130488
1130662
1130836
1131008
1131188
1131368
1131550
1131730
1131920
1132102
1132284
1132462
1132640
1132812
1132986
1133164
1133346
1133526
1133706
1133886
1134064
1134242
1134416
1134594
1134770
1134946
1135112
1135286
1135462
1135638
1135820
1136004
1136188
1136364
1136546
1136722
1136904
1137088
1137276
1137464
1137660
1137860
1138058
1138256
1138460
1138670
1138872
1139078
1139284
1139492
1139694
1139900
1140098
1140300
1140500
1140704
1140912
1141122
1141330
1141530
1141728
1141930
1142130
1142330
1142528
1142714
1142926
1143146
1143358
1143560
1143760
1143960
1144164
1144368
1144570
1144778
1144992
1145212
1145434
1145644
1145858
1146072
1146290
1146502
1146706
1146914
1147126
1147342
1147550
1147754
1147954
1148146
1148346
1148546
1148744
1148950
1149162
1149382
1149602
1149828
1150042
1150260
1150476
1150694
1150906
1151114
1151314
1151512
1151714
1151918
1152120
1152324
1152532
1152736
1152948
1153152
1153352
1153558
1153758
1153956
1154158
1154376
1154590
1154810
1155032
1155252
1155470
1155676
1155892
1156104
1156320
1156538
1156756
1156984
1157210
1157430
1157648
1157862
1158072
1158278
1158492
1158714
1158942
1159168
1159388
1159596
1159802
1160022
1160236
1160450
1160664
1160878
1161092
1161296
1161502
1161702
1161900
1162104
1162302
1162514
1162716
1162920
1163122
1163322
1163516
1163710
1163902
1164092
1164278
1164474
1164666
1164860
1165060
1165258
1165452
1165640
1165834
1166026
1166222
1166424
1166620
1166822
1167020
1167216
1167414
1167602
1167788
1167982
1168172
1168366
1168558
1168754
1168952
1169152
1169352
1169558
1169762
1169958
1170148
1170338
1170522
1170702
1170878
1171058
1171250
1171450
1171648
1171844
1172042
1172240
1172442
1172646
1172848
1173050
1173254
1173450
1173644
1173832
1174024
1174208
1174402
1174598
1174794
1174990
1175188
1175390
1175586
1175782
1175976
1176168
1176358
1176546
1176730
1176912
1177088
1177268
1177446
1177624
1177806
1177986
1178166
1178340
1178510
1178684
1178854
1179024
1179200
1179374
1179550
1179726
1179908
1180092
1180280
1180466
1180650
1180840
1181028
1181208
1181392
1181568
1181748
1181928
1182110
1182290
1182470
1182650
1182826
1183002
1183180
1183356
1183532
1183708
1183886
1184062
1184246
1184434
1184620
1184802
1184978
1185148
1185316
1185476
1185636
1185794
1185956
1186122
1186292
1186458
1186624
1186792
1186958
1187120
1187284
1187454
1187622
1187794
1187960
1188130
1188294
1188458
1188620
1188782
1188942
1189106
1189268
1189430
1189590
1189754
1189916
1190080
1190250
1190420
1190594
1190770
1190948
1191126
1191308
1191490
1191672
1191848
1192030
1192204
1192374
1192542
1192708
1192878
1193046
1193214
1193382
1193554
1193722
1193888
1194054
1194220
1194390
1194562
1194738
1194912
1195088
1195254
1195414
1195572
1195730
1195894
1196066
1196244
1196426
1196604
1196778
1196956
1197132
1197314
1197498
1197684
1197872
1198058
1198248
1198434
1198614
1198814
1199002
1199186
1199372
1199560
1199748
1199938
1200124
1200302
1200486
1200672
1200852
1201030
1201202
1201382
1201560
1201738
1201914
1202094
1202278
1202460
1202640
1202824
1203002
1203174
1203342
1203508
1203674
1203834
1203996
1204156
1204318
1204488
1204658
1204830
1205000
1205164
1205326
1205490
1205650
1205810
1205972
1206128
1206286
1206446
1206606
1206768
1206932
1207096
1207262
1207426
1207590
1207756
1207920
1208086
1208252
1208422
1208584
1208748
1208908
1209064
1209220
1209376
1209534
1209692
1209850
1210010
1210168
1210324
1210480
1210636
1210788
1210944
1211104
1211264
1211428
1211594
1211760
1211930
1212108
1212292
1212482
1212668
1212848
1213022
1213192
1213364
1213542
1213732
1213930
1214128
1214336
1214542
1214754
1214954
1215156
1215358
1215568
1215774
1215984
1216194
1216404
1216614
1216828
1217042
1217248
1217440
1217638
1217834
1218030
1218222
1218424
1218620
1218814
1219010
1219198
1219396
1219598
1219798
1219996
1220192
1220388
1220588
1220786
1220978
1221182
1221384
1221588
1221804
1222022
1222236
1222448
1222654
1222870
1223092
1223314
1223534
1223750
1223968
1224188
1224398
1224608
1224822
1225044
1225254
1225466
1225680
1225896
1226110
1226318
1226526
1226726
1226916
1227120
1227332
1227556
1227780
1228012
1228238
1228450
1228656
1228864
1229078
1229296
1229522
1229742
1229956
1230158
1230354
1230542
1230722
1230904
1231104
1231332
1231556
1231774
1231986
1232194
1232398
1232596
1232796
1232992
1233186
1233372
1233568
1233764
1233964
1234168
1234374
1234580
1234780
1234982
1235174
1235368
1235562
1235764
1235966
1236164
1236356
1236544
1236724
1236906
1237086
1237276
1237472
1237672
1237876
1238086
1238304
1238520
1238738
1238950
1239152
1239352
1239564
1239774
1239992
1240212
1240428
1240644
1240860
1241078
1241298
1241518
1241732
1241950
1242164
1242384
1242596
1242798
1243002
1243216
1243434
1243642
1243844
1244044
1244244
1244446
1244642
1244844
1245046
1245254
1245460
1245654
1245846
1246042
1246234
1246426
1246622
1246824
1247032
1247242
1247456
1247674
1247898
1248130
1248354
1248566
1248776
1248986
1249192
1249394
1249598
1249806
1250014
1250226
1250438
1250650
1250862
1251072
1251282
1251496
1251710
1251924
1252136
1252344
1252546
1252750
1252954
1253156
1253358
1253562
1253762
1253958
1254154
1254348
1254542
1254738
1254936
1255132
1255332
1255530
1255730
1255930
1256134
1256342
1256544
1256744
1256944
1257142
1257344
1257540
1257738
1257932
1258128
1258328
1258528
1258728
1258924
1259124
1259322
1259518
1259712
1259910
1260110
1260308
1260506
1260702
1260904
1261100
1261294
1261502
1261704
1261904
1262102
1262298
1262488
1262682
1262880
1263074
1263276
1263480
1263688
1263892
1264102
1264308
1264514
1264722
1264930
1265146
1265360
1265576
1265800
1266020
1266236
1266460
1266676
1266892
1267108
1267324
1267536
1267752
1267966
1268178
1268390
1268604
1268812
1269028
1269246
1269460
1269678
1269882
1270090
1270298
1270496
1270692
1270888
1271082
1271274
1271464
1271652
1271844
1272034
1272220
1272408
1272600
1272800
1273002
1273206
1273408
1273610
1273812
1274004
1274196
1274396
1274602
1274812
1275024
1275238
1275450
1275658
1275870
1276078
1276284
1276480
1276676
1276870
1277062
1277258
1277464
1277680
1277908
1278140
1278378
1278608
1278826
1279034
1279266
1279510
1279754
1279998
1280238
1280486
1280726
1280952
1281170
1281404
1281644
1281882
1282130
1282380
1282624
1282878
1283128
1283376
1283620
1283860
1284102
1284336
1284578
1284816
1285056
1285286
1285508
1285734
1285948
1286164
1286376
1286582
1286794
1286998
1287196
1287404
1287604
1287818
1288028
1288242
1288458
1288674
1288884
1289092
1289292
1289486
1289684
1289880
1290016
1290262
1290460
1290662
1290866
1291076
1291280
1291492
1291710
1291928
1292148
1292370
1292586
1292798
1293008
1293212
1293424
1293632
1293844
1294052
1294260
1294474
1294694
1294914
1295128
1295344
1295552
1295758
1295962
1296168
1296380
1296588
1296796
1296994
1297198
1297398
1297600
1297806
1298004
1298198
1298394
1298590
1298782
1298954
1299168
1299354
1299540
1299720
1299898
1300076
1300250
1300422
1300596
1300768
1300940
1301114
1301290
1301464
1301640
1301814
1301994
1302176
1302360
1302542
1302726
1302910
1303088
1303270
1303460
1303660
1303864
1304064
1304266
1304464
1304662
1304854
1305044
1305242
1305438
1305634
1305832
1306022
1306216
1306408
1306604
1306800
1307000
1307200
1307390
1307580
1307776
1307970
1308166
1308364
1308560
1308758
1308952
1309146
1309344
1309538
1309734
1309926
1310114
1310306
1310496
1310680
1310866
1311054
1311246
1311438
1311632
1311828
1312028
1312226
1312424
1312616
1312802
1312992
1313210
1313440
1313670
1313892
1314102
1314312
1314526
1314738
1314948
1315152
1315358
1315566
1315770
1315982
1316188
1316402
1316622
1316832
1317044
1317264
1317484
1317696
1317918
1318132
1318340
1318556
1318768
1318990
1319224
1319446
1319658
1319872
1320084
1320292
1320496
1320698
1320900
1321100
1321296
1321490
1321690
1321896
1322102
1322312
1322518
1322728
1322942
1323156
1323370
1323586
1323802
1324014
1324228
1324438
1324646
1324852
1325062
1325266
1325468
1325672
1325892
1326118
1326340
1326554
1326774
1326984
1327188
1327388
1327592
1327798
1328012
1328234
1328458
1328684
1328906
1329134
1329362
1329586
1329810
1330028
1330242
1330464
1330676
1330894
1331112
1331326
1331530
1331740
1331946
1332150
1332358
1332566
1332774
1332988
1333196
1333406
1333616
1333822
1334030
1334236
1334446
1334656
1334864
1335080
1335294
1335506
1335722
1335944
1336166
1336390
1336600
1336814
1337026
1337236
1337448
1337662
1337880
1338092
1338312
1338534
1338744
1338952
1339168
1339374
1339574
1339774
1339976
1340174
1340370
1340578
1340782
1340992
1341200
1341406
1341620
1341832
1342048
1342256
1342460
1342666
1342862
1343064
1343266
1343464
1343668
1343876
1344080
1344286
1344488
1344692
1344904
1345110
1345308
1345510
1345710
1345908
1346100
1346300
1346494
1346694
1346898
1347102
1347308
1347518
1347730
1347938
1348146
1348348
1348546
1348742
1348938
1349136
1349334
1349540
1349746
1349946
1350146
1350348
1350550
1350756
1350962
1351158
1351352
1351546
1351736
1351936
1352128
1352330
1352528
1352722
1352920
1353114
1353310
1353508
1353712
1353916
1354106
1354294
1354480
1354664
1354852
1355042
1355236
1355428
1355614
1355802
1355994
1356188
1356380
1356566
1356754
1356938
1357120
1357304
1357490
1357680
1357868
1358056
1358240
1358434
1358630
1358832
1359028
1359222
1359414
1359602
1359788
1359972
1360158
1360350
1360542
1360740
1360938
1361140
1361338
1361534
1361728
1361924
1362114
1362302
1362496
1362686
1362882
1363080
1363274
1363470
1363666
1363860
1364058
1364248
1364436
1364624
1364806
1364990
1365180
1365374
1365570
1365766
1365970
1366168
1366372
1366574
1366770
1366962
1367146
1367334
1367528
1367720
1367916
1368120
1368320
1368518
1368716
1368910
1369102
1369300
1369500
1369704
1369906
1370100
1370286
1370466
1370640
1370816
1370988
1371160
1371328
1371496
1371662
1371820
1371978
1372140
1372302
1372464
1372628
1372798
1372972
1373152
1373336
1373518
1373706
1373892
1374080
1374270
1374460
1374652
1374846
1375036
1375212
1375392
1375576
1375762
1375948
1376138
1376334
1376530
1376720
1376910
1377092
1377274
1377456
1377640
1377820
1377998
1378176
1378354
1378530
1378704
1378876
1379050
1379230
1379410
1379596
1379780
1379946
1380164
1380358
1380552
1380744
1380936
1381126
1381314
1381504
1381692
1381882
1382068
1382258
1382450
1382640
1382838
1383032
1383226
1383420
1383614
1383804
1383992
1384176
1384364
1384546
1384722
1384898
1385076
1385256
1385440
1385630
1385824
1386026
1386220
1386408
1386588
1386764
1386944
1387126
1387312
1387498
1387686
1387880
1388072
1388270
1388476
1388682
1388886
1389082
1389280
1389474
1389660
1389854
1390044
1390238
1390428
1390620
1390814
1391010
1391210
1391414
1391620
1391824
1392034
1392250
1392462
1392674
1392882
1393090
1393290
1393490
1393688
1393888
1394084
1394286
1394486
1394692
1394902
1395126
1395340
1395554
1395766
1395982
1396192
1396402
1396612
1396826
1397036
1397246
1397454
1397662
1397872
1398082
1398296
1398508
1398718
1398924
1399132
1399340
1399544
1399754
1399972
1400190
1400404
1400624
1400844
1401064
1401276
1401490
1401694
1401888
1402088
1402286
1402482
1402670
1402866
1403060
1403256
1403454
1403658
1403868
1404080
1404282
1404476
1404670
1404860
1405054
1405252
1405456
1405668
1405882
1406096
1406308
1406504
1406696
1406886
1407074
1407254
1407432
1407616
1407804
1407994
1408192
1408392
1408588
1408782
1408972
1409160
1409348
1409538
1409726
1409914
1410106
1410292
1410476
1410658
1410844
1411032
1411222
1411412
1411608
1411810
1412014
1412208
1412404
1412600
1412800
1413002
1413204
1413402
1413594
1413784
1413972
1414164
1414362
1414572
1414784
1414992
1415200
1415412
1415616
1415816
1416008
1416204
1416396
1416594
1416798
1417006
1417214
1417410
1417608
1417804
1417998
1418188
1418382
1418570
1418762
1418950
1419138
1419324
1419510
1419696
1419882
1420070
1420260
1420456
1420650
1420838
1421034
1421226
1421416
1421606
1421794
1421984
1422174
1422372
1422578
1422780
1422984
1423180
1423372
1423558
1423742
1423922
1424100
1424284
1424472
1424676
1424882
1425084
1425280
1425480
1425670
1425856
1426046
1426230
1426414
1426606
1426800
1426998
1427204
1427416
1427626
1427840
1428048
1428252
1428452
1428642
1428828
1429006
1429184
1429362
1429548
1429740
1429948
1430158
1430376
1430600
1430822
1431036
1431244
1431452
1431658
1431860
1432054
1432246
1432446
1432658
1432876
1433094
1433306
1433518
1433724
1433922
1434114
1434304
1434488
1434668
1434844
1435018
1435194
1435378
1435574
1435774
1435986
1436208
1436428
1436650
1436868
1437082
1437290
1437496
1437700
1437900
1438100
1438302
1438506
1438712
1438920
1439134
1439348
1439558
1439768
1439976
1440182
1440382
1440588
1440794
1440998
1441208
1441412
1441616
1441812
1442014
1442212
1442408
1442600
1442800
1442994
1443190
1443384
1443580
1443776
1443966
1444156
1444346
1444532
1444722
1444908
1445098
1445284
1445476
1445666
1445856
1446046
1446242
1446438
1446628
1446810
1446994
1447176
1447354
1447544
1447730
1447920
1448108
1448294
1448480
1448666
1448852
1449046
1449240
1449438
1449638
1449832
1450014
1450198
1450378
1450554
1450728
1450904
1451080
1451256
1451436
1451618
1451798
1451978
1452164
1452348
1452526
1452708
1452892
1453076
1453264
1453450
1453638
1453824
1454014
1454204
1454396
1454584
1454770
1454956
1455140
1455322
1455500
1455684
1455864
1456044
1456230
1456422
1456618
1456812
1457004
1457194
1457386
1457574
1457754
1457934
1458110
1458286
1458464
1458644
1458818
1458996
1459176
1459356
1459538
1459724
1459910
1460098
1460284
1460474
1460662
1460846
1461026
1461202
1461380
1461564
1461748
1461934
1462120
1462306
1462496
1462686
1462872
1463058
1463246
1463434
1463620
1463808
1463996
1464180
1464370
1464560
1464746
1464936
1465126
1465318
1465510
1465704
1465894
1466088
1466282
1466470
1466666
1466858
1467056
1467256
1467454
1467644
1467838
1468030
1468222
1468410
1468602
1468788
1468972
1469156
1469342
1469534
1469734
1469936
1470138
1470340
1470534
1470734
1470932
1471126
1471324
1471524
1471724
1471918
1472114
1472302
1472484
1472660
1472834
1473012
1473194
1473380
1473566
1473766
1473966
1474170
1474370
1474574
1474772
1474970
1475170
1475370
1475568
1475772
1475972
1476174
1476374
1476574
1476776
1476978
1477184
1477394
1477604
1477814
1478022
1478238
1478454
1478670
1478888
1479104
1479310
1479506
1479704
1479898
1480084
1480272
1480460
1480644
1480826
1481006
1481184
1481368
1481552
1481740
1481930
1482126
1482320
1482514
1482712
1482908
1483110
1483312
1483518
1483724
1483930
1484142
1484286
1484568
1484772
1484982
1485192
1485406
1485622
1485832
1486048
1486250
1486462
1486668
1486876
1487026
1487280
1487470
1487662
1487850
1488040
1488230
1488420
1488616
1488826
1489032
1489244
1489454
1489664
1489876
1490086
1490292
1490498
1490700
1490902
1491104
1491302
1491500
1491702
1491900
1492098
1492290
1492478
1492670
1492866
1493064
1493256
1493454
1493648
1493844
1494032
1494212
1494394
1494568
1494750
1494934
1495122
1495310
1495494
1495682
1495866
1496054
1496242
1496430
1496622
1496812
1497002
1497200
1497396
1497594
1497792
1497984
1498184
1498384
1498588
1498790
1498988
1499182
1499372
1499560
1499746
1499932
1500120
1500306
1500496
1500684
1500868
1501054
1501242
1501432
1501626
1501814
1502008
1502196
1502386
1502574
1502766
1502958
1503152
1503348
1503536
1503726
1503916
1504106
1504300
1504492
1504690
1504884
1505080
1505274
1505468
1505662
1505852
1506042
1506228
1506416
1506600
1506792
1506984
1507178
1507368
1507556
1507744
1507926
1508108
1508290
1508478
1508668
1508864
1509058
1509254
1509442
1509626
1509814
1509994
1510170
1510344
1510516
1510686
1510854
1511018
1511186
1511350
1511514
1511680
1511846
1512014
1512182
1512358
1512534
1512708
1512878
1513044
1513210
1513376
1513540
1513710
1513878
1514048
1514214
1514376
1514546
1514714
1514884
1515056
1515228
1515408
1515592
1515780
1515970
1516160
1516354
1516550
1516746
1516936
1517134
1517330
1517528
1517726
1517926
1518126
1518326
1518514
1518702
1518898
1519106
1519318
1519530
1519746
1519954
1520162
1520366
1520572
1520780
1520996
1521204
1521408
1521604
1521800
1522002
1522204
1522414
1522630
1522774
1523060
1523264
1523472
1523680
1523880
1524084
1524290
1524508
1524734
1524958
1525178
1525394
1525608
1525822
1526032
1526244
1526464
1526684
1526908
1527138
1527370
1527608
1527830
1528046
1528260
1528476
1528696
1528906
1529120
1529326
1529538
1529752
1529962
1530176
1530388
1530600
1530812
1531026
1531236
1531444
1531650
1531860
1532076
1532294
1532508
1532724
1532942
1533154
1533360
1533564
1533764
1533966
1534168
1534368
1534566
1534766
1534908
1535176
1535370
1535560
1535748
1535932
1536116
1536294
1536484
1536684
1536884
1537096
1537312
1537530
1537746
1537956
1538160
1538356
1538546
1538740
1538938
1539140
1539346
1539552
1539760
1539962
1540168
1540374
1540580
1540782
1540984
1541202
1541420
1541638
1541858
1542082
1542304
1542520
1542734
1542948
1543158
1543368
1543574
1543774
1543964
1544160
1544348
1544536
1544732
1544934
1545140
1545356
1545582
1545808
1546034
1546246
1546458
1546672
1546886
1547096
1547260
1547514
1547728
1547942
1548156
1548378
1548600
1548818
1549046
1549270
1549492
1549708
1549930
1550158
1550386
1550612
1550830
1551044
1551252
1551458
1551658
1551858
1552056
1552258
1552464
1552676
1552890
1553100
1553304
1553506
1553706
1553896
1554082
1554272
1554464
1554664
1554872
1555032
1555314
1555532
1555754
1555968
1556176
1556392
1556610
1556826
1557044
1557260
1557474
1557684
1557892
1558098
1558304
1558516
1558726
1558940
1559152
1559366
1559576
1559784
1559990
1560196
1560404
1560608
1560812
1561022
1561228
1561440
1561648
1561860
1562072
1562280
1562494
1562706
1562912
1563124
1563338
1563552
1563756
1563966
1564174
1564382
1564592
1564804
1565016
1565224
1565428
1565638
1565848
1566054
1566262
1566472
1566684
1566896
1567110
1567316
1567526
1567730
1567932
1568136
1568340
1568542
1568746
1568952
1569160
1569368
1569574
1569776
1569980
1570184
1570382
1570578
1570776
1570972
1571170
1571370
1571568
1571768
1571962
1572160
1572350
1572536
1572718
1572900
1573072
1573244
1573422
1573598
1573776
1573948
1574122
1574294
1574470
1574644
1574818
1574992
1575172
1575356
1575544
1575732
1575918
1576106
1576292
1576474
1576656
1576844
1577032
1577220
1577406
1577594
1577778
1577954
1578134
1578314
1578498
1578688
1578884
1579082
1579282
1579490
1579692
1579892
1580086
1580280
1580476
1580676
1580884
1581096
1581304
1581506
1581706
1581900
1582094
1582286
1582470
1582650
1582828
1583014
1583202
1583398
1583598
1583806
1584018
1584236
1584444
1584644
1584836
1585032
1585218
1585404
1585610
1585830
1586048
1586266
1586478
1586690
1586916
1587150
1587370
1587598
1587818
1588038
1588254
1588472
1588692
1588906
1589114
1589326
1589534
1589740
1589952
1590152
1590360
1590570
1590776
1590986
1591194
1591402
1591612
1591816
1592010
1592200
1592384
1592560
1592734
1592908
1593094
1593296
1593498
1593708
1593912
1594110
1594308
1594516
1594732
1594958
1595182
1595410
1595632
1595858
1596078
1596298
1596518
1596732
1596946
1597172
1597394
1597614
1597824
1598036
1598244
1598450
1598660
1598884
1599112
1599342
1599568
1599782
1599994
1600202
1600414
1600626
1600836
1601062
1601288
1601506
1601728
1601948
1602164
1602376
1602590
1602804
1603024
1603240
1603458
1603680
1603900
1604120
1604342
1604566
1604786
1605016
1605242
1605466
1605696
1605912
1606124
1606334
1606542
1606748
1606956
1607164
1607380
1607588
1607796
1608004
1608210
1608410
1608610
1608802
1609002
1609208
1609414
1609626
1609840
1610060
1610274
1610486
1610696
1610908
1611126
1611338
1611540
1611748
1611954
1612162
1612368
1612580
1612798
1613010
1613224
1613434
1613642
1613848
1614054
1614258
1614466
1614666
1614862
1615064
1615280
1615492
1615696
1615896
1616100
1616312
1616524
1616732
1616934
1617132
1617330
1617526
1617728
1617932
1618142
1618356
1618570
1618790
1619012
1619232
1619444
1619648
1619858
1620070
1620282
1620494
1620706
1620930
1621156
1621384
1621618
1621858
1622100
1622338
1622580
1622818
1623060
1623302
1623536
1623772
1624020
1624274
1624528
1624780
1625004
1625218
1625428
1625630
1625828
1626042
1626284
1626508
1626732
1626948
1627180
1627402
1627640
1627876
1628134
1628394
1628652
1628902
1629162
1629408
1629650
1629894
1630142
1630400
1630654
1630904
1631150
1631400
1631662
1631896
1632136
1632372
1632614
1632854
1633080
1633302
1633540
1633768
1633988
1634208
1634432
1634658
1634894
1635136
1635398
1635656
1635910
1636162
1636422
1636680
1636942
1637204
1637440
1637678
1637910
1638142
1638388
1638640
1638888
1639130
1639266
1639570
1639806
1640032
1640254
1640476
1640706
1640962
1641230
1641494
1641734
1641956
1642246
1642504
1642756
1643006
1643230
1643452
1643676
1643906
1644142
1644372
1644610
1644836
1645074
1645320
1645578
1645830
1646068
1646294
1646516
1646738
1646960
1647196
1647430
1647672
1647904
1648136
1648352
1648566
1648782
1649000
1649218
1649432
1649644
1649862
1650082
1650302
1650518
1650730
1650936
1651138
1651312
1651536
1651732
1651942
1652180
1652416
1652654
1652894
1653122
1653350
1653578
1653802
1654020
1654238
1654458
1654672
1654876
1655082
1655288
1655502
1655720
1655948
1656180
1656404
1656620
1656824
1657022
1657210
1657400
1657586
1657772
1657950
1658130
1658310
1658488
1658668
1658848
1659022
1659198
1659370
1659542
1659714
1659882
1660046
1660214
1660382
1660550
1660716
1660882
1661052
1661222
1661394
1661568
1661744
1661920
1662098
1662276
1662450
1662626
1662798
1662968
1663140
1663314
1663490
1663668
1663844
1664022
1664200
1664382
1664562
1664738
1664912
1665082
1665248
1665410
1665568
1665730
1665888
1666048
1666210
1666370
1666534
1666700
1666866
1667036
1667204
1667372
1667544
1667714
1667884
1668058
1668230
1668404
1668578
1668748
1668916
1669086
1669252
1669416
1669582
1669746
1669908
1670064
1670222
1670380
1670538
1670698
1670858
1671016
1671174
1671332
1671490
1671646
1671800
1671952
1672110
1672266
1672422
1672582
1672738
1672898
1673056
1673216
1673376
1673534
1673692
1673854
1674018
1674174
1674336
1674496
1674654
1674814
1674976
1675136
1675296
1675458
1675618
1675774
1675930
1676080
1676230
1676382
1676530
1676682
1676834
1676990
1677144
1677298
1677458
1677612
1677768
1677928
1678090
1678250
1678420
1678584
1678744
1678906
1679068
1679230
1679394
1679556
1679718
1679886
1680054
1680220
1680392
1680560
1680734
1680908
1681082
1681254
1681426
1681598
1681768
1681938
1682104
1682270
1682436
1682602
1682764
1682930
1683094
1683260
1683424
1683588
1683750
1683912
1684074
1684240
1684402
1684564
1684730
1684894
1685058
1685226
1685394
1685564
1685728
1685894
1686062
1686228
1686388
1686552
1686714
1686876
1687032
1687194
1687356
1687516
1687682
1687844
1688006
1688172
1688338
1688502
1688668
1688834
1688998
1689166
1689334
1689504
1689676
1689848
1690022
1690196
1690370
1690548
1690722
1690896
1691072
1691250
1691422
1691588
1691750
1691908
1692066
1692218
1692372
1692526
1692674
1692826
1692974
1693124
1693274
1693426
1693582
1693738
1693900
1694064
1694224
1694388
1694552
1694714
1694872
1695030
1695188
1695340
1695496
1695646
1695798
1695952
1696104
1696258
1696412
1696566
1696720
1696872
1697028
1697182
1697334
1697486
1697636
1697784
1697930
1698082
1698228
1698374
1698518
1698662
1698806
1698950
1699088
1699228
1699366
1699506
1699640
1699778
1699912
1700044
1700178
1700308
1700440
1700572
1700700
1700830
1700958
1701086
1701214
1701342
1701468
1701596
1701722
1701850
1701976
1702102
1702226
1702354
1702478
1702602
1702726
1702850
1702972
1703094
1703218
1703338
1703456
1703578
1703696
1703816
1703934
1704054
1704174
1704290
1704408
1704528
1704646
1704766
1704884
1705004
1705124
1705244
1705362
1705480
1705596
1705722
1705840
1705958
1706080
1706196
1706322
1706432
1706550
1706668
1706786
1706904
1707024
1707142
1707258
1707378
1707498
1707618
1707734
1707852
1707972
1708092
1708210
1708330
1708448
1708566
1708684
1708800
1708918
1709038
1709154
1709270
1709386
1709504
1709622
1709736
1709854
1709972
1710090
1710208
1710324
1710442
1710562
1710680
1710798
1710918
1711038
1711156
1711276
1711396
1711516
1711636
1711756
1711878
1711998
1712116
1712234
1712354
1712476
1712596
1712714
1712834
1712956
1713074
1713192
1713314
1713436
1713556
1713676
1713802
1713924
1714046
1714172
1714296
1714422
1714546
1714674
1714800
1714924
1715054
1715178
1715302
1715430
1715556
1715678
1715804
1715932
1716056
1716186
1716312
1716438
1716568
1716696
1716824
1716954
1717082
1717210
1717340
1717468
1717600
1717732
1717864
1717994
1718128
1718258
1718390
1718524
1718658
1718792
1718924
1719058
1719190
1719322
1719456
1719588
1719722
1719856
1719990
1720124
1720258
1720394
1720526
1720662
1720798
1720930
1721066
1721202
1721342
1721478
1721618
1721758
1721902
1722052
1722202
1722352
1722504
1722660
1722824
1722988
1723150
1723314
1723492
1723680
1723866
1724052
1724244
1724432
1724612
1724802
1725002
1725206
1725406
1725604
1725796
1725990
1726180
1726372
1726568
1726762
1726954
1727146
1727354
1727578
1727794
1728012
1728228
1728440
1728648
1728848
1729034
1729216
1729400
1729582
1729762
1729964
1730170
1730378
1730588
1730790
1730984
1731170
1731354
1731542
1731738
1731942
1732146
1732354
1732568
1732788
1733002
1733216
1733434
1733658
1733896
1734140
1734384
1734634
1734786
1735104
1735334
1735582
1735830
1736074
1736330
1736608
1736878
1737144
1737414
1737674
1737938
1738204
1738470
1738734
1738994
1739258
1739514
1739662
1739966
1740252
1740526
1740794
1741054
1741312
1741574
1741836
1742088
1742326
1742560
1742808
1743054
1743314
1743576
1743830
1744094
1744354
1744626
1744898
1745160
1745432
1745706
1745988
1746260
1746536
1746812
1747088
1747366
1747652
1747918
1748192
1748448
1748708
1748968
1749230
1749500
1749764
1750016
1750284
1750534
1750780
1751022
1751272
1751522
1751766
1752016
1752260
1752508
1752752
1753000
1753260
1753520
1753780
1754028
1754284
1754534
1754774
1755000
1755240
1755512
1755790
1756070
1756344
1756614
1756892
1757166
1757432
1757702
1757962
1758228
1758500
1758778
1759044
1759316
1759582
1759850
1760110
1760368
1760628
1760870
1761106
1761346
1761588
1761832
1762080
1762332
1762584
1762836
1763080
1763320
1763564
1763804
1764046
1764280
1764508
1764726
1764940
1765154
1765384
1765622
1765862
1766110
1766364
1766616
1766876
1767130
1767390
1767646
1767906
1768168
1768434
1768698
1768952
1769208
1769452
1769696
1769946
1770196
1770456
1770710
1770976
1771244
1771500
1771756
1772012
1772274
1772534
1772792
1773054
1773320
1773580
1773844
1774104
1774358
1774620
1774870
1775128
1775380
1775626
1775868
1776104
1776358
1776608
1776838
1777074
1777304
1777530
1777754
1777974
1778192
1778418
1778648
1778884
1779120
1779350
1779572
1779786
1779996
1780210
1780436
1780664
1780896
1781130
1781370
1781614
1781854
1782084
1782316
1782546
1782776
1783008
1783236
1783470
1783704
1783934
1784154
1784368
1784580
1784794
1785006
1785214
1785420
1785628
1785842
1786066
1786300
1786542
1786780
1787022
1787258
1787502
1787742
1787996
1788248
1788484
1788736
1788990
1789248
1789502
1789732
1789966
1790192
1790420
1790654
1790890
1791128
1791366
1791606
1791842
1792080
1792312
1792554
1792796
1793046
1793294
1793538
1793780
1794010
1794250
1794488
1794734
1794970
1795202
1795444
1795686
1795928
1796166
1796396
1796620
1796840
1797050
1797258
1797474
1797698
1797918
1798144
1798368
1798584
1798798
1799012
1799226
1799436
1799646
1799854
