peaks
192
516
830
1148
1476
1800
2104
2418
2726
3016
3302
3590
3864
4146
4436
4718
5012
5320
5616
5924
6246
6576
6892
7222
7562
7892
8226
8568
8896
9232
9572
9902
10220
10544
10874
11190
11512
11840
12156
12482
12812
13144
13464
13806
14150
14472
14796
15126
15446
15762
16090
16420
16738
17062
17392
17712
18026
18354
18694
19012
19336
19670
20004
20316
20644
20976
21298
21620
21948
22284
22602
22922
23248
23572
23880
24204
24542
24868
25196
25534
25876
26194
26522
26856
27186
27500
27808
28132
28456
28772
29100
29436
29754
30070
30402
30720
31040
31374
31702
32016
32332
32658
32982
33286
33598
33916
34228
34534
34856
35188
35506
35820
36150
36478
36800
37134
37470
37798
38134
38472
38796
39132
39466
39788
40112
40450
40782
41098
41422
41752
42084
42396
42712
43030
43346
43652
43976
44296
44602
44918
45246
45560
45880
46208
46524
46830
47132
47454
47778
48082
48410
48744
49066
49392
49730
50066
50380
50706
51036
51366
51686
52016
52342
52658
52982
53316
53638
53964
54296
54628
54942
55258
55586
55910
56218
56538
56866
57190
57502
57826
58146
58466
58782
59104
59414
59710
59998
60290
60580
60862
61158
61454
61738
62032
62330
62622
62920
63230
63542
63852
64170
64492
64810
65124
65450
65778
66096
66416
66744
67078
67398
67726
68054
68382
68692
69002
69318
69638
69946
70264
70594
70932
71256
71584
71918
72244
72566
72894
73222
73532
73850
74192
74504
74804
75104
75398
75686
75954
76212
76464
76708
76946
77180
77406
77628
77850
78072
78298
78526
78752
78990
79228
79470
79712
79954
80200
80448
80702
80952
81208
81476
81744
82008
82276
82544
82814
83078
83344
83602
83844
84084
84320
84558
84804
85052
85298
85554
85818
86080
86334
86592
86852
87112
87370
87634
87906
88176
88446
88718
88996
89274
89544
89826
90110
90394
90684
90980
91278
91566
91854
92142
92426
92704
92984
93274
93568
93848
94138
94432
94718
95006
95304
95606
95896
96196
96506
96810
97112
97420
97728
98026
98336
98650
98946
99248
99554
99856
100158
100472
100788
101090
101396
101708
102012
102306
102616
102918
103212
103520
103830
104126
104402
104686
104970
105248
105534
105826
106104
106394
106688
106968
107254
107546
107838
108130
108436
108746
109040
109346
109656
109964
110264
110574
110888
111190
111498
111808
112116
112406
112708
113018
113320
113626
113936
114234
114514
114792
115082
115358
115652
115960
116260
116554
116860
117176
117486
117800
118124
118432
118736
119048
119372
119678
119986
120306
120622
120922
121220
121530
121844
122142
122444
122750
123060
123354
123656
123964
124262
124556
124856
125158
125446
125740
126038
126326
126616
126902
127166
127428
127690
127960
128224
128498
128780
129056
129342
129628
129908
130196
130488
130772
131068
131376
131684
131984
132296
132608
132908
133214
133520
133822
134122
134432
134742
135040
135340
135648
135946
136246
136554
136864
137162
137464
137780
138082
138360
138640
138914
139182
139460
139752
140044
140346
140664
140972
141282
141602
141912
142206
142518
142838
143156
143462
143780
144104
144412
144712
145022
145338
145638
145942
146254
146550
146836
147132
147422
147716
148026
148346
148648
148950
149260
149548
149814
150060
150314
150546
150770
150988
151210
151434
151680
151946
152220
152492
152772
153064
153358
153644
153948
154260
154568
154858
155156
155468
155780
156094
156414
156742
157052
157362
157680
157994
158306
158620
158940
159268
159588
159898
160222
160538
160832
161128
161432
161724
161992
162264
162544
162814
163084
163364
163644
163916
164194
164476
164752
165026
165306
165584
165856
166134
166416
166688
166968
167248
167526
167810
168104
168402
168692
168984
169280
169572
169856
170140
170428
170710
170998
171294
171588
171874
172162
172456
172748
173020
173296
173574
173838
174110
174388
174664
174944
175228
175508
175788
176076
176360
176636
176924
177214
177498
177796
178100
178398
178700
179012
179330
179638
179954
180262
180564
180866
181174
181472
181762
182062
182368
182660
182950
183248
183542
183814
184092
184358
184618
184884
185150
185414
185690
185968
186246
186532
186824
187106
187386
187668
187942
188220
188502
188778
189054
189334
189610
189886
190166
190442
190718
190996
191280
191556
191832
192112
192382
192632
192874
193106
193334
193556
193784
194020
194276
194546
194812
195078
195352
195632
195902
196172
196450
196730
197012
197284
197550
197820
198090
198356
198622
198890
199162
199424
199686
199954
200220
200478
200742
201008
201272
201534
201802
202080
202352
202616
202886
203152
203414
203672
203934
204202
204470
204738
205018
205306
205598
205874
206154
206440
206722
206998
207280
207560
207838
208108
208386
208670
208946
209226
209504
209756
210002
210256
210508
210762
211024
211300
211566
211810
212048
212284
212510
212732
212948
213164
213372
213578
213780
213976
214172
214366
214556
214744
214928
215108
215288
215466
215642
215818
215992
216164
216338
216514
216690
216868
217050
217228
217416
217602
217790
217980
218172
218368
218564
218758
218952
219146
219342
219536
219726
219918
220114
220312
220510
220710
220908
221100
221298
221500
221700
221902
222106
222316
222520
222720
222920
223118
223316
223518
223720
223920
224122
224326
224530
224730
224932
225132
225330
225530
225732
225936
226136
226338
226550
226760
226972
227182
227392
227600
227808
228010
228210
228410
228610
228810
229006
229202
229398
229592
229788
229986
230182
230380
230580
230782
230984
231186
231390
231592
231788
231984
232176
232364
232552
232738
232922
233106
233292
233478
233666
233852
234038
234226
234426
234634
234858
235092
235326
235564
235800
236026
236242
236460
236674
236886
237098
237304
237510
237720
237932
238142
238356
238574
238792
239010
239236
239464
239698
239928
240172
240406
240634
240856
241078
241302
241534
241770
241998
242228
242462
242698
242932
243162
243394
243632
243874
244120
244370
244626
244874
245126
245382
245614
245840
246066
246288
246504
246728
246948
247178
247420
247670
247922
248160
248392
248624
248854
249080
249304
249538
249774
250008
250234
250466
250688
250906
251120
251330
251546
251766
251990
252226
252466
252700
252928
253156
253394
253632
253876
254100
254322
254540
254758
254978
255200
255418
255638
255864
256092
256320
256550
256780
257008
257234
257456
257670
257882
258092
258308
258522
258738
258950
259162
259376
259592
259804
260014
260222
260426
260632
260840
261046
261252
261454
261656
261860
262060
262260
262460
262658
262856
263056
263256
263458
263662
263872
264082
264288
264496
264698
264904
265112
265322
265528
265736
265944
266166
266398
266634
266868
267110
267350
267584
267814
268040
268256
268470
268678
268884
269090
269302
269526
269748
269968
270202
270448
270694
270940
271178
271402
271624
271850
272074
272294
272520
272756
272988
273220
273454
273686
273918
274142
274362
274586
274814
275034
275256
275480
275704
275928
276138
276352
276568
276790
277010
277232
277458
277676
277894
278108
278322
278530
278734
278936
279140
279342
279546
279750
279956
280170
280392
280612
280836
281066
281306
281542
281776
282010
282242
282472
282706
282936
283156
283368
283582
283800
284020
284234
284448
284660
284874
285100
285338
285586
285830
286076
286328
286596
286870
287150
287426
287692
287940
288190
288446
288710
288984
289242
289498
289762
290030
290298
290568
290844
291122
291382
291632
291888
292150
292402
292650
292906
293160
293410
293670
293942
294224
294490
294770
295054
295340
295612
295880
296158
296440
296722
296996
297254
297522
297796
298070
298336
298608
298886
299168
299440
299704
299978
300252
300538
300818
301100
301386
301662
301928
302206
302486
302776
303058
303330
303604
303884
304170
304454
304728
305010
305296
305576
305846
306122
306404
306686
306960
307226
307496
307770
308014
308250
308478
308698
308926
309174
309434
309704
309978
310244
310510
310786
311068
311354
311630
311900
312176
312456
312744
313034
313318
313596
313860
314130
314408
314698
314994
315274
315556
315846
316136
316434
316724
317018
317310
317588
317854
318122
318400
318680
318964
319242
319508
319784
320066
320352
320626
320898
321176
321462
321744
322030
322318
322600
322854
323108
323372
323644
323922
324188
324462
324738
325018
325286
325562
325840
326120
326396
326676
326960
327234
327498
327764
328038
328318
328594
328860
329132
329406
329684
329966
330244
330490
330734
330962
331182
331398
331614
331844
332110
332404
332702
332984
333260
333538
333828
334114
334406
334692
334974
335250
335520
335802
336086
336372
336668
336956
337234
337522
337806
338100
338396
338688
338966
339250
339536
339822
340104
340374
340654
340938
341226
341512
341786
342064
342348
342630
342910
343190
343470
343730
343976
344218
344460
344694
344926
345170
345434
345710
345996
346284
346572
346862
347152
347440
347708
347972
348244
348526
348814
349090
349362
349644
349932
350224
350522
350824
351122
351420
351722
352020
352312
352576
352842
353112
353390
353674
353948
354212
354486
354764
355044
355328
355616
355906
356196
356486
356774
357058
357338
357626
357920
358226
358532
358828
359134
359446
359760
360058
360350
360648
360956
361262
361578
361892
362202
362510
362814
363118
363406
363698
364012
364328
364640
364934
365242
365552
365868
366172
366470
366774
367074
367364
367654
367952
368260
368566
368860
369144
369432
369722
370004
370280
370552
370830
371112
371398
371678
371952
372234
372516
372802
373086
373360
373640
373930
374222
374506
374782
375066
375356
375648
375932
376210
376492
376778
377068
377350
377624
377902
378182
378466
378746
379016
379270
379512
379758
380018
380292
380574
380846
381120
381398
381680
381964
382240
382508
382778
383054
383336
383610
383878
384154
384432
384718
384996
385268
385548
385830
386118
386396
386664
386940
387222
387506
387784
388046
388320
388600
388880
389150
389396
389638
389866
390092
390330
390590
390860
391146
391420
391690
391972
392262
392558
392852
393146
393424
393696
393978
394262
394554
394838
395118
395406
395698
395990
396278
396554
396834
397118
397406
397684
397958
398238
398522
398806
399082
399356
399636
399922
400204
400480
400764
401054
401350
401636
401922
402214
402506
402804
403090
403378
403674
403964
404240
404496
404754
405024
405302
405590
405882
406174
406474
406772
407074
407370
407662
407952
408232
408498
408762
409040
409326
409604
409872
410150
410428
410710
410988
411274
411560
411842
412130
412416
412694
412960
413232
413510
413792
414072
414344
414622
414904
415190
415468
415738
416022
416310
416600
416890
417178
417458
417728
418004
418280
418560
418836
419102
419374
419648
419928
420202
420464
420734
421010
421290
421572
421858
422146
422428
422696
422964
423236
423516
423792
424058
424330
424608
424888
425162
425426
425702
425978
426258
426536
426806
427086
427372
427652
427926
428210
428500
428792
429076
429360
429648
429940
430218
430488
430770
431052
431324
431596
431872
432156
432430
432700
432980
433262
433548
433834
434112
434374
434624
434868
435126
435396
435668
435946
436210
436470
436734
437006
437288
437562
437828
438100
438376
438662
438940
439216
439502
439786
440066
440338
440614
440894
441176
441454
441722
441996
442274
442558
442832
443104
443382
443666
443948
444216
444492
444770
445054
445348
445640
445934
446218
446482
446734
446990
447262
447538
447814
448096
448380
448664
448948
449232
449510
449784
450062
450348
450638
450934
451222
451496
451778
452062
452350
452638
452922
453194
453464
453746
454032
454320
454606
454894
455188
455480
455770
456056
456328
456606
456890
457180
457462
457732
457992
458240
458478
458708
458932
459148
459372
459616
459876
460144
460418
460700
460986
461272
461548
461808
462068
462342
462620
462904
463190
463474
463764
464050
464334
464616
464888
465152
465416
465688
465974
466264
466548
466820
467100
467382
467668
467950
468234
468520
468798
469066
469336
469620
469908
470204
470496
470784
471076
471364
471634
471910
472188
472470
472752
473032
473300
473570
473848
474130
474408
474674
474942
475214
475492
475764
476038
476318
476594
476864
477134
477408
477686
477954
478222
478492
478770
479046
479318
479598
479880
480152
480434
480718
480996
481262
481528
481804
482084
482360
482628
482904
483188
483474
483756
484030
484306
484584
484854
485114
485362
485598
485826
486048
486260
486468
486672
486874
487070
487262
487454
487642
487828
488012
488196
488378
488558
488734
488912
489088
489264
489436
489610
489780
489950
490118
490286
490450
490614
490778
490940
491104
491272
491440
491612
491790
491976
492166
492358
492552
492748
492942
493134
493326
493518
493712
493912
494112
494308
494508
494710
494912
495116
495318
495520
495722
495926
496130
496332
496530
496730
496932
497134
497336
497538
497742
497952
498166
498394
498618
498846
499066
499286
499502
499718
499934
500146
500360
500576
500792
501004
501214
501418
501618
501818
502012
502202
502394
502584
502772
502960
503148
503336
503524
503708
503892
504076
504262
504442
504624
504806
504988
505168
505348
505532
505712
505894
506078
506262
506446
506630
506818
507008
507192
507376
507558
507742
507922
508102
508282
508460
508636
508812
508990
509166
509344
509524
509710
509900
510086
510272
510460
510644
510824
511000
511178
511356
511530
511704
511880
512052
512228
512402
512578
512754
512930
513106
513284
513462
513642
513824
514008
514194
514384
514578
514774
514966
515160
515362
515568
515770
515972
516172
516370
516568
516762
516960
517156
517358
517560
517764
517968
518174
518382
518588
518792
518992
519192
519390
519584
519780
519980
520180
520376
520574
520768
520904
521138
521340
521540
521734
521928
522120
522308
522492
522676
522858
523040
523220
523400
523580
523764
523948
524136
524324
524510
524692
524876
525058
525240
525420
525598
525778
525958
526138
526318
526500
526680
526860
527042
527224
527406
527586
527772
527964
528162
528370
528582
528788
528994
529200
529396
529588
529778
529966
530148
530326
530502
530678
530854
531028
531202
531378
531552
531726
531900
532076
532248
532418
532588
532760
532926
533092
533258
533424
533588
533750
533910
534070
534232
534392
534550
534708
534868
535028
535188
535346
535504
535664
535824
535984
536144
536308
536470
536632
536792
536956
537118
537280
537444
537610
537776
537944
538112
538284
538456
538630
538804
538984
539166
539354
539540
539726
539916
540104
540292
540478
540664
540854
541038
541220
541402
541580
541760
541938
542122
542310
542504
542704
542904
543104
543302
543502
543704
543902
544098
544294
544490
544682
544880
545092
545314
545542
545764
545992
546220
546448
546672
546892
547120
547348
547574
547804
548042
548272
548498
548724
548960
549186
549410
549624
549836
550044
550244
550446
550648
550856
551072
551290
551504
551724
551944
552160
552376
552588
552794
552998
553202
553410
553616
553824
554036
554244
554452
554656
554864
555072
555282
555492
555698
555900
556100
556300
556504
556706
556910
557118
557332
557544
557752
557962
558174
558386
558598
558812
559026
559242
559460
559676
559894
560110
560332
560556
560772
560984
561196
561410
561630
561844
562058
562270
562488
562706
562936
563170
563410
563652
563890
564122
564354
564588
564818
565050
565288
565520
565754
565984
566220
566444
566670
566900
567130
567354
567578
567800
568024
568252
568480
568712
568942
569174
569396
569608
569818
570022
570224
570424
570626
570834
571046
571270
571496
571722
571950
572180
572418
572658
572898
573146
573390
573634
573878
574118
574364
574602
574842
575080
575326
575564
575804
576044
576278
576514
576754
577000
577244
577492
577740
577976
578212
578442
578674
578898
579120
579346
579574
579800
580030
580262
580496
580726
580962
581194
581422
581648
581876
582110
582346
582578
582816
583058
583298
583526
583756
583984
584212
584434
584656
584882
585116
585350
585588
585838
586098
586352
586596
586838
587076
587298
587508
587712
587914
588114
588314
588522
588730
588940
589148
589358
589564
589772
589976
590180
590382
590578
590772
590962
591148
591336
591522
591710
591896
592084
592274
592474
592684
592896
593116
593342
593572
593804
594036
594266
594490
594716
594936
595156
595378
595600
595820
596032
596246
596464
596686
596914
597150
597384
597616
597840
598064
598296
598532
598782
599046
599310
599562
599818
600070
600318
600558
600788
601016
601240
601464
601690
601932
602188
602448
602708
602970
603228
603482
603734
603982
604226
604458
604680
604892
605102
605316
605532
605754
605982
606214
606436
606666
606916
607184
607456
607726
607984
608238
608492
608736
608982
609226
609464
609706
609940
610176
610410
610652
610894
611134
611370
611606
611842
612072
612310
612544
612778
613020
613254
613484
613708
613926
614140
614356
614568
614780
614988
615196
615404
615614
615822
616028
616240
616448
616650
616852
617058
617262
617464
617666
617872
618078
618298
618516
618728
618946
619166
619380
619600
619822
620048
620274
620504
620738
620972
621204
621432
621664
621900
622144
622382
622614
622846
623082
623320
623558
623798
624044
624290
624530
624776
625026
625276
625528
625784
626034
626278
626516
626738
626956
627168
627388
627610
627842
628082
628336
628584
628830
629084
629350
629610
629860
630110
630356
630604
630850
631100
631340
631580
631820
632066
632312
632558
632798
633038
633278
633516
633758
633996
634234
634462
634686
634908
635132
635350
635572
635792
636018
636242
636468
636688
636908
637122
637336
637550
637766
637982
638206
638438
638680
638916
639144
639376
639608
639844
640076
640310
640548
640796
641036
641278
641522
641768
642006
642244
642482
642718
642950
643170
643382
643590
643796
643996
644194
644390
644582
644772
644964
645156
645344
645536
645724
645912
646092
646274
646462
646652
646844
647042
647242
647444
647650
647870
648090
648314
648544
648772
648996
649224
649442
649658
649874
650090
650300
650504
650706
650904
651100
651294
651484
651674
651862
652054
652242
652432
652618
652810
653010
653218
653438
653668
653894
654122
654348
654572
654792
655012
655226
655442
655652
655862
656074
656288
656510
656726
656936
657144
657352
657562
657772
657982
658190
658400
658612
658826
659044
659262
659476
659690
659902
660116
660330
660546
660762
660980
661194
661410
661628
661846
662062
662286
662514
662738
662964
663192
663416
663634
663856
664080
664306
664532
664758
664988
665220
665446
665672
665900
666128
666354
666578
666806
667034
667266
667510
667746
667966
668178
668386
668596
668806
669012
669218
669428
669642
669844
670042
670240
670434
670628
670824
671018
671212
671402
671596
671790
671978
672168
672362
672558
672752
672952
673154
673356
673566
673780
673990
674204
674420
674636
674852
675070
675290
675508
675724
675942
676162
676374
676588
676802
677022
677238
677454
677670
677888
678102
678312
678518
678720
678920
679122
679324
679528
679734
679944
680156
680366
680576
680784
680992
681198
681402
681610
681820
682026
682232
682438
682646
682854
683062
683276
683484
683686
683884
684080
684276
684470
684668
684870
685072
685280
685494
685708
685924
686144
686364
686578
686792
687008
687224
687440
687660
687880
688102
688326
688554
688776
689000
689220
689440
689658
689880
690102
690324
690548
690776
691010
691246
691476
691714
691960
692200
692434
692670
692910
693158
693398
693642
693886
694130
694366
694602
694842
695082
695318
695570
695838
696122
696400
696674
696930
697194
697464
697740
698020
698304
698572
698834
699106
699376
699644
699896
700144
700396
700648
700892
701138
701382
701622
701864
702108
702344
702580
702812
703048
703280
703518
703768
704014
704246
704462
704674
704878
705076
705276
705476
705670
705868
706070
706278
706486
706694
706904
707110
707312
707512
707712
707914
708118
708316
708512
708710
708914
709120
709324
709532
709744
709960
710176
710392
710608
710816
711022
711232
711442
711662
711892
712122
712356
712594
712832
713066
713298
713528
713752
713974
714196
714422
714644
714858
715064
715268
715480
715696
715916
716140
716360
716578
716794
717012
717226
717434
717644
717854
718056
718260
718470
718684
718898
719114
719324
719528
719740
719960
720186
720420
720666
720918
721170
721428
721680
721932
722174
722416
722662
722900
723138
723378
723610
723844
724080
724308
724538
724772
725004
725230
725460
725690
725920
726150
726388
726636
726862
727082
727298
727508
727720
727934
728146
728366
728590
728808
729034
729258
729474
729692
729908
730124
730336
730550
730768
730988
731212
731436
731664
731896
732122
732352
732578
732812
733042
733268
733496
733726
733952
734182
734422
734670
734920
735160
735398
735642
735882
736110
736346
736584
736816
737040
737274
737510
737750
737986
738222
738466
738704
738940
739174
739410
739640
739866
740094
740324
740556
740782
741008
741226
741434
741638
741834
742030
742220
742408
742594
742780
742968
743154
743340
743530
743722
743914
744108
744306
744498
744686
744880
745080
745284
745490
745698
745902
746104
746310
746524
746738
746956
747174
747396
747618
747842
748062
748284
748512
748740
748966
749186
749408
749626
749850
750074
750298
750524
750754
750984
751208
751416
751624
751834
752054
752282
752518
752750
752984
753214
753444
753672
753896
754116
754332
754540
754742
754946
755148
755350
755550
755754
755960
756166
756378
756594
756814
757024
757238
757456
757674
757892
758114
758336
758556
758788
759026
759274
759508
759740
759974
760210
760438
760670
760902
761134
761368
761604
761830
762052
762282
762520
762760
763004
763238
763474
763716
763958
764204
764446
764678
764908
765142
765374
765600
765812
766026
766228
766426
766628
766826
767030
767240
767458
767676
767900
768120
768336
768548
768756
768958
769156
769360
769566
769768
769966
770170
770378
770590
770800
771016
771234
771452
771662
771872
772080
772284
772490
772698
772910
773120
773330
773542
773756
773962
774166
774374
774580
774784
774998
775200
775400
775600
775800
776000
776206
776408
776614
776820
777024
777228
777432
777634
777832
778036
778238
778438
778636
778836
779036
779236
779438
779638
779840
780046
780248
780442
780640
780838
781038
781242
781450
781656
781864
782074
782288
782498
782708
782912
783120
783326
783534
783744
783950
784152
784362
784574
784786
785000
785218
785440
785656
785858
786054
786252
786446
786648
786852
787056
787266
787476
787684
787890
788092
788292
788490
788686
788880
789074
789268
789468
789666
789866
790064
790266
790470
790674
790878
791084
791290
791496
791700
791908
792118
792328
792540
792750
792964
793176
793390
793606
793820
794028
794234
794440
794644
794848
795048
795246
795450
795654
795852
796050
796252
796454
796662
796870
797078
797290
797502
797714
797926
798138
798352
798566
798778
798988
799198
799404
799612
799814
800012
800208
800404
800596
800786
800978
801168
801358
801550
801744
801938
802132
802330
802530
802730
802928
803128
803328
803524
803720
803918
804112
804300
804490
804678
804866
805054
805242
805432
805622
805812
806000
806186
806372
806558
806742
806924
807110
807296
807490
807682
807876
808074
808274
808472
808670
808870
809072
809272
809476
809680
809884
810084
810282
810484
810684
810882
811082
811286
811490
811698
811910
812124
812340
812558
812768
812978
813188
813396
813598
813798
814000
814202
814402
814602
814808
815018
815226
815436
815648
815862
816076
816288
816498
816712
816920
817128
817338
817546
817748
817952
818160
818366
818570
818774
818984
819196
819404
819612
819828
820048
820276
820502
820724
820946
821178
821408
821642
821872
822096
822322
822554
822786
823014
823242
823472
823694
823910
824118
824322
824526
824732
824942
825154
825376
825600
825830
826056
826276
826490
826710
826936
827166
827394
827614
827836
828058
828290
828520
828744
828964
829192
829426
829672
829920
830164
830408
830654
830906
831156
831408
831654
831890
832120
832336
832546
832762
832986
833208
833432
833668
833908
834150
834394
834642
834886
835128
835372
835604
835842
836082
836330
836566
836802
837040
837286
837532
837780
838032
838284
838532
838782
839034
839278
839516
839754
839994
840226
840460
840694
840932
841158
841386
841614
841844
842072
842302
842530
842754
842972
843188
843408
843636
843862
844090
844322
844554
844786
845012
845238
845464
845694
845924
846158
846392
846630
846862
847100
847342
847590
847838
848084
848338
848594
848836
849088
849340
849584
849826
850064
850308
850544
850778
851014
851254
851490
851714
851934
852160
852384
852616
852860
853106
853350
853588
853812
854032
854258
854488
854718
854950
855180
855410
855648
855890
856126
856358
856596
856844
857100
857354
857606
857860
858108
858348
858586
858828
859072
859314
859558
859808
860068
860330
860592
860860
861120
861388
861654
861916
862180
862444
862712
862978
863230
863486
863744
863992
864240
864488
864734
864982
865230
865478
865738
865994
866250
866504
866754
867000
867250
867500
867752
867994
868238
868490
868742
868992
869244
869498
869750
870004
870256
870510
870758
871006
871244
871484
871726
871972
872228
872484
872730
872970
873208
873448
873682
873914
874150
874388
874622
874856
875096
875338
875584
875824
876062
876284
876506
876724
876944
877164
877390
877620
877852
878088
878324
878558
878788
879022
879252
879472
879692
879920
880152
880378
880600
880824
881050
881280
881518
881754
881984
882220
882454
882686
882922
883158
883390
883616
883840
884064
884298
884528
884762
885002
885240
885474
885706
885942
886176
886406
886632
886854
887074
887306
887542
887778
888012
888240
888466
888696
888932
889164
889388
889610
889826
890040
890252
890462
890678
890896
891116
891338
891568
891802
892032
892256
892480
892708
892944
893186
893422
893658
893886
894112
894340
894566
894786
895008
895228
895446
895658
895872
896088
896308
896540
896774
897002
897232
897468
897704
897936
898166
898394
898620
898844
899064
899280
899494
899712
899936
900166
900396
900628
900866
901094
901330
901568
901814
902056
902300
902548
902796
903038
903282
903528
903764
903992
904220
904448
904678
904910
905140
905368
905592
905816
906038
906256
906474
906700
906930
907160
907398
907638
907870
908108
908350
908592
908838
909084
909326
909570
909816
910058
910294
910532
910772
911016
911260
911500
911748
911996
912244
912494
912738
912978
913216
913442
913668
913898
914122
914352
914592
914828
915072
915320
915566
915818
916078
916342
916608
916874
917138
917396
917656
917908
918156
918402
918640
918876
919110
919348
919588
919834
920082
920332
920578
920818
921062
921302
921536
921770
922008
922252
922500
922750
923006
923260
923502
923728
923954
924178
924396
924622
924862
925114
925366
925618
925868
926112
926356
926604
926860
927116
927374
927630
927880
928120
928362
928608
928860
929114
929362
929608
929858
930108
930356
930600
930838
931074
931304
931522
931740
931966
932190
932426
932676
932932
933204
933476
933748
934024
934304
934584
934862
935134
935404
935666
935922
936172
936414
936654
936898
937142
937388
937632
937862
938092
938318
938538
938758
938982
939208
939424
939638
939854
940076
940300
940536
940778
941018
941260
941504
941742
941984
942218
942452
942682
942910
943136
943362
943584
943806
944024
944240
944448
944660
944880
945102
945322
945548
945776
946006
946236
946472
946702
946930
947160
947392
947616
947844
948070
948300
948524
948750
948980
949214
949442
949670
949898
950122
950340
950558
950766
950972
951174
951378
951584
951788
951994
952202
952404
952612
952824
953036
953248
953462
953668
953880
954096
954318
954554
954798
955062
955338
955626
955898
956154
956406
956646
956886
957132
957380
957622
957862
958092
958320
958544
958762
958972
959180
959382
959580
959778
959982
960188
960400
960620
960832
961054
961276
961496
961714
961930
962142
962352
962564
962782
963004
963234
963468
963696
963908
964120
964332
964552
964784
965024
965272
965522
965776
966024
966264
966504
966744
966978
967218
967458
967696
967938
968182
968420
968650
968868
969088
969308
969530
969752
969970
970186
970400
970612
970818
971022
971224
971424
971618
971814
972008
972200
972392
972586
972782
972976
973170
973366
973564
973764
973960
974158
974358
974558
974758
974958
975158
975358
975558
975754
975958
976164
976372
976578
976778
976972
977166
977360
977556
977754
977966
978184
978406
978638
978880
979120
979360
979606
979852
980108
980356
980592
980832
981068
981298
981520
981738
981958
982184
982418
982664
982902
983146
983392
983630
983870
984118
984362
984604
984844
985086
985322
985558
985796
986030
986262
986498
986730
986964
987196
987430
987664
987898
988130
988360
988594
988830
989066
989300
989534
989762
989992
990218
990438
990658
990878
991100
991320
991542
991764
991988
992210
992432
992652
992872
993090
993306
993524
993744
993962
994182
994404
994624
994844
995064
995286
995506
995726
995946
996168
996384
996604
996828
997046
997264
997484
997702
997922
998140
998360
998574
998790
999006
999220
999440
999664
999896
1000120
1000356
1000584
1000818
1001058
1001302
1001540
1001786
1002028
1002270
1002524
1002782
1003040
1003304
1003574
1003842
1004108
1004378
1004648
1004908
1005180
1005466
1005746
1006016
1006294
1006574
1006846
1007114
1007374
1007630
1007890
1008136
1008388
1008632
1008872
1009120
1009366
1009612
1009860
1010098
1010338
1010578
1010824
1011066
1011314
1011564
1011816
1012060
1012302
1012548
1012788
1013026
1013266
1013504
1013744
1013984
1014226
1014470
1014712
1014948
1015190
1015428
1015662
1015894
1016122
1016346
1016568
1016788
1017010
1017230
1017454
1017674
1017896
1018116
1018334
1018550
1018768
1018986
1019204
1019420
1019640
1019856
1020074
1020288
1020504
1020720
1020936
1021156
1021372
1021588
1021806
1022022
1022240
1022454
1022668
1022884
1023096
1023310
1023520
1023730
1023940
1024148
1024356
1024564
1024770
1024972
1025178
1025382
1025584
1025788
1025994
1026204
1026416
1026626
1026836
1027040
1027244
1027456
1027672
1027884
1028102
1028318
1028528
1028736
1028948
1029158
1029368
1029582
1029798
1030012
1030222
1030432
1030636
1030844
1031044
1031234
1031424
1031612
1031800
1031986
1032172
1032360
1032550
1032736
1032918
1033106
1033296
1033490
1033682
1033872
1034062
1034248
1034436
1034626
1034820
1035012
1035206
1035406
1035608
1035814
1036024
1036240
1036458
1036680
1036900
1037118
1037336
1037552
1037764
1037978
1038198
1038416
1038628
1038844
1039062
1039276
1039490
1039704
1039916
1040126
1040338
1040552
1040764
1040974
1041198
1041424
1041658
1041884
1042108
1042328
1042542
1042754
1042968
1043176
1043392
1043610
1043828
1044051
1044276
1044506
1044754
1045022
1045286
1045562
1045836
1046110
1046386
1046660
1046932
1047204
1047476
1047752
1048018
1048274
1048524
1048766
1049006
1049246
1049472
1049696
1049920
1050140
1050364
1050582
1050802
1051028
1051256
1051496
1051744
1051996
1052260
1052532
1052794
1053054
1053310
1053564
1053812
1054062
1054314
1054564
1054818
1055070
1055314
1055562
1055806
1056062
1056322
1056576
1056834
1057092
1057350
1057610
1057874
1058140
1058394
1058648
1058904
1059152
1059400
1059648
1059898
1060152
1060415
1060674
1060938
1061202
1061476
1061742
1062010
1062276
1062544
1062808
1063062
1063312
1063558
1063786
1064010
1064236
1064464
1064690
1064920
1065148
1065372
1065594
1065814
1066028
1066242
1066448
1066650
1066850
1067052
1067252
1067450
1067646
1067846
1068048
1068254
1068464
1068674
1068882
1069094
1069308
1069522
1069730
1069936
1070144
1070354
1070568
1070782
1070996
1071214
1071428
1071640
1071848
1072054
1072262
1072464
1072666
1072868
1073074
1073282
1073490
1073710
1073928
1074152
1074368
1074586
1074810
1075030
1075248
1075464
1075684
1075900
1076118
1076338
1076558
1076780
1077004
1077230
1077450
1077670
1077898
1078118
1078342
1078570
1078796
1079014
1079238
1079460
1079672
1079886
1080100
1080316
1080524
1080730
1080936
1081138
1081342
1081544
1081746
1081952
1082158
1082368
1082576
1082782
1082984
1083188
1083396
1083602
1083804
1084004
1084200
1084392
1084580
1084764
1084946
1085128
1085308
1085486
1085666
1085848
1086028
1086208
1086392
1086576
1086764
1086952
1087142
1087328
1087514
1087698
1087882
1088066
1088242
1088418
1088600
1088782
1088964
1089144
1089328
1089514
1089700
1089886
1090072
1090258
1090444
1090632
1090820
1091010
1091200
1091390
1091582
1091772
1091964
1092158
1092352
1092542
1092734
1092928
1093118
1093306
1093494
1093684
1093876
1094068
1094260
1094446
1094630
1094816
1095004
1095200
1095398
1095596
1095800
1096006
1096212
1096422
1096640
1096862
1097078
1097290
1097494
1097702
1097910
1098120
1098332
1098550
1098772
1099002
1099226
1099454
1099684
1099918
1100142
1100370
1100600
1100828
1101052
1101280
1101516
1101748
1101986
1102210
1102432
1102648
1102864
1103084
1103300
1103512
1103720
1103922
1104122
1104324
1104524
1104726
1104926
1105132
1105344
1105578
1105834
1106092
1106344
1106592
1106830
1107060
1107284
1107498
1107712
1107928
1108142
1108358
1108576
1108812
1109058
1109308
1109544
1109778
1110006
1110224
1110436
1110646
1110854
1111060
1111264
1111464
1111662
1111856
1112052
1112254
1112460
1112670
1112894
1113124
1113368
1113612
1113862
1114106
1114354
1114604
1114850
1115088
1115322
1115548
1115780
1116010
1116248
1116486
1116722
1116956
1117198
1117444
1117684
1117918
1118150
1118382
1118610
1118838
1119058
1119276
1119490
1119700
1119904
1120106
1120306
1120512
1120714
1120924
1121144
1121366
1121594
1121822
1122046
1122268
1122486
1122706
1122932
1123168
1123404
1123650
1123904
1124156
1124398
1124632
1124858
1125074
1125294
1125512
1125728
1125948
1126170
1126390
1126606
1126820
1127034
1127246
1127458
1127668
1127880
1128094
1128304
1128520
1128742
1128956
1129176
1129394
1129610
1129824
1130036
1130252
1130466
1130686
1130904
1131118
1131328
1131536
1131744
1131956
1132166
1132382
1132604
1132830
1133056
1133276
1133498
1133720
1133938
1134148
1134364
1134584
1134806
1135022
1135244
1135476
1135712
1135956
1136192
1136428
1136666
1136912
1137156
1137398
1137652
1137904
1138162
1138414
1138662
1138916
1139170
1139422
1139670
1139922
1140176
1140434
1140690
1140944
1141206
1141464
1141716
1141968
1142218
1142478
1142744
1143004
1143262
1143520
1143774
1144020
1144252
1144480
1144710
1144932
1145158
1145390
1145624
1145848
1146078
1146310
1146536
1146762
1146990
1147218
1147446
1147680
1147914
1148148
1148378
1148600
1148820
1149040
1149252
1149464
1149676
1149886
1150096
1150306
1150518
1150734
1150948
1151162
1151380
1151602
1151822
1152044
1152264
1152494
1152724
1152950
1153182
1153420
1153660
1153898
1154140
1154386
1154626
1154868
1155112
1155360
1155584
1155804
1156018
1156230
1156444
1156662
1156888
1157116
1157344
1157570
1157800
1158028
1158258
1158486
1158714
1158942
1159170
1159396
1159620
1159846
1160072
1160296
1160516
1160740
1160962
1161182
1161402
1161618
1161840
1162066
1162288
1162508
1162732
1162952
1163166
1163382
1163598
1163812
1164026
1164244
1164462
1164686
1164902
1165112
1165320
1165528
1165738
1165948
1166170
1166396
1166626
1166858
1167092
1167328
1167560
1167786
1168008
1168226
1168442
1168660
1168882
1169106
1169326
1169544
1169758
1169972
1170182
1170390
1170602
1170812
1171012
1171218
1171424
1171632
1171842
1172060
1172286
1172514
1172750
1172990
1173230
1173476
1173728
1173978
1174228
1174476
1174718
1174964
1175210
1175454
1175692
1175924
1176152
1176380
1176622
1176876
1177134
1177374
1177624
1177876
1178118
1178372
1178608
1178840
1179068
1179282
1179492
1179706
1179928
1180158
1180388
1180626
1180866
1181098
1181336
1181580
1181830
1182072
1182302
1182530
1182756
1182986
1183212
1183442
1183676
1183912
1184154
1184402
1184644
1184894
1185154
1185414
1185680
1185940
1186196
1186450
1186690
1186930
1187164
1187394
1187620
1187850
1188078
1188304
1188524
1188744
1188968
1189204
1189448
1189686
1189922
1190158
1190390
1190622
1190846
1191068
1191290
1191514
1191746
1191976
1192210
1192438
1192668
1192904
1193148
1193396
1193640
1193890
1194144
1194400
1194650
1194900
1195148
1195374
1195598
1195820
1196042
1196262
1196490
1196728
1196962
1197198
1197436
1197674
1197906
1198138
1198368
1198598
1198824
1199054
1199288
1199516
1199740
1199968
1200198
1200418
1200640
1200862
1201090
1201310
1201528
1201744
1201958
1202170
1202384
1202600
1202818
1203036
1203266
1203502
1203740
1203974
1204206
1204432
1204652
1204870
1205094
1205322
1205544
1205774
1206010
1206250
1206486
1206722
1206954
1207186
1207414
1207644
1207878
1208114
1208346
1208584
1208830
1209068
1209306
1209548
1209792
1210032
1210282
1210534
1210792
1211040
1211288
1211534
1211772
1212000
1212224
1212450
1212672
1212900
1213132
1213368
1213596
1213832
1214072
1214310
1214546
1214784
1215016
1215236
1215450
1215664
1215878
1216092
1216310
1216534
1216750
1216970
1217196
1217422
1217642
1217870
1218102
1218334
1218560
1218788
1219018
1219244
1219464
1219678
1219890
1220106
1220328
1220556
1220786
1221012
1221224
1221434
1221644
1221856
1222066
1222276
1222492
1222722
1222946
1223172
1223400
1223626
1223848
1224070
1224292
1224510
1224726
1224950
1225180
1225412
1225646
1225884
1226118
1226354
1226592
1226828
1227058
1227286
1227506
1227718
1227930
1228144
1228358
1228580
1228808
1229040
1229284
1229532
1229766
1229998
1230234
1230464
1230694
1230930
1231172
1231410
1231638
1231862
1232088
1232314
1232538
1232758
1232980
1233206
1233428
1233646
1233868
1234094
1234308
1234528
1234754
1234984
1235218
1235450
1235680
1235916
1236150
1236378
1236604
1236820
1237032
1237240
1237450
1237664
1237882
1238108
1238330
1238552
1238772
1239002
1239226
1239440
1239658
1239872
1240082
1240290
1240492
1240694
1240900
1241116
1241340
1241566
1241800
1242028
1242250
1242470
1242684
1242898
1243110
1243328
1243544
1243754
1243966
1244172
1244380
1244590
1244800
1245012
1245224
1245428
1245632
1245838
1246044
1246250
1246456
1246668
1246882
1247088
1247292
1247496
1247698
1247898
1248102
1248310
1248522
1248730
1248936
1249142
1249348
1249552
1249756
1249962
1250172
1250384
1250590
1250796
1251004
1251210
1251414
1251618
1251824
1252030
1252242
1252452
1252658
1252862
1253066
1253272
1253476
1253680
1253890
1254104
1254310
1254514
1254720
1254928
1255138
1255348
1255558
1255766
1255970
1256168
1256368
1256568
1256764
1256962
1257162
1257366
1257568
1257780
1257994
1258210
1258426
1258642
1258860
1259080
1259298
1259520
1259746
1259976
1260202
1260434
1260662
1260892
1261116
1261344
1261574
1261806
1262030
1262258
1262494
1262732
1262962
1263196
1263434
1263664
1263892
1264114
1264324
1264532
1264748
1264970
1265196
1265430
1265672
1265906
1266138
1266362
1266586
1266802
1267022
1267238
1267448
1267660
1267870
1268076
1268282
1268486
1268690
1268896
1269112
1269336
1269560
1269790
1270020
1270246
1270470
1270690
1270916
1271138
1271362
1271586
1271818
1272044
1272272
1272498
1272716
1272936
1273154
1273382
1273610
1273832
1274064
1274302
1274538
1274778
1275020
1275268
1275512
1275754
1276000
1276252
1276500
1276752
1277014
1277272
1277518
1277768
1278018
1278266
1278522
1278776
1279018
1279260
1279504
1279742
1279972
1280200
1280428
1280660
1280884
1281108
1281338
1281558
1281778
1282000
1282226
1282450
1282668
1282884
1283096
1283310
1283528
1283736
1283950
1284168
1284380
1284596
1284820
1285048
1285272
1285506
1285740
1285970
1286200
1286438
1286678
1286910
1287144
1287378
1287608
1287838
1288066
1288298
1288522
1288734
1288942
1289154
1289378
1289610
1289850
1290096
1290332
1290570
1290808
1291040
1291264
1291486
1291706
1291924
1292138
1292354
1292568
1292790
1293014
1293244
1293476
1293700
1293924
1294154
1294380
1294604
1294836
1295072
1295306
1295544
1295782
1296020
1296260
1296504
1296744
1296984
1297218
1297440
1297658
1297880
1298096
1298314
1298538
1298758
1298974
1299190
1299410
1299626
1299854
1300094
1300334
1300568
1300806
1301038
1301262
1301486
1301710
1301930
1302152
1302378
1302608
1302830
1303052
1303272
1303490
1303712
1303938
1304176
1304406
1304642
1304878
1305096
1305312
1305522
1305732
1305934
1306136
1306342
1306554
1306768
1306982
1307204
1307420
1307638
1307864
1308090
1308316
1308546
1308776
1309002
1309228
1309450
1309674
1309892
1310106
1310326
1310544
1310770
1311002
1311238
1311490
1311752
1312016
1312278
1312548
1312816
1313082
1313344
1313608
1313868
1314118
1314370
1314624
1314866
1315106
1315348
1315586
1315824
1316066
1316306
1316550
1316782
1317000
1317208
1317406
1317598
1317788
1317976
1318164
1318346
1318530
1318716
1318904
1319092
1319282
1319476
1319672
1319868
1320070
1320270
1320468
1320662
1320860
1321058
1321254
1321454
1321652
1321854
1322052
1322254
1322458
1322662
1322860
1323060
1323260
1323454
1323642
1323832
1324024
1324216
1324414
1324604
1324794
1324980
1325166
1325348
1325532
1325716
1325900
1326082
1326262
1326440
1326618
1326794
1326968
1327142
1327316
1327492
1327668
1327846
1328026
1328208
1328388
1328572
1328758
1328942
1329124
1329306
1329484
1329662
1329840
1330014
1330192
1330370
1330548
1330730
1330914
1331100
1331284
1331472
1331658
1331846
1332034
1332230
1332422
1332614
1332810
1333006
1333200
1333394
1333592
1333790
1333984
1334182
1334382
1334578
1334772
1334968
1335162
1335354
1335548
1335740
1335934
1336126
1336316
1336508
1336702
1336894
1337092
1337296
1337510
1337722
1337932
1338136
1338342
1338550
1338752
1338952
1339150
1339350
1339548
1339748
1339952
1340158
1340364
1340578
1340810
1341056
1341298
1341530
1341762
1341998
1342246
1342494
1342732
1342972
1343220
1343472
1343720
1343966
1344218
1344468
1344710
1344952
1345196
1345432
1345670
1345908
1346136
1346366
1346596
1346824
1347056
1347284
1347514
1347744
1347970
1348204
1348448
1348694
1348930
1349166
1349414
1349656
1349886
1350116
1350346
1350572
1350802
1351046
1351292
1351534
1351780
1352024
1352260
1352498
1352734
1352960
1353190
1353420
1353648
1353874
1354108
1354344
1354578
1354812
1355046
1355280
1355522
1355772
1356020
1356264
1356512
1356768
1357016
1357266
1357518
1357758
1358000
1358252
1358502
1358756
1359016
1359268
1359514
1359766
1360020
1360266
1360514
1360762
1361002
1361240
1361490
1361750
1362004
1362246
1362500
1362760
1363008
1363256
1363514
1363762
1364006
1364246
1364482
1364722
1364966
1365212
1365454
1365700
1365954
1366206
1366448
1366690
1366940
1367192
1367438
1367686
1367938
1368188
1368426
1368668
1368918
1369162
1369410
1369666
1369916
1370162
1370412
1370662
1370906
1371152
1371390
1371618
1371850
1372088
1372342
1372592
1372846
1373114
1373374
1373640
1373910
1374170
1374426
1374684
1374946
1375194
1375446
1375704
1375958
1376206
1376458
1376720
1376982
1377236
1377482
1377724
1377960
1378196
1378434
1378664
1378902
1379150
1379396
1379642
1379890
1380126
1380354
1380586
1380816
1381050
1381290
1381524
1381748
1381972
1382192
1382406
1382630
1382858
1383082
1383310
1383542
1383766
1383986
1384206
1384430
1384654
1384882
1385110
1385334
1385560
1385786
1386018
1386246
1386480
1386712
1386942
1387172
1387398
1387620
1387840
1388052
1388258
1388462
1388662
1388864
1389076
1389294
1389518
1389742
1389962
1390174
1390384
1390596
1390804
1391010
1391220
1391434
1391648
1391864
1392082
1392302
1392526
1392752
1392978
1393204
1393434
1393662
1393890
1394120
1394352
1394568
1394782
1394990
1395194
1395394
1395598
1395800
1396006
1396212
1396420
1396632
1396842
1397052
1397262
1397476
1397694
1397910
1398128
1398346
1398558
1398770
1398980
1399190
1399402
1399614
1399826
1400040
1400252
1400460
1400672
1400890
1401110
1401328
1401548
1401764
1401978
1402194
1402400
1402606
1402810
1403018
1403226
1403432
1403638
1403846
1404058
1404270
1404486
1404704
1404922
1405140
1405348
1405556
1405764
1405970
1406178
1406382
1406586
1406788
1406996
1407206
1407418
1407632
1407850
1408070
1408284
1408498
1408712
1408926
1409140
1409350
1409558
1409764
1409972
1410184
1410384
1410580
1410778
1410976
1411178
1411384
1411596
1411808
1412020
1412234
1412444
1412656
1412866
1413074
1413274
1413476
1413678
1413880
1414092
1414308
1414526
1414740
1414950
1415160
1415370
1415588
1415814
1416042
1416268
1416498
1416730
1416966
1417198
1417428
1417660
1417898
1418120
1418344
1418574
1418804
1419026
1419258
1419488
1419716
1419942
1420172
1420402
1420628
1420856
1421084
1421316
1421542
1421772
1422000
1422234
1422464
1422696
1422930
1423164
1423392
1423624
1423860
1424092
1424322
1424552
1424782
1425008
1425236
1425470
1425708
1425942
1426172
1426404
1426636
1426866
1427092
1427326
1427562
1427794
1428028
1428266
1428506
1428746
1428992
1429242
1429486
1429730
1429974
1430224
1430466
1430708
1430956
1431192
1431418
1431646
1431880
1432114
1432354
1432596
1432840
1433080
1433322
1433564
1433806
1434042
1434280
1434524
1434766
1435006
1435248
1435494
1435736
1435976
1436222
1436466
1436702
1436936
1437176
1437422
1437662
1437904
1438158
1438416
1438672
1438934
1439196
1439458
1439712
1439970
1440228
1440482
1440736
1440992
1441252
1441508
1441764
1442018
1442270
1442516
1442760
1443016
1443260
1443500
1443744
1443996
1444250
1444508
1444766
1445012
1445254
1445494
1445734
1445968
1446194
1446416
1446640
1446872
1447102
1447344
1447582
1447828
1448078
1448324
1448562
1448810
1449062
1449308
1449554
1449800
1450042
1450280
1450502
1450718
1450934
1451154
1451372
1451600
1451832
1452070
1452308
1452542
1452774
1453000
1453220
1453434
1453640
1453842
1454048
1454254
1454462
1454674
1454894
1455118
1455354
1455594
1455838
1456088
1456336
1456578
1456812
1457040
1457262
1457484
1457704
1457918
1458130
1458344
1458560
1458782
1459016
1459258
1459510
1459762
1460000
1460234
1460468
1460702
1460938
1461180
1461422
1461672
1461922
1462170
1462406
1462632
1462856
1463080
1463302
1463522
1463742
1463962
1464174
1464392
1464614
1464840
1465074
1465316
1465556
1465790
1466018
1466244
1466466
1466686
1466904
1467128
1467360
1467590
1467824
1468058
1468298
1468524
1468740
1468950
1469160
1469376
1469604
1469844
1470088
1470340
1470592
1470836
1471070
1471302
1471536
1471774
1472012
1472254
1472504
1472758
1473002
1473246
1473488
1473722
1473948
1474170
1474392
1474618
1474838
1475066
1475294
1475528
1475760
1475996
1476232
1476464
1476700
1476942
1477188
1477436
1477688
1477940
1478190
1478434
1478674
1478912
1479146
1479370
1479590
1479818
1480048
1480276
1480512
1480760
1481002
1481246
1481486
1481718
1481944
1482166
1482380
1482594
1482810
1483026
1483248
1483460
1483674
1483890
1484110
1484332
1484554
1484780
1485006
1485236
1485470
1485708
1485942
1486182
1486418
1486654
1486884
1487114
1487342
1487570
1487794
1488012
1488232
1488458
1488688
1488924
1489160
1489394
1489618
1489848
1490078
1490314
1490552
1490784
1491014
1491242
1491464
1491682
1491902
1492124
1492348
1492576
1492810
1493046
1493286
1493528
1493774
1494020
1494264
1494508
1494750
1494980
1495212
1495442
1495676
1495906
1496134
1496366
1496604
1496844
1497076
1497310
1497546
1497782
1498018
1498246
1498474
1498700
1498928
1499154
1499374
1499590
1499806
1500030
1500268
1500514
1500772
1501034
1501298
1501558
1501812
1502050
1502282
1502512
1502740
1502974
1503210
1503450
1503690
1503922
1504152
1504382
1504612
1504846
1505080
1505316
1505556
1505798
1506042
1506294
1506548
1506802
1507058
1507314
1507562
1507808
1508058
1508304
1508558
1508814
1509062
1509314
1509572
1509804
1510034
1510262
1510488
1510722
1510962
1511208
1511464
1511712
1511940
1512166
1512390
1512616
1512842
1513070
1513294
1513530
1513762
1513992
1514226
1514460
1514680
1514896
1515114
1515336
1515556
1515778
1516006
1516230
1516458
1516690
1516926
1517166
1517394
1517624
1517858
1518094
1518334
1518566
1518792
1519012
1519236
1519460
1519682
1519902
1520118
1520326
1520534
1520744
1520952
1521160
1521372
1521592
1521814
1522038
1522260
1522484
1522700
1522914
1523126
1523340
1523562
1523786
1524012
1524246
1524486
1524726
1524960
1525196
1525434
1525670
1525902
1526134
1526368
1526596
1526822
1527050
1527278
1527502
1527724
1527942
1528160
1528376
1528598
1528824
1529036
1529254
1529476
1529688
1529904
1530124
1530346
1530572
1530790
1531012
1531232
1531448
1531664
1531878
1532090
1532304
1532520
1532732
1532946
1533162
1533382
1533612
1533848
1534082
1534322
1534556
1534780
1535002
1535218
1535436
1535658
1535882
1536104
1536326
1536552
1536772
1536996
1537218
1537446
1537674
1537906
1538130
1538358
1538586
1538814
1539046
1539278
1539510
1539738
1539968
1540200
1540432
1540664
1540888
1541114
1541346
1541576
1541808
1542034
1542262
1542490
1542710
1542928
1543152
1543376
1543598
1543820
1544046
1544276
1544502
1544730
1544958
1545188
1545418
1545654
1545888
1546114
1546336
1546564
1546796
1547026
1547256
1547490
1547724
1547960
1548184
1548412
1548642
1548876
1549108
1549340
1549570
1549804
1550040
1550280
1550516
1550756
1550998
1551240
1551480
1551716
1551948
1552178
1552402
1552628
1552852
1553084
1553320
1553560
1553802
1554028
1554252
1554480
1554708
1554932
1555162
1555398
1555634
1555876
1556124
1556358
1556590
1556822
1557056
1557296
1557540
1557794
1558052
1558306
1558560
1558820
1559076
1559328
1559584
1559840
1560096
1560348
1560598
1560850
1561100
1561340
1561582
1561826
1562066
1562304
1562536
1562770
1563006
1563232
1563460
1563696
1563930
1564170
1564416
1564656
1564900
1565142
1565388
1565628
1565870
1566116
1566354
1566596
1566836
1567078
1567314
1567556
1567796
1568040
1568280
1568518
1568764
1569008
1569252
1569500
1569752
1569996
1570238
1570482
1570722
1570956
1571194
1571430
1571658
1571882
1572108
1572326
1572542
1572754
1572960
1573168
1573382
1573602
1573830
1574046
1574268
1574492
1574720
1574944
1575164
1575392
1575624
1575850
1576080
1576314
1576550
1576780
1577012
1577248
1577492
1577734
1577976
1578216
1578452
1578680
1578910
1579144
1579368
1579586
1579806
1580028
1580256
1580492
1580722
1580958
1581198
1581434
1581674
1581918
1582164
1582398
1582638
1582880
1583118
1583350
1583574
1583792
1584012
1584228
1584440
1584654
1584868
1585078
1585288
1585498
1585704
1585906
1586112
1586312
1586514
1586714
1586912
1587106
1587296
1587486
1587672
1587854
1588036
1588218
1588400
1588580
1588762
1588946
1589132
1589316
1589500
1589692
1589886
1590086
1590294
1590498
1590698
1590894
1591090
1591284
1591478
1591670
1591864
1592056
1592252
1592454
1592662
1592872
1593088
1593304
1593520
1593734
1593944
1594158
1594370
1594582
1594798
1595010
1595216
1595420
1595620
1595816
1596012
1596206
1596406
1596604
1596808
1597014
1597222
1597426
1597634
1597844
1598048
1598252
1598460
1598666
1598870
1599066
1599266
1599462
1599652
1599844
1600032
1600218
1600408
1600600
1600800
1601000
1601204
1601410
1601610
1601814
1602020
1602232
1602448
1602662
1602880
1603100
1603320
1603538
1603754
1603968
1604178
1604384
1604586
1604786
1604990
1605192
1605404
1605624
1605848
1606070
1606286
1606504
1606718
1606934
1607152
1607364
1607580
1607800
1608022
1608242
1608462
1608676
1608888
1609098
1609302
1609506
1609716
1609930
1610144
1610354
1610566
1610790
1611014
1611242
1611472
1611702
1611930
1612156
1612380
1612604
1612828
1613048
1613268
1613488
1613708
1613928
1614148
1614368
1614592
1614822
1615052
1615278
1615506
1615730
1615954
1616178
1616410
1616642
1616878
1617124
1617374
1617626
1617868
1618110
1618354
1618594
1618834
1619066
1619298
1619534
1619770
1620008
1620252
1620498
1620742
1620988
1621236
1621494
1621746
1622002
1622262
1622516
1622774
1623034
1623286
1623534
1623784
1624036
1624280
1624512
1624742
1624972
1625204
1625438
1625676
1625914
1626158
1626396
1626644
1626896
1627156
1627412
1627664
1627914
1628158
1628408
1628664
1628910
1629144
1629380
1629622
1629858
1630110
1630366
1630622
1630874
1631128
1631380
1631640
1631898
1632150
1632396
1632626
1632850
1633076
1633306
1633536
1633772
1634010
1634254
1634482
1634710
1634938
1635178
1635414
1635644
1635880
1636110
1636336
1636562
1636788
1637016
1637246
1637480
1637718
1637958
1638198
1638436
1638666
1638894
1639122
1639346
1639566
1639786
1640000
1640214
1640436
1640662
1640896
1641134
1641376
1641624
1641868
1642112
1642358
1642588
1642816
1643034
1643256
1643474
1643696
1643918
1644142
1644376
1644606
1644824
1645042
1645260
1645480
1645702
1645930
1646164
1646402
1646640
1646876
1647108
1647342
1647576
1647804
1648040
1648276
1648492
1648712
1648928
1649140
1649354
1649568
1649778
1649982
1650190
1650398
1650600
1650804
1651008
1651214
1651420
1651630
1651844
1652070
1652300
1652532
1652760
1652988
1653210
1653424
1653646
1653870
1654096
1654324
1654558
1654792
1655028
1655266
1655506
1655738
1655966
1656194
1656422
1656644
1656864
1657086
1657310
1657526
1657742
1657962
1658180
1658398
1658610
1658820
1659024
1659224
1659428
1659634
1659840
1660054
1660268
1660472
1660670
1660866
1661058
1661252
1661450
1661654
1661854
1662054
1662260
1662472
1662686
1662908
1663134
1663364
1663586
1663816
1664046
1664270
1664494
1664718
1664934
1665152
1665370
1665588
1665808
1666028
1666252
1666480
1666710
1666940
1667168
1667400
1667638
1667874
1668110
1668342
1668568
1668778
1668988
1669192
1669392
1669590
1669792
1669998
1670214
1670438
1670658
1670876
1671102
1671330
1671560
1671792
1672014
1672234
1672456
1672672
1672882
1673092
1673296
1673494
1673686
1673878
1674074
1674272
1674468
1674662
1674854
1675054
1675264
1675490
1675724
1675966
1676214
1676462
1676706
1676952
1677194
1677436
1677674
1677900
1678120
1678334
1678544
1678754
1678962
1679174
1679390
1679610
1679830
1680054
1680286
1680516
1680744
1680976
1681204
1681428
1681654
1681882
1682108
1682336
1682562
1682782
1683004
1683230
1683452
1683670
1683884
1684098
1684306
1684518
1684730
1684938
1685148
1685362
1685574
1685786
1685994
1686202
1686414
1686626
1686842
1687058
1687272
1687490
1687714
1687928
1688144
1688360
1688572
1688780
1688986
1689192
1689398
1689600
1689802
1690004
1690206
1690412
1690622
1690832
1691046
1691262
1691480
1691694
1691910
1692126
1692336
1692542
1692744
1692944
1693144
1693342
1693540
1693734
1693932
1694130
1694328
1694526
1694728
1694934
1695136
1695342
1695550
1695754
1695960
1696168
1696376
1696578
1696784
1696988
1697196
1697400
1697608
1697820
1698030
1698242
1698456
1698670
1698886
1699104
1699324
1699542
1699756
1699968
1700178
1700384
1700586
1700782
1700974
1701166
1701360
1701554
1701754
1701962
1702174
1702394
1702630
1702852
1703080
1703306
1703528
1703740
1703952
1704164
1704370
1704576
1704786
1704990
1705192
1705398
1705600
1705800
1706004
1706210
1706418
1706622
1706826
1707028
1707230
1707426
1707620
1707812
1708002
1708190
1708382
1708574
1708764
1708962
1709160
1709362
1709560
1709764
1709970
1710174
1710376
1710582
1710790
1710996
1711202
1711410
1711614
1711818
1712024
1712226
1712430
1712638
1712844
1713048
1713252
1713458
1713664
1713868
1714070
1714276
1714476
1714676
1714872
1715070
1715262
1715452
1715638
1715824
1716010
1716196
1716382
1716568
1716756
1716942
1717126
1717312
1717496
1717682
1717864
1718050
1718232
1718416
1718600
1718784
1718968
1719152
1719336
1719520
1719702
1719886
1720068
1720248
1720426
1720606
1720788
1720970
1721152
1721334
1721518
1721702
1721886
1722070
1722258
1722442
1722626
1722810
1722996
1723180
1723362
1723546
1723732
1723922
1724118
1724318
1724522
1724726
1724934
1725140
1725342
1725548
1725756
1725964
1726166
1726368
1726570
1726770
1726968
1727166
1727360
1727556
1727752
1727946
1728140
1728336
1728536
1728730
1728922
1729116
1729308
1729498
1729688
1729882
1730074
1730268
1730464
1730660
1730854
1731044
1731234
1731420
1731608
1731796
1731986
1732178
1732368
1732558
1732752
1732944
1733136
1733330
1733524
1733718
1733908
1734098
1734282
1734466
1734646
1734828
1735010
1735192
1735374
1735558
1735748
1735936
1736128
1736328
1736532
1736736
1736940
1737148
1737346
1737540
1737734
1737926
1738110
1738296
1738482
1738670
1738860
1739050
1739244
1739440
1739640
1739838
1740040
1740248
1740458
1740672
1740882
1741094
1741302
1741512
1741726
1741938
1742146
1742354
1742564
1742772
1742978
1743186
1743388
1743584
1743782
1743972
1744162
1744352
1744546
1744736
1744930
1745126
1745328
1745530
1745734
1745942
1746148
1746356
1746564
1746768
1746972
1747174
1747376
1747576
1747778
1747984
1748194
1748406
1748614
1748826
1749038
1749248
1749460
1749674
1749884
1750094
1750302
1750510
1750714
1750912
1751110
1751308
1751504
1751704
1751904
1752108
1752314
1752524
1752738
1752956
1753172
1753390
1753610
1753830
1754040
1754256
1754472
1754692
1754908
1755128
1755348
1755566
1755782
1756000
1756218
1756438
1756652
1756872
1757092
1757314
1757530
1757748
1757970
1758194
1758412
1758630
1758850
1759072
1759286
1759500
1759712
1759924
1760130
1760334
1760532
1760732
1760932
1761134
1761338
1761544
1761750
1761960
1762170
1762382
1762598
1762814
1763034
1763258
1763482
1763708
1763928
1764144
1764356
1764570
1764782
1764998
1765218
1765430
1765642
1765856
1766070
1766284
1766510
1766748
1766982
1767226
1767478
1767724
1767966
1768218
1768472
1768718
1768970
1769222
1769474
1769724
1769972
1770218
1770456
1770698
1770942
1771188
1771430
1771674
1771922
1772166
1772400
1772628
1772850
1773068
1773284
1773496
1773708
1773922
1774134
1774354
1774578
1774802
1775028
1775256
1775486
1775714
1775944
1776170
1776398
1776636
1776870
1777104
1777344
1777582
1777812
1778036
1778262
1778492
1778726
1778960
1779204
1779456
1779712
1779970
1780228
1780486
1780734
1780982
1781222
1781456
1781692
1781926
1782162
1782400
1782640
1782882
1783124
1783366
1783608
1783856
1784092
1784330
1784564
1784792
1785010
1785228
1785452
1785666
1785882
1786094
1786306
1786514
1786718
1786920
1787122
1787320
1787520
1787722
1787924
1788132
1788344
1788558
1788774
1788994
1789216
1789438
1789668
1789894
1790124
1790354
1790576
1790798
1791024
1791246
1791464
1791690
1791916
1792142
1792374
1792610
1792830
1793052
1793280
1793510
1793732
1793958
1794184
1794400
1794624
1794844
1795056
1795268
1795480
1795686
1795890
1796096
1796302
1796502
1796708
1796914
1797120
1797324
1797534
1797740
1797940
1798144
1798348
1798546
1798750
1798954
1799154
1799354
1799562
1799762
1799964
