peaks
27
318
614
878
1136
1406
1688
1960
2250
2534
2800
3078
3348
3628
3924
4218
4506
4784
5048
5318
5576
5852
6144
6426
6702
6960
7228
7518
7796
8090
8380
8642
8928
9206
9466
9726
9998
10280
10562
10838
11086
11354
11610
11886
12168
12444
12720
13002
13282
13554
13808
14058
14324
14592
14868
15120
15396
15684
15958
16236
16512
16786
17068
17354
17614
17896
18168
18456
18722
19012
19310
19600
19878
20170
20460
20756
21034
21328
21618
21914
22210
22488
22782
23070
23342
23630
23914
24198
24482
24750
25028
25308
25564
25824
26104
26374
26652
26942
27234
27514
27800
28094
28382
28668
28958
29248
29530
29818
30108
30384
30666
30922
31208
31488
31772
32044
32316
32594
32876
33136
33408
33676
33956
34220
34498
34782
35050
35336
35620
35890
36170
36444
36720
36978
37252
37526
37792
38038
38278
38536
38774
39028
39310
39562
39828
40108
40384
40656
40924
41198
41466
41730
41982
42208
42423
42662
42908
43156
43382
43620
43868
44106
44320
44546
44780
44994
45214
45436
45680
45914
46152
46396
46622
46846
47076
47322
47556
47792
48014
48244
48482
48726
48946
49180
49422
49688
49946
50210
50478
50732
50994
51244
51506
51774
52042
52308
52572
52828
53090
53356
53616
53868
54134
54400
54656
54920
55174
55404
55654
55910
56172
56428
56658
56908
57162
57394
57644
57908
58170
58416
58676
58922
59174
59412
59674
59914
60148
60393
60620
60866
61126
61382
61642
61904
62164
62410
62670
62938
63188
63454
63718
63970
64236
64502
64742
64972
65206
65458
65710
65950
66206
66434
66670
66932
67210
67484
67720
67968
68212
68446
68700
68952
69204
69450
69710
69978
70230
70486
70762
71040
71298
71570
71838
72122
72420
72732
73036
73302
73586
73846
74128
74420
74674
74944
75240
75542
75834
76084
76346
76634
76932
77196
77486
77784
78056
78342
78636
78894
79152
79438
79730
80026
80324
80620
80908
81170
81440
81704
81978
82256
82534
82798
83072
83356
83644
83930
84206
84504
84798
85094
85374
85672
85974
86252
86542
86842
87140
87426
87706
87996
88270
88546
88838
89130
89402
89676
89956
90248
90530
90812
91072
91332
91598
91856
92132
92390
92666
92940
93214
93472
93746
94030
94292
94572
94860
95126
95412
95696
95974
96246
96528
96810
97094
97368
97626
97896
98174
98442
98716
98988
99236
99498
99778
100044
100322
100588
100844
101120
101396
101664
101926
102206
102482
102752
103030
103312
103592
103886
104176
104462
104744
105032
105322
105592
105880
106172
106434
106706
106986
107248
107524
107806
108082
108344
108620
108908
109198
109462
109736
110016
110298
110580
110856
111142
111410
111678
111962
112258
112546
112834
113110
113392
113664
113942
114220
114494
114772
115048
115324
115602
115888
116164
116436
116696
116960
117208
117438
117668
117924
118200
118476
118736
119002
119262
119532
119808
120072
120348
120624
120902
121168
121438
121720
121992
122252
122522
122792
123066
123342
123608
123898
124188
124460
124746
125032
125308
125568
125842
126122
126394
126640
126896
127154
127422
127700
127968
128232
128504
128780
129040
129310
129592
129870
130144
130428
130714
130994
131282
131572
131850
132144
132434
132712
132994
133272
133536
133791
134009
134234
134449
134674
134896
135124
135338
135558
135782
135998
136230
136464
136694
136936
137170
137418
137668
137916
138164
138418
138658
138916
139170
139420
139674
139918
140180
140434
140698
140964
141220
141486
141751
142011
142256
142518
142762
142998
143242
143468
143670
143874
144072
144270
144486
144720
144956
145190
145432
145678
145924
146192
146450
146704
146974
147226
147494
147748
147962
148190
148436
148676
148905
149154
149382
149608
149846
150068
150306
150544
150786
151036
151274
151514
151738
151970
152214
152460
152712
152958
153202
153458
153716
153968
154230
154490
154740
154980
155226
155478
155734
155982
156226
156458
156702
156934
157176
157424
157664
157882
158110
158360
158616
158876
159122
159374
159624
159856
160090
160338
160582
160842
161084
161328
161574
161818
162038
162254
162486
162726
162966
163198
163432
163670
163920
164154
164392
164624
164874
165118
165366
165614
165866
166126
166378
166624
166876
167128
167364
167592
167818
168056
168308
168542
168768
169022
169260
169508
169772
170016
170272
170508
170756
170998
171248
171494
171744
171986
172236
172486
172724
172972
173230
173492
173750
174028
174292
174550
174806
175050
175290
175536
175794
176032
176266
176492
176708
176926
177132
177366
177614
177862
178090
178330
178563
178784
179016
179244
179486
179732
179970
180194
180438
180678
180906
181138
181382
181630
181870
182104
182361
182590
182832
183056
183296
183538
183780
184000
184232
184456
184680
184908
185140
185383
185601
185834
186068
186296
186532
186788
187022
187270
187502
187750
187992
188234
188458
188706
188956
189200
189430
189670
189926
190184
190414
190662
190918
191166
191408
191654
191908
192164
192398
192614
192822
193046
193254
193466
193694
193932
194174
194410
194646
194880
195112
195350
195582
195812
196050
196270
196500
196736
196964
197208
197428
197664
197888
198124
198364
198580
198792
199028
199266
199490
199720
199930
200138
200348
200574
200814
201054
201264
201482
201704
201928
202148
202388
202628
202864
203108
203340
203586
203806
204024
204246
204484
204724
204950
205174
205414
205638
205874
206098
206344
206574
206814
207044
207286
207540
207792
208044
208286
208518
208752
209008
209246
209500
209758
210002
210266
210518
210784
211028
211292
211570
211838
212112
212370
212640
212916
213168
213434
213680
213938
214202
214458
214724
214978
215222
215480
215744
216004
216276
216528
216793
217030
217277
217520
217778
218036
218296
218558
218826
219082
219348
219626
219908
220160
220420
220692
220948
221214
221468
221720
221984
222232
222482
222738
223004
223260
223514
223760
224018
224282
224544
224812
225070
225314
225562
225804
226050
226310
226550
226800
227046
227314
227584
227842
228092
228360
228632
228900
229164
229414
229670
229924
230170
230426
230668
230914
231178
231420
231676
231936
232176
232418
232674
232938
233176
233436
233676
233930
234192
234452
234716
234968
235226
235494
235760
236014
236274
236524
236772
237034
237294
237552
237810
238058
238316
238580
238832
239096
239364
239616
239880
240128
240388
240650
240896
241142
241394
241638
241880
242134
242370
242618
242852
243084
243314
243560
243800
244046
244310
244554
244818
245072
245326
245586
245836
246096
246344
246600
246850
247094
247350
247592
247846
248096
248352
248610
248864
249118
249380
249648
249914
250164
250424
250682
250950
251208
251442
251688
251940
252194
252450
252692
252940
253196
253442
253678
253922
254174
254424
254676
254920
255170
255400
255644
255868
256104
256350
256578
256824
257062
257312
257570
257818
258056
258304
258554
258780
259002
259238
259486
259742
259988
260240
260472
260704
260942
261182
261422
261650
261884
262118
262362
262606
262844
263092
263322
263570
263814
264066
264308
264554
264802
265032
265280
265516
265744
265980
266228
266460
266702
266946
267188
267442
267690
267938
268190
268438
268698
268970
269230
269492
269736
269988
270246
270508
270744
270988
271238
271486
271722
271960
272204
272446
272674
272914
273174
273434
273686
273934
274188
274439
274701
274950
275204
275468
275716
275978
276236
276476
276722
276966
277220
277474
277718
277967
278212
278442
278670
278908
279142
279364
279604
279844
280094
280348
280586
280822
281074
281306
281544
281784
282020
282244
282486
282736
282984
283244
283502
283738
283974
284220
284470
284710
284942
285186
285420
285652
285898
286150
286400
286658
286890
287132
287384
287648
287908
288156
288416
288668
288932
289200
289462
289740
290002
290274
290548
290822
291102
291382
291638
291900
292146
292406
292678
292948
293194
293450
293710
293970
294236
294486
294754
295012
295274
295538
295796
296060
296316
296596
296866
297146
297414
297686
297962
298244
298514
298792
299066
299340
299624
299898
300184
300450
300734
301008
301282
301546
301812
302060
302324
302576
302836
303104
303374
303636
303910
304178
304440
304702
304962
305220
305480
305744
305984
306232
306476
306728
306974
307214
307464
307718
307954
308200
308456
308716
308960
309214
309468
309720
309974
310235
310486
310740
310992
311240
311504
311760
312026
312300
312550
312820
313092
313368
313638
313916
314190
314454
314720
314990
315262
315528
315798
316066
316322
316588
316848
317100
317350
317602
317868
318140
318392
318658
318928
319190
319458
319714
319986
320260
320530
320812
321086
321338
321638
321918
322208
322476
322758
323032
323308
323584
323858
324138
324424
324690
324968
325242
325510
325790
326052
326324
326600
326860
327130
327406
327678
327962
328240
328510
328780
329056
329328
329600
329880
330160
330422
330696
330954
331218
331484
331738
332004
332256
332522
332788
333048
333310
333570
333836
334100
334362
334626
334892
335150
335410
335680
335950
336216
336488
336756
337032
337310
337574
337842
338112
338388
338648
338912
339182
339438
339706
339970
340238
340500
340774
341042
341304
341574
341840
342114
342392
342652
342932
343214
343478
343760
344036
344312
344592
344858
345140
345420
345692
345966
346234
346510
346780
347040
347314
347582
347848
348122
348390
348670
348932
349204
349476
349754
350030
350304
350578
350852
351130
351392
351662
351934
352194
352466
352734
352994
353258
353514
353782
354042
354308
354576
354842
355110
355376
355626
355876
356144
356408
356666
356924
357186
357448
357714
357974
358240
358514
358762
359022
359290
359552
359814
360070
360326
360578
360830
361078
361306
361548
361782
362036
362298
362560
362828
363084
363350
363608
363874
364128
364390
364658
364926
365196
365448
365714
365972
366232
366496
366740
366998
367262
367538
367810
368070
368328
368590
368854
369110
369370
369628
369880
370150
370416
370672
370942
371202
371460
371726
371977
372240
372460
372704
372958
373204
373462
373708
373970
374234
374496
374762
375008
375268
375520
375782
376054
376316
376578
376834
377108
377370
377637
377910
378172
378434
378706
378968
379238
379506
379764
380030
380290
380544
380808
381072
381328
381590
381848
382104
382364
382618
382874
383136
383394
383642
383902
384140
384394
384664
384926
385196
385456
385712
385980
386242
386496
386754
387000
387262
387504
387732
387988
388250
388520
388792
389062
389318
389578
389850
390114
390366
390634
390904
391170
391432
391692
391958
392214
392472
392728
392984
393244
393504
393760
394018
394278
394528
394790
395054
395316
395574
395840
396108
396376
396644
396906
397174
397434
397690
397952
398194
398448
398700
398942
399170
399414
399636
399866
400092
400330
400564
400816
401056
401298
401538
401782
402028
402276
402528
402772
403032
403292
403562
403828
404078
404340
404608
404868
405126
405386
405646
405894
406160
406416
406682
406944
407204
407466
407726
407994
408242
408502
408762
409020
409284
409550
409800
410062
410324
410590
410852
411106
411362
411606
411870
412120
412380
412630
412882
413136
413394
413654
413912
414172
414434
414694
414958
415216
415486
415752
416014
416268
416532
416776
417034
417294
417532
417786
418044
418292
418550
418810
419070
419334
419582
419842
420098
420342
420590
420844
421074
421298
421536
421786
422028
422284
422542
422790
423056
423320
423586
423850
424118
424380
424644
424904
425166
425436
425694
425960
426222
426482
426742
427002
427250
427502
427756
428002
428262
428518
428784
429054
429316
429584
429852
430114
430386
430656
430926
431190
431464
431726
431998
432254
432520
432770
433036
433306
433558
433822
434092
434352
434616
434878
435126
435390
435652
435916
436186
436444
436702
436962
437228
437494
437742
438008
438276
438540
438802
439068
439328
439592
439862
440122
440392
440662
440934
441202
441466
441734
441994
442266
442530
442792
443054
443318
443590
443856
444124
444386
444660
444924
445198
445472
445740
446016
446278
446552
446820
447098
447360
447634
447898
448168
448428
448694
448960
449232
449506
449772
450040
450304
450844
451106
451370
451646
451916
452178
452454
452722
452994
453262
453534
453808
454072
454334
454598
454852
455102
455356
455614
455872
456114
456338
456562
456778
457002
457236
457484
457712
457952
458198
458426
458656
458890
459138
459384
459622
459862
460098
460342
460582
460804
461024
461256
461494
461724
461962
462208
462450
462698
462952
463216
463476
463724
463988
464256
464518
464770
465032
465292
465542
465798
466040
466264
466494
466730
466970
467202
467450
467690
467936
468182
468432
468676
468932
469186
469440
469698
469960
470218
470468
470716
470964
471202
471442
471686
471916
472160
472410
472646
472898
473162
473410
473658
473910
474168
474418
474670
474920
475164
475424
475674
475914
476168
476424
476672
476930
477188
477448
477700
477962
478218
478474
478726
478968
479204
479456
479692
479944
480192
480452
480690
480940
481186
481430
481674
481926
482156
482388
482624
482872
483126
483368
483620
483870
484112
484348
484598
484856
485110
485344
485590
485830
486082
486334
486588
486850
487112
487358
487612
487864
488114
488354
488580
488820
489072
489302
489542
489798
490052
490304
490560
490814
491058
491312
491566
491826
492080
492336
492600
492862
493126
493390
493642
493910
494170
494422
494690
494960
495222
495490
495758
496012
496274
496530
496800
497064
497308
497568
497834
498098
498356
498622
498886
499164
499420
499684
499938
500200
500450
500712
500964
501228
501490
501742
501996
502250
502514
502774
503024
503282
503540
503804
504070
504328
504576
504818
505086
505352
505618
505878
506142
506398
506660
506914
507182
507454
507710
507974
508232
508508
508782
509048
509314
509576
509826
510092
510358
510624
510878
511128
511388
511640
511894
512154
512408
512648
512890
513116
513350
513590
513818
514046
514290
514542
514794
515042
515286
515526
515776
516020
516262
516486
516712
516946
517178
517414
517641
517886
518128
518366
518612
518854
519084
519314
519530
519746
519960
520170
520378
520594
520800
521012
521226
521426
521626
521818
522010
522208
522420
522644
522852
523058
523270
523482
523684
523890
524090
524290
524492
524702
524916
525128
525342
525568
525794
526020
526242
526470
526692
526912
527124
527330
527552
527778
528002
528228
528444
528668
528904
529144
529376
529616
529854
530090
530332
530562
530796
531046
531292
531536
531776
532004
532228
532458
532696
532932
533150
533378
533606
533854
534102
534350
534604
534852
535098
535350
535584
535828
536052
536276
536508
536728
536948
537164
537378
537604
537844
538074
538322
538576
538820
539084
539346
539596
539862
540116
540376
540646
540908
541170
541428
541694
541954
542212
542474
542736
542984
543238
543494
543742
544002
544240
544494
544754
545006
545242
545468
545706
545944
546192
546442
546696
546934
547190
547446
547702
547958
548210
548458
548696
548932
549184
549434
549666
549910
550164
550416
550674
550934
551194
551446
551710
551966
552228
552488
552728
552982
553244
553500
553748
554006
554242
554492
554742
554978
555216
555446
555692
555932
556180
556430
556670
556928
557174
557416
557670
557910
558152
558404
558646
558894
559150
559394
559640
559890
560132
560380
560634
560872
561114
561368
561610
561860
562098
562352
562604
562838
563074
563328
563572
563820
564082
564342
564588
564846
565104
565344
565594
565846
566096
566350
566590
566846
567110
567362
567624
567884
568120
568362
568632
568890
569146
569388
569639
569890
570144
570386
570628
570880
571138
571394
571646
571904
572160
572418
572672
572924
573190
573454
573712
573962
574214
574460
574706
574944
575186
575430
575656
575888
576112
576348
576574
576796
577032
577270
577504
577740
577970
578196
578406
578620
578832
579038
579248
579450
579658
579878
580112
580344
580556
580782
581014
581232
581456
581684
581904
582134
582348
582558
582780
583010
583236
583464
583702
583932
584164
584386
584628
584874
585116
585356
585600
585840
586086
586328
586558
586790
587038
587298
587554
587812
588072
588318
588570
588824
589074
589330
589576
589828
590064
590318
590574
590826
591062
591312
591556
591782
592000
592230
592454
592692
592938
593170
593414
593654
593882
594124
594358
594596
594822
595032
595246
595476
595714
595946
596193
596441
596686
596937
597172
597416
597664
597910
598156
598390
598634
598878
599118
599358
599586
599826
600064
600292
600526
600756
600972
601196
601434
601666
601888
602106
602322
602542
602752
602980
603210
603432
603672
603912
604156
604412
604654
604890
605120
605360
605592
605830
606064
606302
606540
606768
606996
607220
607460
607692
607922
608148
608356
608620
608850
609080
609294
609514
609720
609922
610130
610342
610554
610770
610988
611222
611462
611696
611932
612174
612422
612664
612910
613160
613402
613652
613898
614148
614400
614632
614860
615102
615350
615578
615826
616058
616308
616542
616796
617042
617300
617550
617786
618022
618278
618512
618768
619022
619274
619536
619802
620058
620322
620574
620840
621102
621360
621628
621892
622148
622408
622656
622912
623168
623422
623678
623938
624190
624448
624704
624950
625206
625468
625726
625978
626230
626490
626740
626998
627262
627518
627770
628034
628294
628544
628802
629062
629324
629584
629846
630098
630338
630596
630850
631084
631308
631544
631774
631996
632236
632472
632704
632956
633202
633438
633666
633890
634112
634336
634576
634826
635068
635304
635542
635782
636024
636254
636496
636742
636966
637194
637436
637678
637930
638174
638428
638682
638938
639176
639424
639676
639926
640180
640438
640684
640936
641196
641450
641708
641970
642232
642488
642756
643022
643264
643518
643780
644042
644290
644546
644800
645064
645320
645572
645830
646070
646314
646568
646822
647070
647324
647584
647824
648078
648332
648588
648824
649072
649322
649574
649830
650086
650342
650596
650846
651092
651350
651610
651864
652102
652354
652610
652862
653106
653334
653564
653804
654058
654316
654570
654818
655052
655296
655540
655782
656008
656226
656466
656718
656968
657212
657466
657710
657956
658210
658468
658718
658958
659206
659458
659704
659958
660216
660462
660716
660966
661198
661440
661676
661912
662156
662410
662656
662874
663112
663368
663620
663872
664116
664366
664610
664866
665116
665358
665610
665850
666102
666352
666600
666854
667106
667356
667610
667858
668102
668354
668610
668854
669118
669378
669626
669886
670146
670400
670658
670914
671168
671422
671680
671936
672190
672448
672696
672950
673200
673454
673702
673962
674206
674456
674712
674956
675200
675424
675662
675908
676148
676376
676596
676822
677044
677280
677526
677768
678006
678250
678488
678716
678956
679196
679426
679668
679908
680142
680390
680638
680882
681132
681374
681624
681870
682126
682382
682624
682874
683124
683372
683620
683878
684128
684390
684650
684890
685120
685374
685638
685896
686158
686424
686680
686946
687206
687466
687726
687976
688236
688476
688722
688968
689222
689482
689746
690002
690262
690522
690780
691030
691290
691548
691806
692060
692318
692570
692832
693088
693338
693596
693850
694100
694352
694612
694854
695112
695370
695616
695874
696130
696370
696620
696862
697114
697364
697606
697860
698108
698602
698830
699072
699298
699538
699780
700022
700256
700498
700744
700984
701232
701486
701736
701982
702236
702496
702756
703020
703284
703546
703810
704072
704326
704584
704840
705092
705348
705586
705806
706048
706296
706542
706790
707048
707302
707552
707806
708062
708322
708572
708826
709070
709320
709568
709822
710072
710324
710572
710812
711042
711276
711508
711752
711998
712250
712504
712764
713026
713288
713546
713792
714050
714310
714560
714816
715068
715328
715584
715838
716086
716326
716568
716820
717068
717320
717572
717820
718060
718292
718512
718738
718962
719204
719450
719702
719948
720186
720432
720662
720900
721142
721392
721628
721872
722104
722350
722598
722844
723098
723348
723584
723840
724088
724342
724596
724840
725096
725346
725606
725860
726128
726390
726640
726898
727160
727420
727684
727948
728204
728472
728744
728990
729234
729494
729756
730016
730264
730516
730778
731044
731300
731560
731816
732070
732324
732580
732822
733078
733330
733590
733846
734096
734352
734612
734872
735122
735374
735626
735874
736132
736374
736624
736878
737112
737356
737590
737816
738052
738270
738490
738716
738966
739214
739456
739712
739966
740212
740468
740712
740970
741230
741472
741732
741980
742244
742490
742754
743018
743290
743544
743806
744068
744326
744594
744860
745116
745372
745628
745886
746136
746398
746666
746926
747194
747456
747714
747974
748230
748480
748736
748976
749216
749470
749726
749968
750224
750476
750728
750988
751244
751494
751752
752004
752254
752510
752772
753030
753280
753534
753772
754024
754274
754516
754764
755014
755258
755482
755716
755944
756162
756390
756626
756856
757086
757306
757534
757758
757986
758220
758460
758710
758958
759202
759450
759702
759958
760196
760440
760680
760928
761172
761400
761640
761884
762126
762352
762566
762788
763030
763272
763518
763770
764006
764262
764516
764758
765012
765268
765506
765756
766008
766254
766480
766710
766962
767216
767464
767694
768191
768442
768686
769184
769424
769686
769932
770929
771180
771405
771654
771886
772120
772364
772610
772862
773116
773364
773604
773856
774102
774340
774566
774800
775030
775254
775476
775690
775918
776158
776406
776644
776874
777104
777344
777570
777800
778032
778274
778508
778756
778992
779230
779480
779726
779966
780214
780460
780700
780946
781192
781450
781700
781948
782208
782468
782706
782952
783206
783456
783698
783954
784208
784462
784716
784974
785232
785492
785746
785990
786232
786478
786722
786962
787178
787402
787632
787874
788084
788310
788546
788784
789030
789278
789518
789750
789970
790184
790400
790630
790858
791096
791336
791566
791802
792032
792276
792518
792754
792978
793208
793440
793666
793892
794116
794330
794546
794754
794958
795182
795396
795632
795872
796106
796358
796606
796850
797098
797344
797596
797842
798096
798352
798598
798846
799106
799362
799624
799884
800146
800396
800660
800912
801180
801446
801712
801966
802224
802492
802756
803020
803276
803538
803796
804048
804308
804566
804820
805086
805352
805606
805866
806126
806368
806632
806902
807158
807424
807686
807948
808214
808468
808736
809004
809254
809516
809780
810032
810300
810570
810832
811100
811364
811624
811890
812150
812414
812676
812936
813192
813456
813716
813980
814242
814498
814762
815020
815282
815546
815804
816062
816322
816570
816820
817070
817312
817558
817802
818040
818298
818550
818768
818996
819236
819486
819728
819980
820238
820486
820742
820990
821260
821524
821784
822054
822320
822594
822870
823148
823432
823708
823992
824274
824536
824790
825064
825340
825604
825868
826130
826394
826666
826938
827202
827468
827738
828000
828258
828522
828782
829034
829290
829550
829800
830058
830328
830586
830852
831110
831374
831630
831884
832128
832374
832624
832880
833122
833376
833622
833864
834116
834364
834606
834858
835100
835352
835600
835850
836084
836314
836546
836774
836996
837206
837412
837614
837810
838024
838226
838428
838626
838828
839034
839252
839460
839684
839928
840178
840410
840662
840918
841160
841404
841632
841864
842112
842346
842594
842842
843084
843332
843582
843816
844056
844304
844544
844796
845028
845274
845526
845780
846026
846280
846524
846780
847032
847290
847546
847796
848056
848310
848570
848832
849088
849342
849598
849848
850104
850356
850610
850866
851106
851360
851614
851866
852118
852368
852608
852842
853092
853336
853592
853846
854098
854344
854570
854806
855040
855270
855486
855710
855948
856194
856436
856676
856902
857140
857384
857616
857862
858114
858348
858596
858834
859082
859324
859552
859794
860026
860274
860514
860760
861006
861248
861498
861742
861996
862248
862504
862752
863008
863256
863516
863776
864042
864304
864556
864812
865048
865290
865538
865786
866036
866296
866552
866796
867052
867306
867554
867806
868062
868310
868556
868818
869078
869340
869610
869862
870128
870396
870668
870930
871200
871470
871740
872012
872282
872546
872812
873058
873326
873586
873856
874124
874378
874638
874896
875154
875418
875672
875940
876192
876454
876714
876978
877244
877504
877766
878028
878282
878548
878790
879050
879312
879574
879820
880074
880326
880582
880834
881096
881346
881612
881878
882140
882394
882654
882918
883180
883442
883696
883964
884226
884482
884746
885006
885264
885532
885790
886050
886322
886592
886860
887128
887390
887652
887924
888182
888434
888696
888960
889200
889454
889708
889962
890214
890472
890718
890942
891170
891404
891648
891892
892154
892412
892662
892928
893190
893438
893694
893960
894222
894462
894710
894964
895222
895476
895712
895952
896202
896452
896684
896934
897174
897428
897684
897928
898176
898412
898662
898922
899174
899418
899674
899920
900172
900420
900664
900912
901164
901404
901632
901874
902130
902384
902654
902916
903176
903438
903714
903970
904236
904494
904758
905020
905259
905524
905758
906018
906240
906470
906702
906936
907178
907424
907674
907908
908156
908416
908672
908914
909168
909422
909680
909934
910184
910434
910682
910928
911174
911414
911656
911888
912132
912368
912594
912824
913052
913286
913528
913770
914010
914260
914502
914748
914982
915226
915462
915684
915900
916126
916362
916614
916864
917106
917332
917574
917824
918072
918300
918544
918800
919056
919308
919558
919820
920084
920334
920598
920854
921112
921356
921618
921882
922148
922404
922672
922940
923200
923472
923734
924004
924278
924554
924824
925094
925370
925636
925908
926184
926458
926728
926996
927262
927530
927796
928058
928320
928586
928852
929124
929390
929658
929908
930164
930430
930684
930930
931198
931460
931714
931968
932230
932484
932742
933008
933270
933528
933792
934046
934296
934554
934808
935064
935318
935564
935806
936056
936288
936534
936774
937018
937268
937526
937770
938032
938294
938548
938812
939072
939336
939600
939854
940094
940338
940574
940812
941048
941296
941544
941796
942046
942278
942528
942782
943038
943280
943538
943790
944042
944294
944536
944790
945042
945280
945502
945722
945964
946208
946428
946656
946888
947110
947334
947572
947806
948050
948306
948560
948818
949070
949304
949552
949802
950046
950294
950548
950790
951032
951280
951530
951768
952012
952256
952504
952734
952974
953208
953452
953670
953904
954146
954380
954600
954836
955082
955326
955576
955826
956072
956330
956592
956848
957096
957350
957604
957860
958112
958350
958592
958820
959058
959292
959510
959738
959966
960206
960456
960696
960932
961160
961406
961648
961872
962108
962356
962596
962820
963050
963286
963504
963728
963958
964178
964416
964660
964882
965094
965322
965560
965806
966032
966272
966518
966754
966994
967244
967494
967732
967984
968238
968478
968730
968980
969228
969462
969704
969944
970182
970428
970676
970902
971140
971392
971642
971870
972116
972358
972590
972836
973078
973308
973550
973802
974050
974296
974538
974790
975026
975270
975522
975766
976008
976237
976710
976944
977154
977388
977618
977850
978088
978326
978570
978822
979076
979330
979580
979840
980098
980342
980596
980838
981086
981332
981590
981858
982108
982364
982612
982860
983112
983370
983624
983874
984124
984380
984628
984892
985156
985402
985664
985932
986186
986448
986704
986972
987222
987480
987744
987998
988254
988498
988752
988998
989256
989512
989770
990032
990298
990562
990812
991070
991324
991584
991844
992094
992350
992594
992840
993102
993362
993616
993870
994130
994376
994636
994900
995164
995428
995686
995936
996204
996464
996730
996996
997246
997510
997776
998040
998302
998556
998810
999058
999322
999578
999820
1000072
1000316
1000578
1000842
1001108
1001364
1001616
1001870
1002118
1002362
1002600
1002850
1003104
1003358
1003600
1003840
1004092
1004322
1004572
1004824
1005062
1005312
1005574
1005832
1006088
1006350
1006608
1006872
1007128
1007390
1007644
1007896
1008146
1008408
1008664
1008918
1009168
1009422
1009660
1009914
1010152
1010406
1010666
1010908
1011160
1011412
1011656
1011900
1012158
1012420
1012656
1012900
1013144
1013366
1013590
1013830
1014078
1014322
1014550
1014790
1015030
1015266
1015494
1015718
1015944
1016164
1016394
1016628
1016852
1017060
1017264
1017474
1017688
1017892
1018104
1018320
1018546
1018776
1019002
1019214
1019438
1019646
1019850
1020060
1020284
1020514
1020748
1020978
1021198
1021418
1021628
1021846
1022064
1022288
1022518
1022748
1022984
1023220
1023450
1023696
1023938
1024158
1024396
1024638
1024870
1025098
1025336
1025574
1025814
1026052
1026274
1026504
1026734
1026964
1027194
1027436
1027680
1027914
1028152
1028400
1028646
1028884
1029128
1029378
1029628
1029872
1030116
1030360
1030582
1030808
1031042
1031282
1031512
1031744
1031984
1032214
1032456
1032694
1032930
1033166
1033416
1033664
1033912
1034152
1034396
1034642
1034876
1035124
1035370
1035632
1035888
1036126
1036372
1036622
1036880
1037136
1037382
1037638
1037882
1038130
1038388
1038644
1038904
1039140
1039384
1039632
1039884
1040124
1040376
1040616
1040868
1041124
1041370
1041624
1041890
1042150
1042402
1042642
1042896
1043134
1043378
1043622
1043860
1044114
1044364
1044598
1044842
1045094
1045353
1045607
1045862
1046106
1046358
1046614
1046856
1047114
1047372
1047630
1047880
1048126
1048384
1048624
1048866
1049114
1049350
1049590
1049836
1050080
1050324
1050574
1050812
1051048
1051288
1051489
1051695
1051894
1052108
1052304
1052504
1052710
1052912
1053122
1053332
1053540
1053738
1053936
1054126
1054318
1054518
1054708
1054900
1055086
1055278
1055468
1055660
1055842
1056035
1056214
1056408
1056604
1056794
1056982
1057166
1057358
1057539
1057732
1057922
1058128
1058336
1058556
1058778
1058991
1059202
1059406
1059614
1059816
1060006
1060206
1060420
1060638
1060848
1061052
1061280
1061510
1061726
1061952
1062174
1062412
1062638
1062878
1063118
1063348
1063590
1063836
1064074
1064318
1064548
1064786
1065032
1065274
1065524
1065774
1065996
1066224
1066470
1066732
1066978
1067202
1067432
1067684
1067934
1068188
1068438
1068678
1068922
1069166
1069410
1069652
1069874
1070102
1070340
1070570
1070788
1071002
1071238
1071466
1071702
1071956
1072218
1072476
1072706
1072958
1073216
1073454
1073710
1073972
1074202
1074440
1074724
1075006
1075286
1075568
1075854
1076138
1076416
1076660
1076916
1077168
1077410
1077646
1077904
1078172
1078456
1078712
1078982
1079248
1079528
1079812
1080072
1080346
1080620
1080864
1081120
1081396
1081668
1081928
1082188
1082434
1082690
1082960
1083248
1083538
1083826
1084082
1084326
1084586
1084856
1085136
1085404
1085666
1085910
1086162
1086428
1086700
1086972
1087260
1087542
1087796
1088062
1088326
1088604
1088878
1089140
1089375
1089608
1089842
1090076
1090300
1090514
1090949
1091174
1091408
1091622
1091826
1092026
1092248
1092478
1092698
1092932
1093182
1093424
1093656
1093908
1094166
1094408
1094658
1094908
1095150
1095390
1095626
1095866
1096116
1096348
1096588
1096828
1097058
1097302
1097548
1097790
1098032
1098252
1098482
1098722
1098968
1099202
1099438
1099676
1099906
1100144
1100372
1100624
1100876
1101128
1101362
1101596
1101840
1102080
1102306
1102548
1102798
1103040
1103280
1103536
1103790
1104036
1104270
1104520
1104776
1105030
1105290
1105536
1105790
1106038
1106294
1106550
1106802
1107060
1107318
1107570
1107830
1108066
1108320
1108580
1108834
1109068
1109304
1109554
1109798
1110030
1110278
1110528
1110770
1111022
1111268
1111494
1111726
1111974
1112224
1112472
1112706
1112952
1113206
1113464
1113714
1113974
1114240
1114494
1114746
1115012
1115276
1115526
1115782
1116040
1116298
1116538
1116788
1117028
1117278
1117524
1117756
1117972
1118200
1118442
1118676
1118924
1119184
1119440
1119688
1119932
1120170
1120424
1120678
1120936
1121178
1121432
1121696
1121960
1122218
1122488
1122752
1123022
1123296
1123556
1123826
1124108
1124380
1124642
1124914
1125182
1125438
1125694
1125958
1126222
1126482
1126728
1126984
1127234
1127494
1127754
1128018
1128280
1128548
1128802
1129068
1129322
1129584
1129852
1130120
1130376
1130620
1130876
1131136
1131380
1131642
1131898
1132142
1132404
1132662
1132900
1133152
1133400
1133654
1133900
1134152
1134400
1134648
1134904
1135160
1135418
1135662
1135920
1136180
1136442
1136694
1136948
1137204
1137458
1137706
1137942
1138186
1138426
1138666
1138916
1139166
1139414
1139658
1139884
1140120
1140360
1140594
1140842
1141086
1141322
1141560
1141800
1142024
1142252
1142472
1142694
1142936
1143188
1143420
1143662
1143912
1144156
1144402
1144658
1144920
1145168
1145434
1145692
1145948
1146203
1146465
1146726
1146976
1147220
1147448
1147678
1147914
1148144
1148368
1148578
1148796
1149034
1149278
1149520
1149762
1149984
1150230
1150482
1150728
1150980
1151240
1151496
1151750
1152010
1152260
1152522
1152778
1153030
1153282
1153538
1153786
1154038
1154294
1154546
1154798
1155056
1155300
1155552
1155802
1156048
1156300
1156556
1156810
1157052
1157298
1157532
1157776
1158012
1158260
1158508
1158750
1158984
1159224
1159470
1159706
1159954
1160206
1160454
1160690
1160938
1161184
1161422
1161660
1161902
1162132
1162380
1162628
1162868
1163104
1163336
1163568
1163808
1164040
1164286
1164522
1164752
1164984
1165212
1165424
1165650
1165892
1166140
1166400
1166656
1166918
1167170
1167422
1167664
1167910
1168154
1168386
1168622
1168864
1169102
1169340
1169574
1169804
1170038
1170276
1170506
1170748
1170994
1171240
1171472
1171718
1171964
1172212
1172448
1172680
1172894
1173112
1173322
1173538
1173756
1173968
1174178
1174380
1174588
1174804
1175024
1175250
1175482
1175708
1175950
1176202
1176448
1176694
1176948
1177208
1177464
1177714
1177958
1178192
1178424
1178656
1178878
1179116
1179348
1179578
1179798
1180038
1180284
1180540
1180790
1181040
1181292
1181546
1181790
1182038
1182294
1182548
1182802
1183058
1183306
1183548
1183792
1184044
1184292
1184542
1184794
1185040
1185296
1185548
1185810
1186066
1186318
1186578
1186834
1187084
1187344
1187602
1187856
1188118
1188378
1188630
1188882
1189126
1189374
1189626
1189866
1190118
1190354
1190588
1190826
1191052
1191298
1191510
1191724
1191942
1192168
1192392
1192618
1192848
1193078
1193302
1193534
1193768
1194010
1194252
1194482
1194716
1194950
1195186
1195420
1195654
1195902
1196154
1196396
1196632
1196884
1197142
1197400
1197654
1197898
1198140
1198368
1198588
1198806
1199022
1199228
1199426
1199636
1199862
1200104
1200342
1200584
1200830
1201080
1201316
1201564
1201808
1202048
1202282
1202524
1202764
1202994
1203216
1203444
1203666
1203884
1204108
1204324
1204540
1204760
1204988
1205214
1205430
1205658
1205886
1206114
1206346
1206580
1206804
1207010
1207214
1207408
1207610
1207812
1208018
1208220
1208420
1208614
1208806
1209008
1209216
1209420
1209628
1209840
1210046
1210248
1210454
1210668
1210880
1211088
1211284
1211478
1211670
1211868
1212066
1212266
1212478
1212696
1212898
1213102
1213312
1213518
1213724
1213932
1214130
1214328
1214520
1214720
1214910
1215102
1215290
1215472
1215650
1215828
1216004
1216176
1216354
1216522
1216696
1216862
1217032
1217200
1217370
1217540
1217706
1217876
1218040
1218206
1218368
1218530
1218692
1218852
1219014
1219172
1219332
1219484
1219642
1219796
1219950
1220104
1220258
1220408
1220566
1220718
1220868
1221016
1221168
1221320
1221472
1221622
1221770
1221919
1222066
1222216
1222362
1222514
1222658
1222806
1222954
1223104
1223254
1223404
1223550
1223698
1223846
1223992
1224138
1224286
1224430
1224574
1224724
1224862
1225006
1225148
1225290
1225430
1225576
1225710
1225856
1225992
1226134
1226276
1226416
1226552
1226696
1226832
1226978
1227112
1227252
1227392
1227528
1227666
1227804
1227942
1228080
1228220
1228352
1228490
1228626
1228764
1228902
1229038
1229174
1229310
1229444
1229578
1229714
1229848
1229986
1230120
1230250
1230388
1230520
1230652
1230790
1230920
1231054
1231188
1231322
1231456
1231594
1231728
1231864
1231998
1232132
1232266
1232400
1232532
1232670
1232800
1232938
1233066
1233202
1233328
1233468
1233594
1233732
1233862
1233990
1234122
1234254
1234384
1234518
1234650
1234780
1234912
1235044
1235174
1235304
1235436
1235564
1235694
1235826
1235956
1236086
1236216
1236346
1236474
1236604
1236734
1236862
1236994
1237122
1237254
1237386
1237520
1237652
1237786
1237918
1238052
1238188
1238322
1238456
1238592
1238728
1238862
1239000
1239138
1239272
1239412
1239550
1239690
1239828
1239964
1240106
1240250
1240398
1240550
1240700
1240854
1241010
1241162
1241316
1241468
1241624
1241782
1241944
1242102
1242260
1242410
1242568
1242718
1242868
1243018
1243174
1243332
1243488
1243650
1243810
1243970
1244132
1244292
1244450
1244606
1244764
1244924
1245084
1245244
1245404
1245562
1245726
1245894
1246062
1246238
1246414
1246592
1246772
1246960
1247148
1247338
1247526
1247712
1247904
1248088
1248278
1248482
1248678
1248884
1249100
1249300
1249510
1249692
1249894
1250092
1250300
1250490
1250682
1250888
1251102
1251310
1251524
1251736
1251948
1252160
1252372
1252588
1252798
1253018
1253240
1253460
1253678
1253888
1254114
1254328
1254548
1254764
1254994
1255226
1255432
1255650
1255884
1256114
1256332
1256558
1256786
1257024
1257252
1257478
1257700
1257910
1258116
1258332
1258532
1258746
1258970
1259196
1259402
1259612
1259830
1260044
1260270
1260478
1260682
1260896
1261104
1261326
1261554
1261762
1261966
1262190
1262416
1262650
1262856
1263068
1263290
1263516
1263736
1263966
1264194
1264404
1264618
1264828
1265038
1265266
1265490
1265702
1265930
1266164
1266398
1266622
1266856
1267080
1267322
1267560
1267794
1268030
1268256
1268476
1268710
1268940
1269178
1269408
1269646
1269880
1270116
1270362
1270606
1270832
1271066
1271300
1271534
1271772
1272010
1272238
1272468
1272692
1272908
1273136
1273376
1273614
1273844
1274084
1274318
1274538
1274754
1274982
1275222
1275442
1275668
1275904
1276138
1276382
1276628
1276856
1277078
1277290
1277490
1277696
1277908
1278124
1278346
1278564
1278784
1279012
1279234
1279456
1279684
1279908
1280134
1280360
1280578
1280806
1281036
1281256
1281480
1281698
1281922
1282140
1282352
1282576
1282798
1283018
1283242
1283466
1283684
1283904
1284128
1284352
1284578
1284800
1285028
1285262
1285476
1285692
1285902
1286108
1286324
1286550
1286758
1286976
1287184
1287388
1287591
1287800
1287998
1288200
1288412
1288618
1288820
1289032
1289246
1289450
1289662
1289868
1290080
1290296
1290494
1290704
1290904
1291096
1291290
1291498
1291710
1291912
1292132
1292348
1292562
1292782
1293008
1293234
1293458
1293684
1293904
1294130
1294352
1294578
1294810
1295030
1295258
1295488
1295726
1295964
1296210
1296448
1296686
1296928
1297160
1297388
1297612
1297818
1298038
1298274
1298506
1298746
1298990
1299226
1299444
1299666
1299880
1300104
1300328
1300548
1300756
1300986
1301214
1301420
1301626
1301830
1302036
1302260
1302484
1302698
1302900
1303106
1303298
1303488
1303668
1303844
1304024
1304194
1304364
1304536
1304704
1304872
1305042
1305206
1305370
1305540
1305704
1305870
1306044
1306224
1306402
1306574
1306748
1306914
1307084
1307246
1307406
1307566
1307718
1307878
1308034
1308186
1308338
1308486
1308636
1308788
1308932
1309078
1309224
1309364
1309510
1309654
1309796
1309936
1310078
1310218
1310354
1310494
1310630
1310768
1310906
1311042
1311182
1311320
1311452
1311586
1311722
1311858
1311996
1312132
1312264
1312406
1312542
1312676
1312814
1312950
1313088
1313224
1313362
1313502
1313634
1313770
1313908
1314046
1314180
1314320
1314458
1314594
1314732
1314870
1315004
1315144
1315284
1315420
1315560
1315698
1315834
1315974
1316114
1316252
1316394
1316532
1316666
1316808
1316950
1317090
1317228
1317372
1317504
1317642
1317780
1317920
1318058
1318200
1318342
1318486
1318626
1318770
1318916
1319060
1319208
1319356
1319504
1319652
1319800
1319950
1320098
1320250
1320400
1320554
1320706
1320864
1321014
1321168
1321328
1321486
1321652
1321814
1321980
1322142
1322306
1322464
1322626
1322786
1322946
1323106
1323270
1323430
1323594
1323752
1323916
1324084
1324242
1324410
1324580
1324738
1324902
1325072
1325234
1325406
1325574
1325744
1325920
1326100
1326278
1326468
1326664
1326862
1327052
1327240
1327426
1327602
1327780
1327956
1328134
1328320
1328498
1328680
1328856
1329026
1329206
1329382
1329568
1329758
1329944
1330136
1330320
1330498
1330684
1330870
1331060
1331244
1331422
1331610
1331796
1331982
1332172
1332354
1332550
1332744
1332938
1333140
1333340
1333542
1333752
1333946
1334148
1334346
1334544
1334750
1334944
1335150
1335348
1335542
1335734
1335922
1336114
1336296
1336484
1336672
1336850
1337036
1337224
1337410
1337602
1337794
1337982
1338178
1338362
1338560
1338746
1338934
1339122
1339302
1339484
1339666
1339844
1340032
1340226
1340418
1340622
1340816
1341014
1341216
1341414
1341618
1341828
1342024
1342230
1342428
1342626
1342838
1343044
1343256
1343476
1343684
1343908
1344122
1344332
1344540
1344738
1344940
1345136
1345332
1345530
1345732
1345928
1346116
1346312
1346504
1346692
1346886
1347092
1347296
1347484
1347680
1347864
1348062
1348268
1348476
1348676
1348856
1349044
1349242
1349440
1349646
1349874
1350098
1350314
1350536
1350742
1350958
1351176
1351384
1351604
1351814
1352018
1352232
1352432
1352632
1352838
1353032
1353232
1353418
1353610
1353814
1354008
1354214
1354424
1354614
1354818
1355024
1355230
1355444
1355646
1355856
1356068
1356274
1356500
1356718
1356942
1357168
1357398
1357624
1357850
1358056
1358276
1358502
1358722
1358952
1359182
1359408
1359632
1359834
1360048
1360256
1360456
1360660
1360864
1361054
1361254
1361468
1361668
1361876
1362082
1362284
1362496
1362704
1362914
1363126
1363332
1363542
1363756
1363958
1364168
1364374
1364576
1364762
1364970
1365176
1365380
1365596
1365808
1366022
1366240
1366456
1366680
1366888
1367100
1367318
1367518
1367726
1367934
1368134
1368342
1368552
1368760
1368972
1369184
1369388
1369592
1369784
1369980
1370174
1370370
1370578
1370768
1370968
1371172
1371362
1371568
1371762
1371958
1372160
1372354
1372552
1372756
1372950
1373146
1373352
1373546
1373746
1373948
1374140
1374344
1374548
1374744
1374948
1375152
1375362
1375584
1375782
1375984
1376194
1376392
1376600
1376788
1376986
1377172
1377360
1377550
1377732
1377920
1378122
1378312
1378504
1378706
1378904
1379106
1379310
1379500
1379704
1379900
1380092
1380286
1380478
1380674
1380878
1381070
1381278
1381488
1381684
1381894
1382088
1382294
1382502
1382698
1382908
1383110
1383316
1383532
1383742
1383944
1384146
1384348
1384558
1384768
1384972
1385180
1385390
1385606
1385816
1386032
1386240
1386454
1386660
1386862
1387058
1387264
1387474
1387674
1387890
1388100
1388298
1388514
1388732
1388940
1389142
1389338
1389538
1389746
1389948
1390144
1390348
1390558
1390754
1390950
1391154
1391348
1391556
1391756
1391952
1392152
1392346
1392534
1392732
1392926
1393120
1393306
1393500
1393690
1393896
1394096
1394298
1394500
1394696
1394906
1395110
1395304
1395504
1395696
1395892
1396094
1396286
1396486
1396698
1396902
1397122
1397326
1397532
1397736
1397932
1398132
1398320
1398510
1398704
1398892
1399094
1399302
1399500
1399708
1399914
1400112
1400318
1400508
1400710
1400910
1401106
1401310
1401510
1401698
1401896
1402101
1402302
1402500
1402692
1402898
1403088
1403267
1403478
1403658
1403840
1404020
1404196
1404384
1404568
1404756
1404954
1405150
1405344
1405544
1405736
1405938
1406128
1406318
1406514
1406706
1406898
1407096
1407284
1407484
1407676
1407864
1408060
1408250
1408440
1408632
1408814
1408996
1409178
1409356
1409538
1409720
1409898
1410082
1410262
1410456
1410640
1410824
1411016
1411206
1411402
1411606
1411800
1411992
1412192
1412416
1412644
1412856
1413066
1413270
1413470
1413668
1413876
1414092
1414312
1414512
1414714
1414926
1415144
1415348
1415544
1415750
1415960
1416164
1416358
1416560
1416768
1416978
1417190
1417406
1417612
1417828
1418042
1418262
1418486
1418700
1418908
1419118
1419322
1419524
1419736
1419946
1420154
1420358
1420558
1420760
1420964
1421162
1421362
1421566
1421778
1421998
1422220
1422438
1422652
1422858
1423072
1423284
1423500
1423726
1423944
1424160
1424378
1424598
1424804
1424998
1425196
1425406
1425628
1425860
1426080
1426292
1426516
1426720
1426924
1427138
1427360
1427578
1427776
1427980
1428184
1428396
1428604
1428824
1429046
1429270
1429492
1429718
1429944
1430174
1430406
1430636
1430866
1431082
1431302
1431524
1431738
1431960
1432172
1432384
1432590
1432800
1433006
1433212
1433426
1433638
1433854
1434064
1434274
1434492
1434708
1434922
1435138
1435360
1435584
1435810
1436032
1436250
1436462
1436670
1436872
1437076
1437284
1437488
1437690
1437906
1438130
1438356
1438562
1438766
1438962
1439158
1439364
1439578
1439782
1439992
1440202
1440416
1440638
1440870
1441110
1441351
1441764
1441984
1442194
1442412
1442642
1442886
1443136
1443384
1443610
1443834
1444056
1444282
1444509
1444750
1444974
1445196
1445412
1445630
1445842
1446060
1446270
1446486
1446696
1446910
1447112
1447326
1447518
1447720
1447936
1448158
1448374
1448592
1448800
1448998
1449198
1449392
1449588
1449790
1449984
1450186
1450398
1450606
1450820
1451030
1451238
1451432
1451630
1451828
1452016
1452200
1452386
1452568
1452756
1452952
1453144
1453336
1453528
1453714
1453894
1454076
1454262
1454440
1454614
1454796
1454978
1455156
1455338
1455522
1455700
1455884
1456066
1456252
1456442
1456632
1456816
1457006
1457186
1457374
1457574
1457768
1457956
1458156
1458360
1458558
1458766
1458962
1459162
1459366
1459564
1459766
1459964
1460160
1460362
1460565
1460763
1460976
1461174
1461370
1461574
1461768
1461962
1462166
1462372
1462576
1462790
1463004
1463214
1463422
1463620
1463822
1464016
1464214
1464418
1464624
1464818
1465022
1465226
1465422
1465630
1465842
1466040
1466244
1466434
1466632
1466816
1467014
1467218
1467420
1467616
1467820
1468032
1468250
1468460
1468674
1468878
1469090
1469304
1469524
1469744
1469956
1470180
1470402
1470628
1470858
1471086
1471318
1471550
1471776
1471998
1472206
1472402
1472606
1472806
1473004
1473204
1473408
1473612
1473820
1474028
1474238
1474452
1474660
1474876
1475090
1475302
1475518
1475730
1475942
1476158
1476368
1476574
1476768
1476964
1477160
1477356
1477556
1478331
1478542
1478770
1478982
1479198
1479422
1479636
1479856
1480068
1480278
1480484
1480694
1480904
1481112
1481322
1481526
1481732
1481934
1482140
1482342
1482550
1482760
1482966
1483178
1483384
1483586
1483788
1483990
1484190
1484394
1484592
1484800
1484982
1485174
1485354
1485537
1485718
1485906
1486090
1486278
1486452
1486642
1486824
1487012
1487204
1487394
1487588
1487784
1487974
1488168
1488358
1488544
1488734
1488930
1489112
1489298
1489492
1489686
1489884
1490094
1490288
1490484
1490680
1490874
1491068
1491276
1491470
1491662
1491860
1492056
1492250
1492442
1492632
1492822
1493018
1493216
1493406
1493602
1493794
1493988
1494186
1494376
1494572
1494764
1494956
1495148
1495338
1495524
1495716
1495904
1496082
1496262
1496444
1496634
1496822
1497016
1497210
1497410
1497610
1497812
1498016
1498212
1498406
1498600
1498790
1498982
1499178
1499372
1499572
1499772
1499970
1500172
1500374
1500570
1500772
1500970
1501166
1501370
1501576
1501786
1502000
1502192
1502392
1502582
1502774
1502968
1503154
1503342
1503540
1503738
1503944
1504160
1504380
1504600
1504832
1505062
1505282
1505512
1505728
1505954
1506184
1506414
1506646
1506882
1507108
1507344
1507586
1507816
1508050
1508288
1508524
1508760
1508994
1509210
1509426
1509656
1509884
1510100
1510322
1510550
1510784
1511020
1511254
1511488
1511722
1511944
1512160
1512382
1512598
1512808
1513026
1513252
1513474
1513698
1513920
1514142
1514374
1514610
1514834
1515060
1515288
1515514
1515750
1515974
1516196
1516414
1516626
1516848
1517068
1517290
1517508
1517722
1517942
1518152
1518374
1518592
1518814
1519038
1519252
1519472
1519698
1519918
1520148
1520380
1520600
1520830
1521056
1521276
1521504
1521726
1521948
1522174
1522400
1522614
1522834
1523058
1523278
1523506
1523730
1523946
1524170
1524392
1524608
1524828
1525046
1525252
1525470
1525694
1525908
1526128
1526356
1526576
1526800
1527030
1527254
1527474
1527702
1527924
1528140
1528356
1528564
1528776
1528994
1529210
1529424
1529642
1529858
1530076
1530288
1530486
1530686
1530888
1531082
1531284
1531498
1531708
1531924
1532146
1532368
1532596
1532826
1533046
1533268
1533484
1533696
1533912
1534126
1534340
1534556
1534776
1534992
1535214
1535436
1535652
1535876
1536104
1536324
1536552
1536776
1536992
1537212
1537430
1537638
1537856
1538080
1538298
1538526
1538750
1538974
1539202
1539426
1539650
1539876
1540098
1540316
1540534
1540746
1540966
1541188
1541412
1541630
1541854
1542072
1542292
1542512
1542728
1542942
1543162
1543384
1543604
1543820
1544042
1544264
1544490
1544720
1544940
1545168
1545390
1545616
1545842
1546058
1546268
1546474
1546684
1546894
1547104
1547310
1547524
1547736
1547950
1548166
1548388
1548614
1548838
1549054
1549280
1549498
1549718
1549928
1550144
1550360
1550572
1550776
1550984
1551194
1551406
1551622
1551844
1552058
1552284
1552506
1552716
1552930
1553146
1553354
1553554
1553756
1553962
1554162
1554370
1554584
1554792
1555006
1555208
1555424
1555644
1555864
1556070
1556274
1556482
1556684
1556874
1557070
1557274
1557474
1557686
1557912
1558134
1558358
1558586
1558810
1559028
1559246
1559470
1559692
1559910
1560134
1560360
1560584
1560812
1561036
1561264
1561488
1561716
1561934
1562166
1562396
1562622
1562854
1563076
1563288
1563498
1563712
1563924
1564146
1564372
1564588
1564810
1565022
1565240
1565468
1565696
1565928
1566160
1566394
1566624
1566846
1567066
1567282
1567496
1567718
1567946
1568166
1568398
1568630
1568862
1569098
1569332
1569570
1569806
1570044
1570276
1570510
1570740
1570970
1571196
1571414
1571616
1571830
1572038
1572244
1572458
1572668
1572886
1573110
1573326
1573538
1573756
1573986
1574220
1574458
1574698
1574932
1575176
1575416
1575644
1575872
1576086
1576310
1576542
1576766
1576994
1577226
1577452
1577690
1577926
1578150
1578386
1578616
1578830
1579062
1579288
1579508
1579732
1579968
1580200
1580438
1580676
1580912
1581154
1581390
1581622
1581860
1582096
1582334
1582574
1582810
1583040
1583272
1583506
1583732
1583968
1584200
1584428
1584660
1584898
1585134
1585368
1585604
1585830
1586058
1586278
1586498
1586718
1586940
1587160
1587376
1587596
1587816
1588036
1588270
1588510
1588740
1588976
1589212
1589436
1589664
1589880
1590098
1590310
1590520
1590740
1590950
1591162
1591392
1591630
1591858
1592088
1592310
1592522
1592740
1592947
1593144
1593366
1593584
1593818
1594050
1594264
1594492
1594730
1594968
1595198
1595442
1595686
1595924
1596180
1596436
1596682
1596930
1597170
1597420
1597674
1597932
1598206
1598464
1598722
1598980
1599224
1599474
1599708
1599948
1600196
1600440
1600680
1600932
1601190
1601444
1601704
1601970
1602232
1602496
1602764
1603028
1603288
1603558
1603828
1604098
1604376
1604650
1604922
1605208
1605470
1605736
1605988
1606238
1606490
1606746
1606996
1607254
1607528
1607804
1608066
1608332
1608610
1608876
1609152
1609428
1609684
1609934
1610192
1610432
1610664
1610900
1611156
1611410
1611664
1611930
1612196
1612474
1612754
1613018
1613294
1613580
1613844
1614120
1614404
1614662
1614934
1615206
1615468
1615748
1616020
1616298
1616584
1616862
1617130
1617412
1617700
1617966
1618236
1618496
1618772
1619054
1619318
1619594
1619856
1620130
1620402
1620668
1620934
1621214
1621494
1621780
1622058
1622326
1622604
1622886
1623160
1623444
1623732
1624012
1624302
1624596
1624874
1625158
1625444
1625722
1626014
1626302
1626572
1626858
1627146
1627410
1627688
1627960
1628246
1628516
1628786
1629066
1629328
1629604
1629888
1630156
1630434
1630718
1630994
1631278
1631554
1631834
1632120
1632396
1632676
1632952
1633234
1633508
1633790
1634072
1634342
1634606
1634870
1635124
1635378
1635592
1635816
1636054
1636310
1636564
1636814
1637074
1637330
1637582
1637832
1638096
1638366
1638626
1638898
1639166
1639442
1639722
1639992
1640272
1640558
1640838
1641108
1641376
1641640
1641882
1642136
1642400
1642652
1642914
1643188
1643458
1643712
1643954
1644204
1644464
1644718
1644978
1645246
1645510
1645784
1646062
1646336
1646616
1646900
1647184
1647466
1647740
1648022
1648304
1648584
1648854
1649130
1649406
1649676
1649942
1650216
1650484
1650744
1651012
1651272
1651520
1651784
1652046
1652294
1652554
1652814
1653068
1653330
1653590
1653840
1654108
1654380
1654644
1654918
1655198
1655464
1655740
1656020
1656294
1656566
1656846
1657126
1657394
1657670
1657950
1658218
1658490
1658768
1659034
1659304
1659574
1659838
1660104
1660372
1660630
1660898
1661170
1661440
1661710
1661988
1662262
1662532
1662808
1663086
1663352
1663628
1663902
1664168
1664438
1664716
1664986
1665258
1665534
1665808
1666086
1666346
1666614
1666876
1667142
1667408
1667664
1667930
1668188
1668452
1668714
1668968
1669204
1669452
1669700
1669944
1670198
1670462
1670726
1670970
1671226
1671488
1671742
1671998
1672256
1672492
1672718
1672962
1673222
1673484
1673742
1674002
1674262
1674530
1674784
1675038
1675288
1675546
1675808
1676062
1676296
1676538
1676802
1677068
1677324
1677594
1677868
1678138
1678406
1678670
1678942
1679218
1679484
1679756
1680030
1680304
1680574
1680848
1681118
1681394
1681666
1681932
1682186
1682444
1682692
1682938
1683170
1683418
1683660
1683900
1684148
1684410
1684672
1684922
1685172
1685432
1685684
1685922
1686168
1686424
1686680
1686936
1687182
1687438
1687700
1687964
1688226
1688480
1688744
1689012
1689270
1689528
1689788
1690044
1690286
1690534
1690782
1691010
1691256
1691498
1691726
1691964
1692210
1692448
1692692
1692916
1693134
1693366
1693590
1693824
1694072
1694310
1694560
1694804
1695062
1695322
1695578
1695846
1696110
1696378
1696658
1696936
1697214
1697488
1697770
1698050
1698320
1698602
1698870
1699148
1699426
1699694
1699954
1700226
1700504
1700776
1701040
1701308
1701554
1701814
1702082
1702348
1702594
1702852
1703108
1703354
1703606
1703870
1704130
1704394
1704652
1704920
1705188
1705454
1705722
1705990
1706242
1706500
1706764
1707026
1707280
1707510
1707740
1707974
1708194
1708408
1708630
1708878
1709138
1709388
1709656
1709932
1710200
1710464
1710740
1711016
1711286
1711566
1711844
1712114
1712384
1712654
1712904
1713172
1713432
1713676
1713932
1714192
1714446
1714700
1714966
1715232
1715486
1715750
1716018
1716282
1716552
1716824
1717092
1717360
1717634
1717910
1718176
1718448
1718720
1718980
1719252
1719528
1719794
1720064
1720338
1720606
1720872
1721144
1721408
1721678
1721948
1722214
1722480
1722746
1723018
1723294
1723576
1723848
1724126
1724408
1724692
1724950
1725222
1725502
1725780
1726050
1726328
1726606
1726870
1727146
1727424
1727690
1727968
1728244
1728524
1728798
1729056
1729324
1729592
1729848
1730116
1730384
1730640
1730904
1731180
1731444
1731710
1731988
1732256
1732522
1732786
1733034
1733268
1733512
1733752
1733990
1734234
1734462
1734690
1734928
1735180
1735438
1735692
1735936
1736178
1736416
1736650
1736892
1737128
1737358
1737604
1737866
1738122
1738376
1738622
1738878
1739138
1739400
1739662
1739928
1740196
1740458
1740726
1740994
1741248
1741502
1741740
1741988
1742240
1742474
1742704
1742936
1743154
1743370
1743598
1743852
1744118
1744366
1744622
1744878
1745132
1745376
1745618
1745872
1746114
1746350
1746582
1746822
1747064
1747284
1747534
1747788
1748044
1748296
1748538
1748766
1748996
1749222
1749448
1749660
1749872
1750090
1750324
1750566
1750808
1751054
1751310
1751556
1751814
1752076
1752344
1752608
1752864
1753120
1753372
1753626
1753880
1754136
1754374
1754620
1754846
1755086
1755334
1755574
1755826
1756076
1756332
1756584
1756846
1757092
1757356
1757604
1757866
1758130
1758396
1758660
1758924
1759174
1759440
1759710
1759966
1760228
1760492
1760758
1761018
1761282
1761552
1761832
1762108
1762360
1762630
1762904
1763184
1763446
1763722
1763994
1764272
1764536
1764814
1765094
1765380
1765656
1765928
1766208
1766482
1766750
1767016
1767270
1767530
1767774
1768030
1768272
1768510
1768758
1768992
1769226
1769454
1769708
1769956
1770198
1770446
1770702
1770956
1771204
1771450
1771698
1771922
1772160
1772426
1772692
1772942
1773196
1773462
1773716
1773976
1774254
1774528
1774793
1775048
1775310
1775570
1775838
1776092
1776342
1776611
1776883
1777152
1777412
1777666
1777890
1778114
1778330
1778572
1778830
1779092
1779334
1779588
1779850
1780120
1780378
1780638
1780894
1781164
1781430
1781704
1781978
1782246
1782510
1782774
1783046
1783316
1783576
1783846
1784118
1784394
1784660
1784928
1785194
1785460
1785720
1785988
1786252
1786496
1786750
1786998
1787258
1787524
1787782
1788050
1788324
1788586
1788830
1789090
1789334
1789600
1789874
1790148
1790400
1790666
1790936
1791200
1791458
1791730
1792002
1792258
1792526
1792804
1793080
1793348
1793618
1793894
1794172
1794440
1794722
1795008
1795290
1795572
1795856
1796126
1796390
1796644
1796900
1797162
1797412
1797672
1797934
1798200
1798454
1798728
1798992
1799264
1799538
1799806
