peaks
179
589
1006
1400
1825
2250
2667
3106
3520
3949
4383
4790
5230
5668
6089
6551
6974
7432
7854
8311
8763
9199
9651
10070
10510
10930
11338
11760
12169
12613
13065
13492
13955
14379
14832
15278
15705
16152
16572
17013
17453
17882
18348
18765
19215
19657
20098
20544
20974
21421
21847
22299
22725
23161
23618
24038
24488
24893
25336
25757
26164
26614
27027
27471
27897
28328
28779
29194
29648
30041
30477
30910
31337
31787
32221
32685
33108
33565
33995
34440
34885
35319
35760
36176
36629
37058
37493
37944
38365
38803
39211
39661
40075
40507
40957
41381
41829
42243
42693
43118
43534
43969
44373
44812
45219
45653
46093
46514
46969
47399
47814
48262
48679
49135
49572
49997
50439
50853
51303
51722
52141
52577
52975
53406
53840
54258
54697
55126
55550
55988
56394
56827
57245
57651
58102
58526
59002
59445
59886
60341
60776
61240
61669
62133
62567
63002
63436
63859
64300
64706
65128
65566
65966
66400
66810
67240
67669
68083
68528
68927
69356
69794
70207
70658
71063
71499
71926
72349
72792
73205
73653
74082
74506
74953
75367
75802
76219
76626
77068
77465
77888
78319
78715
79145
79553
79970
80381
80785
81226
81632
82073
82495
82917
83350
83766
84205
84627
85032
85468
85870
86305
86725
87145
87592
88010
88467
88882
89335
89767
90182
90638
91054
91506
91922
92381
92818
93265
93697
94131
94573
94991
95438
95841
96284
96706
97121
97558
97965
98390
98818
99227
99670
100091
100525
100981
101405
101860
102280
102696
103137
103555
103973
104404
104821
105269
105686
106133
106555
106977
107415
107828
108254
108696
109107
109553
109963
110405
110821
111247
111672
112076
112513
112930
113341
113775
114187
114635
115053
115467
115897
116299
116716
117155
117558
117994
118400
118825
119258
119668
120107
120512
120952
121360
121763
122191
122591
123029
123443
123863
124296
124701
125134
125554
125961
126399
126811
127245
127664
128065
128502
128900
129317
129742
130139
130573
130991
131423
131852
132263
132704
133102
133522
133941
134347
134783
135191
135627
136067
136493
136943
137360
137779
138232
138650
139104
139530
139958
140410
140822
141280
141697
142139
142556
142965
143401
143807
144247
144673
145101
145549
145986
146436
146869
147304
147739
148146
148582
148991
149425
149875
150294
150757
151183
151613
152055
152477
152930
153359
153779
154234
154648
155088
155512
155922
156364
156766
157210
157628
158046
158494
158900
159345
159765
160187
160623
161042
161479
161878
162316
162734
163148
163582
163991
164423
164837
165236
165679
166086
166527
166958
167389
167816
168234
168681
169078
169512
169929
170330
170768
171190
171621
172037
172474
172895
173295
173729
174151
174587
175013
175442
175886
176292
176723
177124
177552
177963
178367
178800
179212
179654
180085
180513
180938
181381
181811
182243
182695
183131
183586
184018
184469
184896
185320
185761
186185
186623
187055
187479
187897
188320
188746
189141
189574
189978
190391
190803
191203
191640
192038
192476
192900
193301
193739
194160
194588
195005
195441
195865
196264
196701
197124
197548
197984
198410
198845
199269
199713
200131
200574
201005
201429
201871
202283
202725
203148
203561
203996
204406
204829
205239
205668
206079
206492
206912
207316
207751
208156
208606
209028
209451
209902
210324
210770
211192
211614
212055
212480
212936
213349
213800
214222
214681
215115
215539
215980
216389
216830
217256
217667
218113
218527
218969
219394
219815
220260
220665
221108
221528
221939
222375
222791
223239
223640
224091
224510
224919
225360
225780
226214
226648
227073
227527
227945
228373
228803
229224
229656
230085
230517
230955
231360
231791
232171
232586
232977
233370
233772
234170
234584
234971
235409
235831
236242
236681
237092
237534
237940
238387
238810
239225
239661
240077
240511
240913
241352
241761
242185
242602
243030
243467
243891
244341
244748
245183
245627
246042
246482
246895
247343
247751
248194
248623
249038
249476
249891
250333
250755
251168
251613
252025
252476
252889
253338
253755
254171
254600
255005
255445
255858
256265
256689
257080
257496
257881
258250
258621
258976
259334
259676
260015
260350
260683
261014
261331
261534
261890
262232
262570
262915
263259
263606
263963
264326
264688
265068
265456
265856
266266
266681
267115
267544
267981
268406
268841
269257
269687
270115
270533
270944
271338
271743
272120
272488
272864
273230
273613
274001
274388
274797
275211
275648
276077
276518
276951
277401
277829
278282
278712
279163
279594
280041
280475
280913
281352
281792
282233
282671
283116
283548
283991
284424
284859
285288
285716
286147
286557
286979
287384
287797
288204
288614
289037
289445
289873
290293
290728
291147
291577
291999
292432
292870
293298
293737
294157
294599
295019
295463
295893
296338
296767
297191
297623
298037
298462
298892
299310
299737
300156
300588
301011
301436
301859
302273
302690
303106
303522
303939
304356
304773
305186
305610
306027
306448
306871
307286
307705
308108
308525
308938
309370
309799
310231
310667
311088
311522
311943
312377
312811
313239
313675
314090
314530
314952
315380
315811
316226
316661
317086
317523
317953
318375
318801
319208
319626
320031
320450
320856
321285
321709
322125
322552
322985
323411
323844
324258
324679
325097
325521
325953
326367
326793
327207
327633
328061
328488
328907
329338
329777
330190
330619
331033
331458
331878
332292
332720
333129
333554
333965
334390
334814
335231
335662
336077
336499
336921
337329
337752
338166
338594
339014
339441
339878
340307
340744
341174
341607
342043
342476
342919
343341
343774
344198
344628
345051
345468
345892
346301
346725
347155
347569
348005
348419
348852
349270
349692
350112
350525
350955
351369
351800
352222
352646
353074
353486
353915
354328
354754
355175
355602
356027
356442
356871
357292
357710
358139
358555
358982
359410
359842
360271
360691
361132
361545
361967
362375
362801
363226
363648
364077
364464
364845
365218
365587
365957
366325
366696
367077
367466
367873
368307
368749
369199
369659
370098
370535
370976
371437
371875
372320
372759
373204
373640
374086
374530
374958
375394
375812
376235
376658
377062
377478
377876
378313
378747
379167
379611
380031
380470
380910
381347
381792
382223
382671
383130
383561
384018
384444
384882
385314
385765
386204
386655
387099
387539
387983
388422
388854
389288
389717
390153
390576
391010
391435
391867
392285
392710
393141
393553
393973
394395
394824
395244
395683
396119
396530
396956
397367
397784
398209
398629
399049
399456
399883
400313
400747
401194
401620
402060
402484
402930
403359
403808
404252
404685
405126
405550
405981
406398
406833
407257
407676
408099
408518
408942
409362
409790
410220
410638
411077
411508
411940
412370
412791
413220
413637
414056
414476
414885
415320
415738
416175
416596
417038
417479
417903
418345
418767
419198
419623
420050
420482
420896
421337
421754
422197
422626
423060
423487
423911
424337
424759
425170
425603
426022
426448
426867
427295
427712
428123
428548
428965
429380
429812
430226
430654
431061
431496
431924
432345
432784
433206
433643
434069
434510
434943
435374
435813
436229
436663
437083
437518
437939
438358
438781
439194
439615
440053
440462
440887
441299
441722
442150
442556
442987
443401
443834
444256
444693
445109
445542
445976
446407
446860
447286
447727
448160
448588
449019
449447
449879
450295
450727
451155
451591
452030
452459
452897
453333
453754
454194
454616
455042
455479
455913
456341
456778
457215
457633
458067
458481
458909
459338
459756
460184
460601
461034
461457
461864
462283
462688
463116
463544
463962
464399
464823
465254
465686
466101
466523
466953
467378
467797
468226
468652
469079
469519
469927
470349
470758
471182
471611
472020
472443
472856
473270
473677
474096
474520
474930
475362
475773
476201
476631
477061
477492
477912
478335
478746
479173
479594
480009
480432
480849
481271
481691
482106
482537
482959
483389
483825
484248
484675
485091
485524
485946
486384
486817
487247
487682
488099
488534
488943
489374
489793
490219
490645
491065
491491
491903
492333
492751
493163
493583
493993
494424
494851
495278
495708
496130
496559
496980
497404
497833
498254
498683
499103
499534
499961
500383
500816
501229
501645
502074
502481
502908
503314
503750
504164
504593
505019
505445
505870
506284
506720
507152
507566
507997
508417
508847
509265
509693
510116
510533
510957
511389
511799
512226
512640
513055
513463
513879
514302
514707
515135
515545
515967
516381
516810
517239
517658
518086
518500
518917
519344
519756
520176
520582
521014
521435
521854
522279
522706
523129
523550
523975
524392
524807
525236
525647
526068
526490
526903
527317
527721
528144
528571
528981
529406
529821
530238
530642
531061
531489
531887
532311
532720
533140
533555
533975
534394
534807
535236
535653
536081
536508
536923
537353
537769
538203
538621
539041
539465
539881
540300
540733
541146
541564
541974
542404
542820
543243
543672
544082
544498
544908
545339
545767
546175
546600
547013
547427
547854
548274
548714
549126
549562
549978
550411
550835
551268
551697
552117
552544
552952
553373
553794
554209
554620
555031
555454
555867
556289
556713
557133
557552
557969
558387
558794
559209
559629
560044
560465
560884
561302
561718
562132
562561
562971
563397
563811
564235
564645
565077
565501
565920
566350
566769
567192
567603
568026
568451
568876
569313
569729
570154
570571
570991
571418
571836
572267
572678
573105
573522
573946
574364
574774
575192
575591
576011
576423
576856
577266
577675
578077
578472
578868
579263
579660
580060
580469
580892
581321
581748
582186
582619
583052
583479
583910
584332
584748
585177
585597
586021
586458
586881
587311
587725
588153
588570
588998
589430
589848
590276
590691
591124
591547
591968
592394
592804
593230
593650
594077
594496
594917
595342
595751
596171
596595
597014
597438
597857
598281
598706
599128
599561
599974
600406
600834
601241
601660
602077
602503
602909
603341
603752
604170
604588
604999
605420
605820
606245
606669
607067
607488
607904
608328
608751
609169
609594
610016
610425
610858
611273
611704
612121
612541
612970
613373
613799
614222
614636
615056
615465
615891
616318
616732
617159
617583
618006
618414
618832
619254
619676
620110
620538
620974
621410
621825
622256
622666
623088
623527
623933
624363
624773
625203
625609
626033
626453
626858
627280
627705
628125
628562
628977
629407
629816
630245
630676
631098
631532
631954
632386
632803
633232
633655
634078
634497
634917
635337
635752
636177
636606
637017
637449
637861
638282
638706
639113
639538
639950
640370
640781
641189
641602
642010
642432
642849
643264
643682
644090
644505
644918
645336
645753
646162
646579
646986
647399
647818
648227
648650
649081
649496
649925
